Time,ECG,Pressure,R_Peaks,mean_hr,hrv_scale,Phase_Bin,Normalized_Pressure
0.0,0.001684486749771458,77.5,0,100,3.0,0,0.0
0.005,0.00456624331333666,77.5,0,100,3.0,0,0.0
0.01,0.011079731271581421,77.5,0,100,3.0,0,0.0
0.015,0.024064571490409,77.5,0,100,3.0,0,0.0
0.02,0.046784906529573234,77.5,0,100,3.0,0,0.0
0.025,0.08141644351188804,77.5,0,100,3.0,0,0.0
0.03,0.12682276464025305,77.5,0,100,3.0,0,0.0
0.035,0.1768320708657512,77.5,0,100,3.0,0,0.0
0.04,0.22070063230473494,77.5,0,100,3.0,0,0.0
0.045,0.24656126505113576,77.5,0,100,3.0,0,0.0
0.05,0.24656126505724016,77.5,0,100,3.0,0,0.0
0.055,0.220700632329898,77.5,0,100,3.0,0,0.0
0.06,0.17683207093748562,77.5,0,100,3.0,0,0.0
0.065,0.12682276483597799,77.5,0,100,3.0,0,0.0
0.07,0.08141644409447898,77.5,0,100,3.0,0,0.0
0.075,0.04678490952598309,77.5,0,100,3.0,0,0.0
0.08,0.024064605020532023,77.5,0,100,3.0,0,0.0
0.085,0.011080171739334697,77.5,0,100,3.0,0,0.0
0.09,0.004571212771509492,77.5,0,100,3.0,0,0.0
0.095,0.0017299316936037438,77.5,0,100,3.0,0,0.0
0.1,0.0008899431850697582,77.5,0,100,3.0,0,0.0
0.105,0.002128806368910263,77.5,0,100,3.0,0,0.0
0.11,0.009309664818487698,77.5,0,100,3.0,0,0.0
0.115,0.03503263543368747,77.5,0,100,3.0,0,0.0
0.12,0.10606267793605692,77.5,0,100,3.0,0,0.0
0.125,0.25734927343160535,77.5,0,100,3.0,0,0.0
0.13,0.5003202479539708,77.5,0,100,3.0,0,0.0
0.135,0.7793067891790435,77.5,0,100,3.0,0,0.0
0.14,0.9720477407234077,77.5,0,100,3.0,0,0.0
0.145,0.967267334488097,77.5,0,100,3.0,0,0.0
0.15,0.7505869905515209,77.5,0,100,3.0,0,0.0
0.155,0.4028369574773956,77.5,0,100,3.0,0,0.0
0.16,0.04553881263121314,77.5,0,100,3.0,0,0.0
0.165,-0.189138810908105,77.5,0,100,3.0,0,0.0
0.17,-0.22868072635956738,77.5,0,100,3.0,0,0.0
0.175,-0.14104670682394166,77.5,0,100,3.0,0,0.0
0.18,-0.051158381651102834,77.5,0,100,3.0,0,0.0
0.185,-0.008206426846427752,77.5,0,100,3.0,0,0.0
0.19,0.005350271385530505,77.5,0,100,3.0,0,0.0
0.195,0.01084668799215426,77.5,0,100,3.0,0,0.0
0.2,0.016256859896386415,77.5,0,100,3.0,0,0.0
0.205,0.02345021205790711,77.5,0,100,3.0,0,0.0
0.21,0.0330621597308209,77.5,0,100,3.0,0,0.0
0.215,0.04559141319943196,77.5,0,100,3.0,0,0.0
0.22,0.06149084917446989,77.5,0,100,3.0,0,0.0
0.225,0.08111733445924295,77.5,0,100,3.0,0,0.0
0.23,0.1046628598272375,77.5,0,100,3.0,0,0.0
0.235,0.1320831047748631,77.5,0,100,3.0,0,0.0
0.24,0.16303381314489318,77.5,0,100,3.0,0,0.0
0.245,0.19682662652900276,77.5,0,100,3.0,0,0.0
0.25,0.23241585813229,77.5,0,100,3.0,0,0.0
0.255,0.26842527782774417,77.5,0,100,3.0,0,0.0
0.26,0.30321927900592993,77.5,0,100,3.0,0,0.0
0.265,0.3350163137995362,77.5,0,100,3.0,0,0.0
0.27,0.3620352400956416,77.5,0,100,3.0,0,0.0
0.275,0.3826586036805073,77.5,0,100,3.0,0,0.0
0.28,0.39559233134833227,77.5,0,100,3.0,0,0.0
0.285,0.4,77.5,0,100,3.0,0,0.0
0.29,0.39559233134833227,77.5,0,100,3.0,0,0.0
0.295,0.3826586036805073,77.5,0,100,3.0,0,0.0
0.3,0.3620352400956416,77.5,0,100,3.0,0,0.0
0.305,0.3350163137995362,77.5,0,100,3.0,0,0.0
0.31,0.3032192790059296,77.5,0,100,3.0,0,0.0
0.315,0.26842527782774417,77.5,0,100,3.0,0,0.0
0.32,0.23241585813229,77.5,0,100,3.0,0,0.0
0.325,0.19682662652900276,77.5,0,100,3.0,0,0.0
0.33,0.16303381314489318,77.5,0,100,3.0,0,0.0
0.335,0.13208310477486307,77.5,0,100,3.0,0,0.0
0.34,0.10466285982723562,77.5,0,100,3.0,0,0.0
0.345,0.08111733445917907,77.5,0,100,3.0,0,0.0
0.35,0.06149084917398798,77.5,0,100,3.0,0,0.0
0.355,0.04559141333598128,77.5,0,100,3.0,0,0.0
0.36,0.03306217087257399,77.5,0,100,3.0,0,0.0
0.365,0.02345067901074276,77.5,0,100,3.0,0,0.0
0.37,0.016268788896435526,77.5,0,100,3.0,0,0.0
0.375,0.011039026374860051,77.5,0,100,3.0,0,0.0
0.38,0.007326255555493689,77.5,0,100,3.0,0,0.0
0.385,0.0047556414315231815,77.5,0,100,3.0,0,0.0
0.39,0.0030193390635632803,77.5,0,100,3.0,0,0.0
0.395,0.001874953127946523,77.5,0,100,3.0,0,0.0
0.4,0.0011387927410965778,77.5,0,100,3.0,0,0.0
0.405,0.0006765107634274089,77.5,0,100,3.0,0,0.0
0.41,0.00039307957404427924,77.5,0,100,3.0,0,0.0
0.415,0.00022338910511776318,77.5,0,100,3.0,0,0.0
0.42,0.00012417073320013317,77.5,0,100,3.0,0,0.0
0.425,6.750753468904987e-05,77.5,0,100,3.0,0,0.0
0.43,3.5897234866245036e-05,77.5,0,100,3.0,0,0.0
0.435,1.8670050400879738e-05,77.5,0,100,3.0,0,0.0
0.44,9.497421874143672e-06,77.5,0,100,3.0,0,0.0
0.445,4.725434140340885e-06,77.5,0,100,3.0,0,0.0
0.45,2.299606063738814e-06,77.5,0,100,3.0,0,0.0
0.455,1.0945633976635486e-06,77.5,0,100,3.0,0,0.0
0.46,5.095703414287532e-07,77.5,0,100,3.0,0,0.0
0.465,2.3202944964797243e-07,77.5,0,100,3.0,0,0.0
0.47,1.0333746954038608e-07,77.5,0,100,3.0,0,0.0
0.475,4.501406988770349e-08,77.5,0,100,3.0,0,0.0
0.48,0.0,77.5,0,100,3.0,0,0.0
0.485,0.0,77.5,0,100,3.0,0,0.0
0.49,0.0,77.5,0,100,3.0,0,0.0
0.495,0.0,77.5,0,100,3.0,0,0.0
0.5,0.0,77.5,0,100,3.0,0,0.0
0.505,0.0,77.5,0,100,3.0,0,0.0
0.51,0.0,77.5,0,100,3.0,0,0.0
0.515,0.0,77.5,0,100,3.0,0,0.0
0.52,0.0,77.5,0,100,3.0,0,0.0
0.525,0.0,77.5,0,100,3.0,0,0.0
0.53,0.0,77.5,0,100,3.0,0,0.0
0.535,0.0,77.5,0,100,3.0,0,0.0
0.54,0.0,77.5,0,100,3.0,0,0.0
0.545,0.0,77.5,0,100,3.0,0,0.0
0.55,0.0,77.5,0,100,3.0,0,0.0
0.555,0.0,77.5,0,100,3.0,0,0.0
0.56,0.0,77.5,0,100,3.0,0,0.0
0.565,0.0,77.5,0,100,3.0,0,0.0
0.57,0.0,77.5,0,100,3.0,0,0.0
0.575,0.0,77.5,0,100,3.0,0,0.0
0.58,0.0,77.5,0,100,3.0,0,0.0
0.585,0.0,77.5,0,100,3.0,0,0.0
0.59,0.001684486749771458,77.5,0,100,3.0,0,0.0
0.595,0.00456624331333666,77.5,0,100,3.0,0,0.0
0.6,0.011079731271581421,77.5,0,100,3.0,0,0.0
0.605,0.024064571490409,77.5,0,100,3.0,0,0.0
0.61,0.046784906529573234,77.5,0,100,3.0,0,0.0
0.615,0.08141644351188804,77.5,0,100,3.0,0,0.0
0.62,0.12682276464025305,77.5,0,100,3.0,0,0.0
0.625,0.1768320708657512,77.5,0,100,3.0,0,0.0
0.63,0.22070063230473494,77.5,0,100,3.0,0,0.0
0.635,0.24656126505113576,77.5,0,100,3.0,0,0.0
0.64,0.24656126505724016,77.5,0,100,3.0,0,0.0
0.645,0.220700632329898,77.5,0,100,3.0,0,0.0
0.65,0.17683207093748562,77.5,0,100,3.0,0,0.0
0.655,0.12682276483597799,77.5,0,100,3.0,0,0.0
0.66,0.08141644409447898,77.5,0,100,3.0,0,0.0
0.665,0.04678490952598309,77.5,0,100,3.0,0,0.0
0.67,0.024064605020532023,77.5,0,100,3.0,0,0.0
0.675,0.011080171739334697,77.5,0,100,3.0,0,0.0
0.68,0.004571212771509492,77.5,0,100,3.0,0,0.0
0.685,0.0017299316936037438,77.5,0,100,3.0,0,0.0
0.69,0.0008899431850697582,77.5,0,100,3.0,0,0.0
0.695,0.002128806368910263,77.5,0,100,3.0,0,0.0
0.7,0.009309664818487698,77.5,0,100,3.0,0,0.0
0.705,0.03503263543368747,77.5,0,100,3.0,0,0.0
0.71,0.10606267793605692,77.5,0,100,3.0,0,0.0
0.715,0.25734927343160535,77.5,0,100,3.0,0,0.0
0.72,0.5003202479539708,77.5,0,100,3.0,0,0.0
0.725,0.7793067891790435,77.5,0,100,3.0,0,0.0
0.73,0.9720477407234077,77.5000029632167,1,100,3.0,0,5.867755844249559e-08
0.735,0.967267334488097,77.5000057751259,0,100,3.0,0,1.1435892869854743e-07
0.74,0.7505869905515209,77.50001199175011,0,100,3.0,0,2.3746039829293835e-07
0.745,0.4028369574773956,77.50002751992237,0,100,3.0,0,5.449489578094841e-07
0.75,0.04553881263121314,77.50007070106201,0,100,3.0,0,1.4000210299936142e-06
0.755,-0.189138810908105,77.50019813608883,0,100,3.0,0,3.9234869074568835e-06
0.76,-0.22868072635956738,77.50057818202339,0,100,3.0,0,1.144914897800431e-05
0.765,-0.14104670682394166,77.50168586741358,0,100,3.0,0,3.3383513140290576e-05
0.77,-0.051158381651102834,77.5047820690373,0,100,3.0,0,9.469443638226498e-05
0.775,-0.008206426846427752,77.51300007149011,0,100,3.0,0,0.00025742715822002987
0.78,0.005350271385530505,77.53360476810788,0,100,3.0,0,0.0006654409526312507
0.785,0.01084668799215426,77.58226524038565,0,100,3.0,0,0.0016290146611020258
0.79,0.016256859896386415,77.69031446440876,0,100,3.0,0,0.0037686032556189615
0.795,0.02345021205790711,77.9156022259755,0,100,3.0,0,0.008229747049019897
0.8,0.0330621597308209,78.35618586329275,0,100,3.0,0,0.016954175510747547
0.805,0.04559141319943196,79.16338774532016,0,100,3.0,0,0.03293837119445871
0.81,0.06149084917446989,80.54697677121837,0,100,3.0,0,0.06033617368749244
0.815,0.08111733445924295,82.76193692058763,0,100,3.0,0,0.10419677070470554
0.82,0.1046628598272375,86.06632239589023,0,100,3.0,0,0.1696301464532718
0.825,0.1320831047748631,90.64618514458124,0,100,3.0,0,0.2603204979124998
0.83,0.16303381314489318,96.51755276989908,0,100,3.0,0,0.37658520336433826
0.835,0.19682662652900276,103.43337691048391,0,100,3.0,0,0.5135322160491864
0.84,0.23241585813229,110.83650493935875,0,100,3.0,0,0.6601288106803712
0.845,0.26842527782774417,117.89739331976155,0,100,3.0,0,0.7999483825695356
0.85,0.30321927900592993,123.65167505875493,0,100,3.0,0,0.9138945556189095
0.855,0.3350163137995362,127.21320863734229,0,100,3.0,0,0.984419973016679
0.86,0.3620352400956416,128.0,0,100,3.0,0,1.0
0.865,0.3826586036805073,125.89439684457138,0,100,3.0,0,0.9583048880113143
0.87,0.39559233134833227,121.27734577653152,0,100,3.0,0,0.8668781341887429
0.875,0.4,114.92344206600626,0,100,3.0,0,0.7410582587327972
0.88,0.39559233134833227,107.79691013430045,0,100,3.0,0,0.5999388145406029
0.885,0.3826586036805073,100.82266697370292,0,100,3.0,0,0.4618349895782757
0.89,0.3620352400956416,94.70661957252793,0,100,3.0,0,0.34072514005005794
0.895,0.3350163137995362,89.84941816370699,0,100,3.0,0,0.2445429339347918
0.9,0.3032192790059296,86.35636014773148,0,100,3.0,0,0.17537346827191047
0.905,0.26842527782774417,84.11343960508452,0,100,3.0,0,0.13095920010068363
0.91,0.23241585813229,82.88714208485197,0,100,3.0,0,0.10667608088815789
0.915,0.19682662652900276,82.41251134980615,0,100,3.0,0,0.09727745247140895
0.92,0.16303381314489318,82.45099200146763,0,100,3.0,0,0.09803944557361635
0.925,0.13208310477486307,82.8162323398421,0,100,3.0,0,0.10527192752162579
0.93,0.10466285982723562,83.37622289337803,0,100,3.0,0,0.11636084937382234
0.935,0.08111733445917907,84.04294535759365,0,100,3.0,0,0.12956327440779508
0.94,0.06149084917398798,84.75858818303747,0,100,3.0,0,0.14373441946608861
0.945,0.04559141333598128,85.4835482932493,0,100,3.0,0,0.1580900652128574
0.95,0.03306217087257399,86.18809782060332,0,100,3.0,0,0.17204154100204588
0.955,0.02345067901074276,86.84758514710228,0,100,3.0,0,0.18510069598222334
0.96,0.016268788896435526,87.44024089333156,0,100,3.0,0,0.19683645333329827
0.965,0.011039026374860051,87.94659384418057,0,100,3.0,0,0.2068632444392192
0.97,0.007326255555493689,88.34973107038635,0,100,3.0,0,0.2148461598096308
0.975,0.0047556414315231815,88.6359020647416,0,100,3.0,0,0.22051291217310098
0.98,0.0030193390635632803,88.79516897178708,0,100,3.0,0,0.2236667123126154
0.985,0.001874953127946523,88.8219336995392,0,100,3.0,0,0.22419670692156835
0.99,0.0011387927410965778,88.71524935893723,0,100,3.0,0,0.22208414572152926
0.995,0.0006765107634274089,88.47887116054635,0,100,3.0,0,0.21740338931774947
1.0,0.00039307957404427924,88.12103561282021,0,100,3.0,0,0.21031753688752888
1.005,0.00022338910511776318,87.65398370746026,0,100,3.0,0,0.20106898430614367
1.01,0.00012417073320013317,87.09326584850498,0,100,3.0,0,0.18996566036643533
1.015,6.750753468904987e-05,86.45688333992547,0,100,3.0,0,0.1773640265331776
1.02,3.5897234866245036e-05,85.76433238765725,0,100,3.0,0,0.16365014629024255
1.025,1.8670050400879738e-05,85.03562111892845,0,100,3.0,0,0.14922022017680092
1.03,9.497421874143672e-06,84.29032800874867,0,100,3.0,0,0.13446194076730048
1.035,4.725434140340885e-06,83.54676196678626,0,100,3.0,0,0.11973786072844086
1.04,2.299606063738814e-06,82.82127143199685,0,100,3.0,0,0.10537171152469006
1.045,1.0945633976635486e-06,82.12773383300559,0,100,3.0,0,0.09163829372288303
1.05,5.095703414287532e-07,81.47723957849853,0,100,3.0,0,0.07875721937620844
1.055,2.3202944964797243e-07,80.8779681711764,0,100,3.0,0,0.06689045883517634
1.06,1.0333746954038608e-07,80.33523965205595,0,100,3.0,0,0.056143359446652406
1.065,4.501406988770349e-08,79.85171351657259,0,100,3.0,0,0.04656858448658589
1.07,0.0,79.4277001310269,0,100,3.0,0,0.03817227982231477
1.075,0.0,79.06154663501417,0,100,3.0,0,0.030921715544834995
1.08,0.0,78.75006000694432,0,100,3.0,0,0.024753663503847993
1.085,0.0,78.48893371593002,0,100,3.0,0,0.019582845860000333
1.09,0.0,78.27315029611424,0,100,3.0,0,0.015309906853747291
1.095,0.0,78.09733930154225,0,100,3.0,0,0.01182850102063859
1.1,0.0,77.95607752728124,0,100,3.0,0,0.009031238163984908
1.105,0.0,77.84412535886558,0,100,3.0,0,0.006814363541892725
1.11,0.0,77.75659908390251,0,100,3.0,0,0.005081169978267619
1.115,0.0,77.68908363648295,0,100,3.0,0,0.0037442304254049156
1.12,0.0,77.63769342762592,0,100,3.0,0,0.0027266025272459243
1.125,0.0,77.59909069997673,0,100,3.0,0,0.001962192078747081
1.13,0.0,77.57047141662967,0,100,3.0,0,0.001395473596627178
1.135,0.0,77.54952831210755,0,100,3.0,0,0.0009807586555951383
1.14,0.0,77.53439968565549,0,100,3.0,0,0.0006811818941680531
1.145,0.0,77.52361107934098,0,100,3.0,0,0.0004675461255639747
1.15,0.0,77.51601539400482,0,100,3.0,0,0.0003171365149470229
1.155,0.0,77.5107354396466,0,100,3.0,0,0.00021258296329891224
1.16,0.0,77.5071115204345,0,100,3.0,0,0.00014082218682190587
1.165,0.0,77.50465549120143,0,100,3.0,0,9.218794458283044e-05
1.17,0.0,77.50301181976099,0,100,3.0,0,5.963999526703348e-05
1.175,0.0,77.50192554142846,0,100,3.0,0,3.812953323688924e-05
1.18,0.0,77.50121657020485,0,100,3.0,0,2.409049910586801e-05
1.185,0.0,77.50075959466382,0,100,3.0,0,1.5041478491465937e-05
1.19,0.0,77.5004686914755,0,100,3.0,0,9.281019316912903e-06
1.195,0.0,77.50028579368261,0,100,3.0,0,5.659280843712965e-06
1.2,0.0,77.50017221802912,0,100,3.0,0,3.410258002396845e-06
1.205,0.0,77.50010255693317,0,100,3.0,1,2.0308303598341972e-06
1.21,0.0,77.50006035480573,0,100,3.0,1,1.1951446678344072e-06
1.215,0.0,77.50003510096914,0,100,3.0,1,6.950686958976569e-07
1.22,0.0,77.50002017375671,0,100,3.0,1,3.9948033088309094e-07
1.225,0.0,77.5000114581597,0,100,3.0,1,2.2689425157628954e-07
1.23,0.0,77.50000643136833,0,100,3.0,1,1.2735382839390794e-07
1.235,0.0,77.50000356740416,0,100,3.0,1,7.06416666153108e-08
1.24,0.0,77.50000195551733,0,100,3.0,1,3.8723115521591324e-08
1.245,0.001684486749771458,77.50000105933042,0,100,3.0,1,2.097683990865731e-08
1.25,0.00456624331333666,77.50000056710259,0,100,3.0,1,1.1229754235419834e-08
1.255,0.011079731271581421,77.50000030002141,0,100,3.0,1,5.941018062543717e-09
1.26,0.024064571490409,77.50000015685677,0,100,3.0,1,3.106074675790548e-09
1.265,0.046784906529573234,77.50000008104286,0,100,3.0,1,1.6048090293396052e-09
1.27,0.08141644351188804,77.50000004137964,0,100,3.0,1,8.193987270877385e-10
1.275,0.12682276464025305,77.50000002087944,0,100,3.0,1,4.1345426532391476e-10
1.28,0.1768320708657512,77.50000001041145,0,100,3.0,1,2.0616742196832298e-10
1.285,0.22070063230473494,77.50000000513056,0,100,3.0,1,1.0159522947889297e-10
1.29,0.24656126505113576,77.5000000024985,0,100,3.0,1,4.947516104174169e-11
1.295,0.24656126505724016,77.50000000120241,0,100,3.0,1,2.3810076023023207e-11
1.3,0.220700632329898,77.50000000057186,0,100,3.0,1,1.1323940685038491e-11
1.305,0.17683207093748562,77.50000000026877,0,100,3.0,1,5.322176143140901e-12
1.31,0.12682276483597799,77.50000000012483,0,100,3.0,1,2.4718445112541467e-12
1.315,0.08141644409447898,77.5000000000573,0,100,3.0,1,1.1346171527068214e-12
1.32,0.04678490952598309,77.50000000002599,0,100,3.0,1,5.146862034476132e-13
1.325,0.024064605020532023,77.50000000001165,0,100,3.0,1,2.3075051220724046e-13
1.33,0.011080171739334697,77.50000000000516,0,100,3.0,1,1.0214931211125401e-13
1.335,0.004571212771509492,77.50000000000226,0,100,3.0,1,4.474308712311126e-14
1.34,0.0017299316936037438,77.50000000000098,0,100,3.0,1,1.9416811393048284e-14
1.345,0.0008899431850697582,77.50000000000041,0,100,3.0,1,8.160688846353625e-15
1.35,0.002128806368910263,77.50000000000017,0,100,3.0,1,3.3768367640083968e-15
1.355,0.009309664818487698,77.50000000000007,0,100,3.0,1,1.4070153183368321e-15
1.36,0.03503263543368747,77.50000000000003,0,100,3.0,1,5.628061273347328e-16
1.365,0.10606267793605692,77.50000000000001,0,100,3.0,1,2.814030636673664e-16
1.37,0.25734927343160535,77.5,0,100,3.0,1,0.0
1.375,0.5003202479539708,77.5,0,100,3.0,1,0.0
1.38,0.7793067891790435,77.5,0,100,3.0,1,0.0
1.385,0.9720477407234077,77.50000295858521,1,100,3.0,1,5.858584580720963e-08
1.39,0.967267334488097,77.50000627158161,0,100,3.0,1,1.2418973487865964e-07
1.395,0.7505869905515209,77.50001448202111,0,100,3.0,1,2.867726953417611e-07
1.4,0.4028369574773956,77.5000381880034,0,100,3.0,1,7.56198087153937e-07
1.405,0.04553881263121314,77.50011515393722,0,100,3.0,1,2.2802759844742666e-06
1.41,-0.189138810908105,77.5003768133724,0,100,3.0,1,7.461650938574905e-06
1.415,-0.22868072635956738,77.50125530195008,0,100,3.0,1,2.4857464358047304e-05
1.42,-0.14104670682394166,77.50407161723201,0,100,3.0,1,8.062608380226824e-05
1.425,-0.051158381651102834,77.5125498908563,0,100,3.0,1,0.00024851269022388076
1.43,-0.008206426846427752,77.53632357375037,0,100,3.0,1,0.0007192786881260548
1.435,0.005350271385530505,77.59816032657108,0,100,3.0,1,0.0019437688429916036
1.44,0.01084668799215426,77.74699421583978,0,100,3.0,1,0.004890974571084695
1.445,0.016256859896386415,78.0778955905149,0,100,3.0,1,0.011443477039898991
1.45,0.02345021205790711,78.75638253739591,0,100,3.0,1,0.024878862126651635
1.455,0.0330621597308209,80.03714578164362,0,100,3.0,1,0.050240510527596365
1.46,0.04559141319943196,82.2581074321164,0,100,3.0,1,0.09421994915081988
1.465,0.06149084917446989,85.78593960996649,0,100,3.0,1,0.16407801207854436
1.47,0.08111733445924295,90.89811556558197,0,100,3.0,1,0.26530921912043515
1.475,0.1046628598272375,97.61546592808551,0,100,3.0,1,0.39832605798189136
1.48,0.1320831047748631,105.5415466537269,0,100,3.0,1,0.5552781515589484
1.485,0.16303381314489318,113.79708988561208,0,100,3.0,1,0.7187542551606353
1.49,0.19682662652900276,121.12822094684294,0,100,3.0,1,0.8639251672642168
1.495,0.23241585813229,126.20143333597863,0,100,3.0,1,0.9643848185342304
1.5,0.26842527782774417,128.0,0,100,3.0,1,1.0
1.505,0.30321927900592993,126.16275066678318,0,100,3.0,1,0.9636188250848154
1.51,0.3350163137995362,121.1116044575634,0,100,3.0,1,0.8635961278725426
1.515,0.3620352400956416,113.90717007869759,0,100,3.0,1,0.7209340609643087
1.52,0.3826586036805073,105.90088318147954,0,100,3.0,1,0.5623937263659315
1.525,0.39559233134833227,98.34046706321053,0,100,3.0,1,0.41268251610317874
1.53,0.4,92.08499814602648,0,100,3.0,1,0.28881184447577185
1.535,0.39559233134833227,87.50864038323002,0,100,3.0,1,0.1981908986778221
1.54,0.3826586036805073,84.57442275691706,0,100,3.0,1,0.14008757934489227
1.545,0.3620352400956416,82.99710802083918,0,100,3.0,1,0.10885362417503323
1.55,0.3350163137995362,82.40804661099806,0,100,3.0,1,0.09718904180194171
1.555,0.3032192790059296,82.46851319639717,0,100,3.0,1,0.0983863999286568
1.56,0.26842527782774417,82.92004890238644,0,100,3.0,1,0.10732770103735526
1.565,0.23241585813229,83.58796849171559,0,100,3.0,1,0.12055383151912051
1.57,0.19682662652900276,84.36197804515345,0,100,3.0,1,0.13588075336937525
1.575,0.16303381314489318,85.17248310799981,0,100,3.0,1,0.15193035857425366
1.58,0.13208310477486307,85.97196310008664,0,100,3.0,1,0.1677616455462701
1.585,0.10466285982723562,86.72363196440325,0,100,3.0,1,0.18264617751293571
1.59,0.08111733445917907,87.39605351764324,0,100,3.0,1,0.1959614557949156
1.595,0.06149084917398798,87.9615095120021,0,100,3.0,1,0.20715860419806129
1.6,0.04559141333598128,88.39629447802281,0,100,3.0,1,0.2157682074856002
1.605,0.03306217087257399,88.6817572080628,0,100,3.0,1,0.22142093481312486
1.61,0.02345067901074276,88.80541912343043,0,100,3.0,1,0.2238696856124837
1.615,0.016268788896435526,88.761813641984,0,100,3.0,1,0.22300621073235655
1.62,0.011039026374860051,88.55286824522712,0,100,3.0,1,0.21886867812330923
1.625,0.007326255555493689,88.18775826412227,0,100,3.0,1,0.2116387775073716
1.63,0.0047556414315231815,87.68223746822366,0,100,3.0,1,0.20162846471730023
1.635,0.0030193390635632803,87.05751062541435,0,100,3.0,1,0.18925763614681884
1.64,0.001874953127946523,86.33875969754904,0,100,3.0,1,0.17502494450592151
1.645,0.0011387927410965778,85.55346606508107,0,100,3.0,1,0.15947457554615976
1.65,0.0006765107634274089,84.72968388537797,0,100,3.0,1,0.14316205713619734
1.655,0.00039307957404427924,83.8944140290608,0,100,3.0,1,0.12662205998140194
1.66,0.00022338910511776318,83.07220603434823,0,100,3.0,1,0.11034071355145003
1.665,0.00012417073320013317,82.2840812711329,0,100,3.0,1,0.09473428259669119
1.67,6.750753468904987e-05,81.54682943609703,0,100,3.0,1,0.08013523635835698
1.675,3.5897234866245036e-05,80.87268841585063,0,100,3.0,1,0.06678590922476499
1.68,1.8670050400879738e-05,80.26937973963246,0,100,3.0,1,0.054839202764999116
1.685,9.497421874143672e-06,79.7404423296401,0,100,3.0,1,0.04436519464633868
1.69,4.725434140340885e-06,79.28578839837682,0,100,3.0,1,0.03536214650251135
1.695,2.299606063738814e-06,78.90239771037702,0,100,3.0,1,0.02777025169063399
1.7,1.0945633976635486e-06,78.58506900977153,0,100,3.0,1,0.021486515044980795
1.705,5.095703414287532e-07,78.32715803895881,0,100,3.0,1,0.016379367108095323
1.71,2.3202944964797243e-07,78.12124742111936,0,100,3.0,1,0.012301929131076509
1.715,1.0333746954038608e-07,77.95971182173484,0,100,3.0,1,0.009103204390788959
1.72,4.501406988770349e-08,77.83515963913185,0,100,3.0,1,0.006636824537264261
1.725,0.0,77.74074802073012,0,100,3.0,1,0.004767287539210363
1.73,0.0,77.67038003596295,0,100,3.0,1,0.003373862098276232
1.735,0.0,77.61880087924757,0,100,3.0,1,0.0023524926583677777
1.74,0.0,77.5816141709287,0,100,3.0,1,0.001616122196607968
1.745,0.0,77.5552403549693,0,100,3.0,1,0.0010938684152336571
1.75,0.0,77.53683768391573,0,100,3.0,1,0.0007294590874402959
1.755,0.0,77.52420321967791,0,100,3.0,1,0.00047927167679039497
1.76,0.0,77.51566747236087,0,100,3.0,1,0.0003102469774430597
1.765,0.0,77.50999239747283,0,100,3.0,1,0.00019786925688769166
1.77,0.0,77.50627892699517,0,100,3.0,1,0.00012433518802307088
1.775,0.0,77.50388728278739,0,100,3.0,1,7.697589677997649e-05
1.78,0.0,77.50237111056772,0,100,3.0,1,4.695268450935074e-05
1.785,0.0,77.50142495925365,0,100,3.0,1,2.8217014923849084e-05
1.79,0.0,77.5008437194384,0,100,3.0,1,1.6707315611742756e-05
1.795,0.0,77.50049219662667,0,100,3.0,1,9.746467854781015e-06
1.8,0.0,77.50028289428887,0,100,3.0,1,5.601867106388634e-06
1.805,0.0,77.500160197117,0,100,3.0,1,3.172220138565373e-06
1.81,0.0,77.50008937790716,0,100,3.0,1,1.769859547701092e-06
1.815,0.0,77.50004913043793,0,100,3.0,1,9.728799590006794e-07
1.82,0.0,77.50002660823445,0,100,3.0,1,5.268957316743446e-07
1.825,0.0,77.50001419797643,0,100,3.0,1,2.811480480503822e-07
1.83,0.001684486749771458,77.50000746417498,0,100,3.0,1,1.4780544524280167e-07
1.835,0.00456624331333666,77.50000386618065,0,100,3.0,1,7.6558032643865e-08
1.84,0.011079731271581421,77.50000197300162,0,100,3.0,1,3.906933893676528e-08
1.845,0.024064571490409,77.5000009920138,0,100,3.0,1,1.9643837535707885e-08
1.85,0.046784906529573234,77.50000049142014,0,100,3.0,1,9.731091848710877e-09
1.855,0.08141644351188804,77.50000023984637,0,100,3.0,1,4.749433110821946e-09
1.86,0.12682276464025305,77.50000011533426,0,100,3.0,1,2.2838467223006982e-09
1.865,0.1768320708657512,77.50000005464224,0,100,3.0,1,1.0820246085257727e-09
1.87,0.22070063230473494,77.50000002550607,0,100,3.0,1,5.050706607620992e-10
1.875,0.24656126505113576,77.50000001173015,0,100,3.0,1,2.3228021926133627e-10
1.88,0.24656126505724016,77.50000000531507,0,100,3.0,1,1.0524896685755005e-10
1.885,0.220700632329898,77.50000000237279,0,100,3.0,1,4.698586954054017e-11
1.89,0.17683207093748562,77.50000000104365,0,100,3.0,1,2.066624099573139e-11
1.895,0.12682276483597799,77.50000000045226,0,100,3.0,1,8.955652501213936e-12
1.9,0.08141644409447898,77.5000000001931,0,100,3.0,1,3.823704829112175e-12
1.905,0.04678490952598309,77.50000000008123,0,100,3.0,1,1.6084999119226663e-12
1.91,0.024064605020532023,77.50000000003367,0,100,3.0,1,6.66643857827991e-13
1.915,0.011080171739334697,77.50000000001374,0,100,3.0,1,2.7211676256634333e-13
1.92,0.004571212771509492,77.50000000000553,0,100,3.0,1,1.0946579176660553e-13
1.925,0.0017299316936037438,77.50000000000219,0,100,3.0,1,4.333607180477443e-14
1.93,0.0008899431850697582,77.50000000000085,0,100,3.0,1,1.6884183820041984e-14
1.935,0.002128806368910263,77.50000000000033,0,100,3.0,1,6.472270464349428e-15
1.94,0.009309664818487698,77.50000000000013,0,100,3.0,1,2.5326275730062976e-15
1.945,0.03503263543368747,77.50000000000004,0,100,3.0,1,8.442091910020992e-16
1.95,0.10606267793605692,77.50000000000001,0,100,3.0,1,2.814030636673664e-16
1.955,0.25734927343160535,77.5,0,100,3.0,1,0.0
1.96,0.5003202479539708,77.5,0,100,3.0,1,0.0
1.965,0.7793067891790435,77.5,0,100,3.0,1,0.0
1.97,0.9720477407234077,77.50000296821848,1,100,3.0,1,5.877660359741154e-08
1.975,0.967267334488097,77.50000555786124,0,100,3.0,1,1.1005665828183692e-07
1.98,0.7505869905515209,77.50001098644799,0,100,3.0,1,2.1755342553624718e-07
1.985,0.4028369574773956,77.50002366221294,0,100,3.0,1,4.6855867206449876e-07
1.99,0.04553881263121314,77.50005637964082,0,100,3.0,1,1.1164285311760167e-06
1.995,-0.189138810908105,77.50014629932465,0,100,3.0,1,2.8970163297984046e-06
2.0,-0.22868072635956738,77.5003983603415,0,100,3.0,1,7.888323594188747e-06
2.005,-0.14104670682394166,77.50109618271992,0,100,3.0,1,2.1706588513259903e-05
2.01,-0.051158381651102834,77.5029672395725,0,100,3.0,1,5.875721925739941e-05
2.015,-0.008206426846427752,77.5077738529244,0,100,3.0,1,0.00015393768167131845
2.02,0.005350271385530505,77.51953537720718,0,100,3.0,1,0.0003868391526173645
2.025,0.01084668799215426,77.5468597971033,0,100,3.0,1,0.0009279167743226715
2.03,0.016256859896386415,77.60701325684117,0,100,3.0,1,0.002119074392894471
2.035,0.02345021205790711,77.73233534385142,0,100,3.0,1,0.004600699878245892
2.04,0.0330621597308209,77.9791707061265,0,100,3.0,1,0.009488528834188036
2.045,0.04559141319943196,78.43835600603057,0,100,3.0,1,0.018581307050110376
2.05,0.06149084917446989,79.2443526849607,0,100,3.0,1,0.034541637325954506
2.055,0.08111733445924295,80.5776787519021,0,100,3.0,1,0.060944133701031654
2.06,0.1046628598272375,82.6534072980135,0,100,3.0,1,0.10204766926759416
2.065,0.1320831047748631,85.68886781803019,0,100,3.0,1,0.16215579837683544
2.07,0.16303381314489318,89.84803150339525,0,100,3.0,1,0.2445154753147574
2.075,0.19682662652900276,95.16889586372828,0,100,3.0,1,0.3498791260144214
2.08,0.23241585813229,101.49152480674155,0,100,3.0,1,0.4750796991433971
2.085,0.26842527782774417,108.41344217856836,0,100,3.0,1,0.6121473698726408
2.09,0.30321927900592993,115.2997208265866,0,100,3.0,1,0.7485093232987444
2.095,0.3350163137995362,121.36325841725889,0,100,3.0,1,0.868579374599186
2.1,0.3620352400956416,125.80776918915146,0,100,3.0,1,0.9565894888940882
2.105,0.3826586036805073,128.0,0,100,3.0,1,1.0
2.11,0.39559233134833227,127.62052355043762,0,100,3.0,1,0.992485614860151
2.115,0.4,124.74392970495919,0,100,3.0,1,0.9355233604942413
2.12,0.39559233134833227,119.82096684464568,0,100,3.0,1,0.8380389474187264
2.125,0.3826586036805073,113.5687880168097,0,100,3.0,1,0.7142334260754397
2.13,0.3620352400956416,106.806366232124,0,100,3.0,1,0.5803240838044358
2.135,0.3350163137995362,100.28721043873878,0,100,3.0,1,0.4512318898760155
2.14,0.3032192790059296,94.57572987039735,0,100,3.0,1,0.3381332647603436
2.145,0.26842527782774417,89.99195290976071,0,100,3.0,1,0.24736540415367747
2.15,0.23241585813229,86.62310103088748,0,100,3.0,1,0.18065546595816798
2.155,0.19682662652900276,84.38088089142718,0,100,3.0,1,0.1362550671569739
2.16,0.16303381314489318,83.07609336991814,0,100,3.0,1,0.11041769049342853
2.165,0.13208310477486307,82.4864154909746,0,100,3.0,1,0.09874090081137808
2.17,0.10466285982723562,82.4037509881415,0,100,3.0,1,0.09710397996319795
2.175,0.08111733445917907,82.65842001080613,0,100,3.0,1,0.10214693090705199
2.18,0.06149084917398798,83.1247887569515,0,100,3.0,1,0.11138195558319808
2.185,0.04559141333598128,83.71573147632233,0,100,3.0,1,0.12308379161034322
2.19,0.03306217087257399,84.37267056825021,0,100,3.0,1,0.13609248650000424
2.195,0.02345067901074276,85.05568648493842,0,100,3.0,1,0.14961755415719644
2.2,0.016268788896435526,85.73583607072203,0,100,3.0,1,0.16308586278657486
2.205,0.011039026374860051,86.39013913146773,0,100,3.0,1,0.17604235903896504
2.21,0.007326255555493689,86.99882251844413,0,100,3.0,1,0.18809549541473522
2.215,0.0047556414315231815,87.54414296773075,0,100,3.0,1,0.19889392015308416
2.22,0.0030193390635632803,88.01016452183163,0,100,3.0,1,0.20812206973924013
2.225,0.001874953127946523,88.38303084192795,0,100,3.0,1,0.215505561226296
2.23,0.0011387927410965778,88.65143331892524,0,100,3.0,1,0.2208204617608959
2.235,0.0006765107634274089,88.8070937316528,0,100,3.0,1,0.22390284617134254
2.24,0.00039307957404427924,88.8451555592435,0,100,3.0,1,0.22465654572759394
2.245,0.00022338910511776318,88.76442407134346,0,100,3.0,1,0.2230579024028407
2.25,0.00012417073320013317,88.56742477316524,0,100,3.0,1,0.21915692620129193
2.255,6.750753468904987e-05,88.26027099045443,0,100,3.0,1,0.21307467307830555
2.26,3.5897234866245036e-05,87.85234843673629,0,100,3.0,1,0.20499699874725333
2.265,1.8670050400879738e-05,87.35583886395226,0,100,3.0,1,0.19516512601885658
2.27,9.497421874143672e-06,86.78511633299259,0,100,3.0,1,0.18386368976222944
2.275,4.725434140340885e-06,86.15605775838088,0,100,3.0,1,0.1714070843243739
2.28,2.299606063738814e-06,85.48531372518444,0,100,3.0,1,0.15812502426107802
2.285,1.0945633976635486e-06,84.78958597109913,0,100,3.0,1,0.1443482370514679
2.29,5.095703414287532e-07,84.08495456269962,0,100,3.0,1,0.13039513985543805
2.295,2.3202944964797243e-07,83.3862912146381,0,100,3.0,1,0.11656022207204171
2.3,1.0333746954038608e-07,82.70678622679587,0,100,3.0,1,0.10310467775833407
2.305,4.501406988770349e-08,82.05760614265267,0,100,3.0,1,0.09024962658718165
2.31,0.0,81.44768850959238,0,100,3.0,1,0.07817204969489865
2.315,0.0,80.88367002962482,0,100,3.0,1,0.06700336692326384
2.32,0.0,80.36993574342084,0,100,3.0,1,0.056830410760808706
2.325,0.0,79.90877027404925,0,100,3.0,1,0.0476984212683019
2.33,0.0,79.50058788374957,0,100,3.0,1,0.03961560165840741
2.335,0.0,79.14421621489161,0,100,3.0,1,0.032558736928546814
2.34,0.0,78.83720890703242,0,100,3.0,1,0.02647938429767167
2.345,0.0,78.57616443646707,0,100,3.0,1,0.021310186860734007
2.35,0.0,78.3570320289372,0,100,3.0,1,0.016970931266083122
2.355,0.0,78.17538982049636,0,100,3.0,1,0.013374055851413135
2.36,0.0,78.02668507298378,0,100,3.0,1,0.010429407385817453
2.365,0.0,77.90643074256919,0,100,3.0,1,0.008048133516221486
2.37,0.0,77.81035670527523,0,100,3.0,1,0.006145677332182681
2.375,0.0,77.73451723018084,0,100,3.0,1,0.004643905548135482
2.38,0.0,77.67535874189898,0,100,3.0,1,0.003472450334633174
2.385,0.0,77.62975351365483,0,100,3.0,1,0.0025693765080165016
2.39,0.0,77.59500574647849,0,100,3.0,1,0.0018813019104651865
2.395,0.0,77.5688366399633,0,100,3.0,1,0.001363101781451367
2.4,0.0,77.54935469742055,0,100,3.0,1,0.0009773207410010757
2.405,0.0,77.53501679271162,0,100,3.0,1,0.0006934018358735854
2.41,0.0,77.5245846074533,0,100,3.0,2,0.00048682390996646063
2.415,0.0,77.5170800537288,0,100,3.0,2,0.000338218885718901
2.42,0.0,77.51174232856103,0,100,3.0,2,0.00023252135764410283
2.425,0.0,77.50798837171331,0,100,3.0,2,0.00015818557848138647
2.43,0.0,77.50537775909629,0,100,3.0,2,0.0001064902791344733
2.435,0.0,77.50358247743235,0,100,3.0,2,7.094014717516543e-05
2.44,0.0,77.50236159066985,0,100,3.0,2,4.6764171680188784e-05
2.445,0.0,77.50154051108173,0,100,3.0,2,3.050516993521522e-05
2.45,0.0,77.50099440676593,0,100,3.0,2,1.9691223087647813e-05
2.455,0.0,77.50063518810376,0,100,3.0,2,1.257798225262179e-05
2.46,0.0,77.50040149457573,0,100,3.0,2,7.9503876381435e-06
2.465,0.0,77.50025112852747,0,100,3.0,2,4.9728421280484905e-06
2.47,0.0,77.50015543594552,0,100,3.0,2,3.0779395151602337e-06
2.475,0.0,77.50009520196444,0,100,3.0,2,1.8851874146845814e-06
2.48,0.0,77.50005770047679,0,100,3.0,2,1.1425836987655202e-06
2.485,0.0,77.50003460604236,0,100,3.0,2,6.852681655917616e-07
2.49,0.0,77.5000205382535,0,100,3.0,2,4.0669808899704974e-07
2.495,0.0,77.50001206185563,0,100,3.0,2,2.3884862629853553e-07
2.5,0.0,77.50000700977024,0,100,3.0,2,1.3880733155190792e-07
2.505,0.0,77.5000040311827,0,100,3.0,2,7.982539995786698e-08
2.51,0.0,77.50000229403597,0,100,3.0,2,4.5426454765013005e-08
2.515,0.0,77.50000129183488,0,100,3.0,2,2.5580888659263084e-08
2.52,0.0,77.50000071986793,0,100,3.0,2,1.4254810436552974e-08
2.525,0.001684486749771458,77.50000039695172,0,100,3.0,2,7.860430089002164e-09
2.53,0.00456624331333666,77.50000021660156,0,100,3.0,2,4.2891398683567255e-09
2.535,0.011079731271581421,77.50000011695654,0,100,3.0,2,2.315971133242837e-09
2.54,0.024064571490409,77.5000000624923,0,100,3.0,2,1.2374713794925621e-09
2.545,0.046784906529573234,77.5000000330421,0,100,3.0,2,6.542989868279673e-10
2.55,0.08141644351188804,77.50000001728812,0,100,3.0,2,3.4233892728308895e-10
2.555,0.12682276464025305,77.5000000089509,0,100,3.0,2,1.7724565929378208e-10
2.56,0.1768320708657512,77.5000000045859,0,100,3.0,2,9.08098942577138e-11
2.565,0.22070063230473494,77.500000002325,0,100,3.0,2,4.6039511037426813e-11
2.57,0.24656126505113576,77.50000000116643,0,100,3.0,2,2.3097563465817435e-11
2.575,0.24656126505724016,77.50000000057908,0,100,3.0,2,1.1466893441381513e-11
2.58,0.220700632329898,77.50000000028447,0,100,3.0,2,5.633126528493341e-12
2.585,0.17683207093748562,77.50000000013829,0,100,3.0,2,2.7383332125471424e-12
2.59,0.12682276483597799,77.50000000006652,0,100,3.0,2,1.3172477410269422e-12
2.595,0.08141644409447898,77.50000000003166,0,100,3.0,2,6.269660258508923e-13
2.6,0.04678490952598309,77.50000000001492,0,100,3.0,2,2.9547321685073474e-13
2.605,0.024064605020532023,77.50000000000695,0,100,3.0,2,1.3760609813334217e-13
2.61,0.011080171739334697,77.50000000000321,0,100,3.0,2,6.359709238882481e-14
2.615,0.004571212771509492,77.50000000000146,0,100,3.0,2,2.898451555773874e-14
2.62,0.0017299316936037438,77.50000000000065,0,100,3.0,2,1.2944540928698855e-14
2.625,0.0008899431850697582,77.5000000000003,0,100,3.0,2,5.909464337014694e-15
2.63,0.002128806368910263,77.50000000000013,0,100,3.0,2,2.5326275730062976e-15
2.635,0.009309664818487698,77.50000000000006,0,100,3.0,2,1.1256122546694657e-15
2.64,0.03503263543368747,77.50000000000003,0,100,3.0,2,5.628061273347328e-16
2.645,0.10606267793605692,77.50000000000001,0,100,3.0,2,2.814030636673664e-16
2.65,0.25734927343160535,77.5,0,100,3.0,2,0.0
2.655,0.5003202479539708,77.5,0,100,3.0,2,0.0
2.66,0.7793067891790435,77.5,0,100,3.0,2,0.0
2.665,0.9720477407234077,77.50000295860458,1,100,3.0,2,5.8586229359585414e-08
2.67,0.967267334488097,77.50000607194025,0,100,3.0,2,1.2023644056189188e-07
2.675,0.7505869905515209,77.50001345273148,0,100,3.0,2,2.663907223742883e-07
2.68,0.4028369574773956,77.5000335974731,0,100,3.0,2,6.65296497145121e-07
2.685,0.04553881263121314,77.5000952391376,0,100,3.0,2,1.8859235166978084e-06
2.69,-0.189138810908105,77.50029396174413,0,100,3.0,2,5.821024636320949e-06
2.695,-0.22868072635956738,77.50093256649718,0,100,3.0,2,1.8466663310573943e-05
2.7,-0.14104670682394166,77.5029100232732,0,100,3.0,2,5.762422323172278e-05
2.705,-0.051158381651102834,77.50870714352278,0,100,3.0,2,0.00017241868361948757
2.71,-0.008206426846427752,77.5246562773498,0,100,3.0,2,0.00048824311583773423
2.715,0.005350271385530505,77.56565066778992,0,100,3.0,2,0.0013000132235628605
2.72,0.01084668799215426,77.66383990810884,0,100,3.0,2,0.0032443546160166505
2.725,0.016256859896386415,77.88262038992832,0,100,3.0,2,0.007576641384719209
2.73,0.02345021205790711,78.33545183145863,0,100,3.0,2,0.016543600622943112
2.735,0.0330621597308209,79.20484989603223,0,100,3.0,2,0.03375940388182632
2.74,0.04559141319943196,80.75054676642503,0,100,3.0,2,0.06436726270148578
2.745,0.06149084917446989,83.28992906835192,0,100,3.0,2,0.11465206075944404
2.75,0.08111733445924295,87.13394030962314,0,100,3.0,2,0.19077109524006222
2.755,0.1046628598272375,92.47378991953458,0,100,3.0,2,0.2965106914759323
2.76,0.1320831047748631,99.23955414039685,0,100,3.0,2,0.43048622060191777
2.765,0.16303381314489318,106.98246625036123,0,100,3.0,2,0.5838112128784402
2.77,0.19682662652900276,114.8494723141842,0,100,3.0,2,0.7395935111719643
2.775,0.23241585813229,121.70177762100317,0,100,3.0,2,0.8752827251683797
2.78,0.26842527782774417,126.37413972136399,0,100,3.0,2,0.9678047469577027
2.785,0.30321927900592993,128.0,0,100,3.0,2,1.0
2.79,0.3350163137995362,126.27952255457706,0,100,3.0,2,0.9659311396945952
2.795,0.3620352400956416,121.57753056726469,0,100,3.0,2,0.8728223874705879
2.8,0.3826586036805073,114.80819134861454,0,100,3.0,2,0.7387760663091989
2.805,0.39559233134833227,107.1570555269131,0,100,3.0,2,0.5872684262755069
2.81,0.4,99.75682326894582,0,100,3.0,2,0.44072917364249153
2.815,0.39559233134833227,93.437628290086,0,100,3.0,2,0.3155965998036831
2.82,0.3826586036805073,88.6210265304858,0,100,3.0,2,0.2202183471383328
2.825,0.3620352400956416,85.35521064557099,0,100,3.0,2,0.15554872565487113
2.83,0.3350163137995362,83.43676931776182,0,100,3.0,2,0.11755978847053099
2.835,0.3032192790059296,82.55078966163666,0,100,3.0,2,0.1000156368640922
2.84,0.26842527782774417,82.37990978446584,0,100,3.0,2,0.0966318769201156
2.845,0.23241585813229,82.66385053700031,0,100,3.0,2,0.10225446607921415
2.85,0.19682662652900276,83.21572546574443,0,100,3.0,2,0.11318268248998865
2.855,0.16303381314489318,83.91239791841033,0,100,3.0,2,0.12697817660218486
2.86,0.13208310477486307,84.67546318988141,0,100,3.0,2,0.14208837999765173
2.865,0.10466285982723562,85.45331282711224,0,100,3.0,2,0.1574913431111335
2.87,0.08111733445917907,86.20847512306442,0,100,3.0,2,0.17244505194186965
2.875,0.06149084917398798,86.91043201717129,0,100,3.0,2,0.1863451884588374
2.88,0.04559141333598128,87.53247338289246,0,100,3.0,2,0.19866283926519726
2.885,0.03306217087257399,88.0509704560115,0,100,3.0,2,0.20893010803983164
2.89,0.02345067901074276,88.44584531855038,0,100,3.0,2,0.21674941224852243
2.895,0.016268788896435526,88.70146811501344,0,100,3.0,2,0.22181124980224634
2.9,0.011039026374860051,88.80754517288817,0,100,3.0,2,0.2239117856017459
2.905,0.007326255555493689,88.75976200907462,0,100,3.0,2,0.22296558433811128
2.91,0.0047556414315231815,88.56006114259078,0,100,3.0,2,0.21901111173447094
2.915,0.0030193390635632803,88.21650740561338,0,100,3.0,2,0.2122080674378888
2.92,0.001874953127946523,87.74274663539316,0,100,3.0,2,0.20282666604738933
2.925,0.0011387927410965778,87.15710631316468,0,100,3.0,2,0.19122982798345892
2.93,0.0006765107634274089,86.48142019658886,0,100,3.0,2,0.17784990488294766
2.935,0.00039307957404427924,85.73968176817759,0,100,3.0,2,0.16316201521143742
2.94,0.00022338910511776318,84.95664182706211,0,100,3.0,2,0.14765627380321017
2.945,0.00012417073320013317,84.15646337911748,0,100,3.0,2,0.13181115602212837
2.95,6.750753468904987e-05,83.36153323734182,0,100,3.0,2,0.11606996509587757
2.955,3.5897234866245036e-05,82.59150690834363,0,100,3.0,2,0.10082191897710163
2.96,1.8670050400879738e-05,81.86263483969579,0,100,3.0,2,0.08638880870684726
2.965,9.497421874143672e-06,81.18738775969096,0,100,3.0,2,0.07301757939982106
2.97,4.725434140340885e-06,80.57437030471705,0,100,3.0,2,0.06087861989538713
2.975,2.299606063738814e-06,80.02848839135753,0,100,3.0,2,0.0500690770565847
2.98,1.0945633976635486e-06,79.55131885537037,0,100,3.0,2,0.040620175353868686
2.985,5.095703414287532e-07,79.14162062723075,0,100,3.0,2,0.03250733915308417
2.99,2.3202944964797243e-07,78.79592494440962,0,100,3.0,2,0.025661880087319212
2.995,1.0333746954038608e-07,78.50914673365939,0,100,3.0,2,0.019983103636819648
3.0,4.501406988770349e-08,78.2751686651716,0,100,3.0,2,0.015349874557853577
3.005,0.0,78.08736155817212,0,100,3.0,2,0.01163092194400237
3.01,0.0,77.93901792246764,0,100,3.0,2,0.008693424207280032
3.015,0.0,77.82368785280029,0,100,3.0,2,0.0064096604514908995
3.02,0.0,77.73541708275205,0,100,3.0,2,0.004661724410931694
3.025,0.0,77.66889506741865,0,100,3.0,2,0.0033444567805672436
3.03,0.0,77.61952627338034,0,100,3.0,2,0.0023668568986206853
3.035,0.0,77.583440560487,0,100,3.0,2,0.0016522883264753596
3.04,0.0,77.55745905335685,0,100,3.0,2,0.0011378030367693284
3.045,0.0,77.53903077198105,0,100,3.0,2,0.0007728865738821098
3.05,0.0,77.52615310372167,0,100,3.0,2,0.0005178832420132368
3.055,0.0,77.51728648731061,0,100,3.0,2,0.00034230667941809016
3.06,0.0,77.51127087641395,0,100,3.0,2,0.00022318567156327782
3.065,0.0,77.50724896569103,0,100,3.0,2,0.0001435438750699704
3.07,0.0,77.50459898318086,0,100,3.0,2,9.10689738783267e-05
3.075,0.0,77.50287816056776,0,100,3.0,2,5.699327856952082e-05
3.08,0.0,77.50177678810005,0,100,3.0,2,3.518392277317274e-05
3.085,0.0,77.50108199106754,0,100,3.0,2,2.1425565693793897e-05
3.09,0.0,77.5006499487824,0,100,3.0,2,1.2870272918730328e-05
3.095,0.001684486749771458,77.50038512526845,0,100,3.0,2,7.626242939628661e-06
3.1,0.00456624331333666,77.50022510871771,0,100,3.0,2,4.457598370580323e-06
3.105,0.011079731271581421,77.5001297926306,0,100,3.0,2,2.5701511010358426e-06
3.11,0.024064571490409,77.50007382019291,0,100,3.0,2,1.4617859982094934e-06
3.115,0.046784906529573234,77.50004141596045,0,100,3.0,2,8.201180287752583e-07
3.12,0.08141644351188804,77.50002292069169,0,100,3.0,2,4.5387508299598373e-07
3.125,0.12682276464025305,77.50001251281783,0,100,3.0,2,2.477785709414651e-07
3.13,0.1768320708657512,77.50000673829383,0,100,3.0,2,1.334315610696793e-07
3.135,0.22070063230473494,77.50000357941612,0,100,3.0,2,7.087952705732466e-08
3.14,0.24656126505113576,77.50000187560704,0,100,3.0,2,3.714073347221682e-08
3.145,0.24656126505724016,77.50000096948018,0,100,3.0,2,1.919762739096696e-08
3.15,0.220700632329898,77.5000004943146,0,100,3.0,2,9.788408024718646e-09
3.155,0.17683207093748562,77.5000002486196,0,100,3.0,2,4.923160387610695e-09
3.16,0.12682276483597799,77.50000012334874,0,100,3.0,2,2.442549326714119e-09
3.165,0.08141644409447898,77.50000006036726,0,100,3.0,2,1.1953912095609352e-09
3.17,0.04678490952598309,77.5000000291431,0,100,3.0,2,5.770909910556793e-10
3.175,0.024064605020532023,77.50000001387833,0,100,3.0,2,2.748185133806137e-10
3.18,0.011080171739334697,77.50000000651939,0,100,3.0,2,1.290967508911047e-10
3.185,0.004571212771509492,77.50000000302094,0,100,3.0,2,5.982066327440875e-11
3.19,0.0017299316936037438,77.50000000138085,0,100,3.0,2,2.7343654293494327e-11
3.195,0.0008899431850697582,77.5000000006226,0,100,3.0,2,1.2328831025394658e-11
3.2,0.002128806368910263,77.50000000027693,0,100,3.0,2,5.4837015016859696e-12
3.205,0.009309664818487698,77.50000000012149,0,100,3.0,2,2.4057147912923155e-12
3.21,0.03503263543368747,77.50000000005258,0,100,3.0,2,1.0411913355692557e-12
3.215,0.10606267793605692,77.50000000002245,0,100,3.0,2,4.446168405944389e-13
3.22,0.25734927343160535,77.50000000000945,0,100,3.0,2,1.8713303733879865e-13
3.225,0.5003202479539708,77.50000000000392,0,100,3.0,2,7.766724557219314e-14
3.23,0.7793067891790435,77.5000000000016,0,100,3.0,2,3.179854619441241e-14
3.235,0.9720477407234077,77.50000000000065,0,100,3.0,2,1.2944540928698855e-14
3.24,0.967267334488097,77.50000000000026,0,100,3.0,2,5.065255146012595e-15
3.245,0.7505869905515209,77.5000000000001,0,100,3.0,2,1.969821445671565e-15
3.25,0.4028369574773956,77.50000000000004,0,100,3.0,2,8.442091910020992e-16
3.255,0.04553881263121314,77.50000000000001,0,100,3.0,2,2.814030636673664e-16
3.26,-0.189138810908105,77.5,0,100,3.0,2,0.0
3.265,-0.22868072635956738,77.5,0,100,3.0,2,0.0
3.27,-0.14104670682394166,77.5,0,100,3.0,2,0.0
3.275,-0.051158381651102834,77.500002961856,1,100,3.0,2,5.865061381774638e-08
3.28,-0.008206426846427752,77.500006041423,0,100,3.0,2,1.1963213873878877e-07
3.285,0.005350271385530505,77.50001328138595,0,100,3.0,2,2.629977415165173e-07
3.29,0.01084668799215426,77.50003283321637,0,100,3.0,2,6.501627003199426e-07
3.295,0.016256859896386415,77.50009198824264,0,100,3.0,2,1.8215493592959877e-06
3.3,0.02345021205790711,77.50028074560149,0,100,3.0,2,5.559318841314602e-06
3.305,0.0330621597308209,77.50088215537116,0,100,3.0,2,1.7468423191256096e-05
3.31,0.04559141319943196,77.5027317136506,0,100,3.0,2,5.409333961592487e-05
3.315,0.06149084917446989,77.50812515206187,0,100,3.0,2,0.00016089410023495125
3.32,0.08111733445924295,77.52290585167412,0,100,3.0,2,0.0004535812212697967
3.325,0.1046628598272375,77.5607994860294,0,100,3.0,2,0.0012039502184038745
3.33,0.1320831047748631,77.65144697964095,0,100,3.0,2,0.0029989500919000286
3.335,0.16303381314489318,77.85343089561607,0,100,3.0,2,0.00699863159635785
3.34,0.19682662652900276,78.27206809920676,0,100,3.0,2,0.015288477212015105
3.345,0.23241585813229,79.07802187804528,0,100,3.0,2,0.031247957981094594
3.35,0.26842527782774417,80.51693895137673,0,100,3.0,2,0.05974136537379663
3.355,0.30321927900592993,82.89454088046219,0,100,3.0,2,0.10682259169232054
3.36,0.3350163137995362,86.52074732919208,0,100,3.0,2,0.17862865998400151
3.365,0.3620352400956416,91.60628022891433,0,100,3.0,2,0.2793322817606798
3.37,0.3826586036805073,98.12800786254579,0,100,3.0,2,0.40847540321872844
3.375,0.39559233134833227,105.70840989696592,0,100,3.0,2,0.5585823741973449
3.38,0.4,113.57344353324595,0,100,3.0,2,0.7143256145197218
3.385,0.39559233134833227,120.64276888442222,0,100,3.0,2,0.8543122551370738
3.39,0.3826586036805073,125.75956336367835,0,100,3.0,2,0.9556349180926407
3.395,0.3620352400956416,128.0,0,100,3.0,2,1.0
3.4,0.3350163137995362,126.95061745029365,0,100,3.0,2,0.9792201475305673
3.405,0.3032192790059296,122.84001560912182,0,100,3.0,2,0.897822091269739
3.41,0.26842527782774417,116.46801010317881,0,100,3.0,2,0.7716437644193824
3.415,0.23241585813229,108.96296573740314,0,100,3.0,2,0.6230290245030324
3.42,0.19682662652900276,101.46881286087532,0,100,3.0,2,0.4746299576410954
3.425,0.16303381314489318,94.88053871179497,0,100,3.0,2,0.34416908340188057
3.43,0.13208310477486307,89.70779311233117,0,100,3.0,2,0.24173847747190444
3.435,0.10466285982723562,86.07956026661839,0,100,3.0,2,0.1698922825072948
3.44,0.08111733445917907,83.84687409322002,0,100,3.0,2,0.1256806751132678
3.445,0.06149084917398798,82.7187027867249,0,100,3.0,2,0.10334064924207731
3.45,0.04559141333598128,82.37771688222631,0,100,3.0,2,0.09658845311339226
3.455,0.03306217087257399,82.55072048744152,0,100,3.0,2,0.10001426707804997
3.46,0.02345067901074276,83.03453037589074,0,100,3.0,2,0.1095946609087275
3.465,0.016268788896435526,83.69208055632127,0,100,3.0,2,0.12261545656081728
3.47,0.011039026374860051,84.43544696634281,0,100,3.0,2,0.1373355834919368
3.475,0.007326255555493689,85.20760297898806,0,100,3.0,2,0.15262580156412006
3.48,0.0047556414315231815,85.96850260217812,0,100,3.0,2,0.1676931208352103
3.485,0.0030193390635632803,86.6865931944108,0,100,3.0,2,0.18191273652298623
3.49,0.001874953127946523,87.33469336179016,0,100,3.0,2,0.19474640320376552
3.495,0.0011387927410965778,87.88866412777621,0,100,3.0,2,0.20571612134210315
3.5,0.0006765107634274089,88.32756689971691,0,100,3.0,2,0.21440726534092897
3.505,0.00039307957404427924,88.63444229094094,0,100,3.0,2,0.22048400576120672
3.51,0.00022338910511776318,88.7972016808272,0,100,3.0,2,0.22370696397677625
3.515,0.00012417073320013317,88.80935150413694,0,100,3.0,2,0.22394755453736517
3.52,6.750753468904987e-05,88.67040269484706,0,100,3.0,2,0.22119609296726842
3.525,3.5897234866245036e-05,88.38589749796584,0,100,3.0,2,0.21556232669239292
3.53,1.8670050400879738e-05,87.96704111602165,0,100,3.0,2,0.20726814091131976
3.535,9.497421874143672e-06,87.42996910265714,0,100,3.0,2,0.19663305153776514
3.54,4.725434140340885e-06,86.79471636674512,0,100,3.0,2,0.18405378944049744
3.545,2.299606063738814e-06,86.08397933237504,0,100,3.0,2,0.16997978875990172
3.55,1.0945633976635486e-06,85.32177758289465,0,100,3.0,2,0.15488668480979514
3.555,5.095703414287532e-07,84.53212429988861,0,100,3.0,2,0.13924998613640807
3.56,2.3202944964797243e-07,83.7378064113005,0,100,3.0,2,0.1235209190356534
3.565,1.0333746954038608e-07,82.95935736032456,0,100,3.0,2,0.1081060863430606
3.57,4.501406988770349e-08,82.21428063285789,0,100,3.0,2,0.09335209173976025
3.575,0.0,81.51655406697313,0,100,3.0,2,0.0795357240984778
3.58,0.0,80.8764170164331,0,100,3.0,2,0.06685974289966524
3.585,0.0,80.30041774319758,0,100,3.0,2,0.05545381669698188
3.59,0.0,79.7916792805792,0,100,3.0,2,0.04537978773424164
3.595,0.0,79.35032975682887,0,100,3.0,2,0.03664019320453208
3.6,0.0,78.97403808767992,0,100,3.0,2,0.029188873023364655
3.605,0.0,78.65859741440458,0,100,3.0,2,0.022942523057516477
3.61,0.0,78.39850537991533,0,100,3.0,2,0.01779218574089772
3.615,0.0,78.1875006071592,0,100,3.0,3,0.01361387340909295
3.62,0.0,78.01902678123402,0,100,3.0,3,0.010277758044237983
3.625,0.0,77.8866079019436,0,100,3.0,3,0.007655602018685262
3.63,0.0,77.78412926151917,0,100,3.0,3,0.0056263220102805754
3.635,0.0,77.70602763440992,0,100,3.0,3,0.004079755136830114
3.64,0.0,77.64740060525696,0,100,3.0,3,0.002918823866474497
3.645,0.0,77.604048862077,0,100,3.0,3,0.0020603735064751187
3.65,0.0,77.57246689949535,0,100,3.0,3,0.0014349881088188759
3.655,0.0,77.54979735814472,0,100,3.0,3,0.000986086299895357
3.66,0.0,77.53376270259416,0,100,3.0,3,0.0006685683682011887
3.665,0.0,77.52258563891289,0,100,3.0,3,0.000447240374512603
3.67,0.0,77.51490705436474,0,100,3.0,3,0.0002951891953414091
3.675,0.0,77.50970768257822,0,100,3.0,3,0.00019223133818265054
3.68,0.0,77.50623739972342,0,100,3.0,3,0.000123512865810248
3.685,0.0,77.50395417479393,0,100,3.0,3,7.830049096895945e-05
3.69,0.0,77.50247327511215,0,100,3.0,3,4.8975744795087046e-05
3.695,0.0,77.50152634696913,0,100,3.0,3,3.0224692458002417e-05
3.7,0.0,77.50092939083888,0,100,3.0,3,1.840377898766332e-05
3.705,0.0,77.50055835162344,0,100,3.0,3,1.1056467790881876e-05
3.71,0.0,77.50033096453323,0,100,3.0,3,6.553753133339972e-06
3.715,0.0,77.50019356169078,0,100,3.0,3,3.832904767894361e-06
3.72,0.0,77.50011169188872,0,100,3.0,3,2.2117205686966075e-06
3.725,0.0,77.50006358989972,0,100,3.0,3,1.2592059351395573e-06
3.73,0.0,77.5000357206146,0,100,3.0,3,7.07338903067007e-07
3.735,0.0,77.50001979766552,0,100,3.0,3,3.920329805119349e-07
3.74,0.0,77.50001082613204,0,100,3.0,3,2.1437885228950486e-07
3.745,0.0,77.50000584113084,0,100,3.0,3,1.156659572873173e-07
3.75,0.001684486749771458,77.50000310945893,0,100,3.0,3,6.157344416513495e-08
3.755,0.00456624331333666,77.50000163319106,0,100,3.0,3,3.234041705942254e-08
3.76,0.011079731271581421,77.50000084635671,0,100,3.0,3,1.6759538865618098e-08
3.765,0.024064571490409,77.5000004327471,0,100,3.0,3,8.569249512400364e-09
3.77,0.046784906529573234,77.50000021831278,0,100,3.0,3,4.323025299671295e-09
3.775,0.08141644351188804,77.5000001086647,0,100,3.0,3,2.151776103832757e-09
3.78,0.12682276464025305,77.50000005336567,0,100,3.0,3,1.0567458899134695e-09
3.785,0.1768320708657512,77.50000002585828,0,100,3.0,3,5.120452356950949e-10
3.79,0.22070063230473494,77.50000001236238,0,100,3.0,3,2.447995601608337e-10
3.795,0.24656126505113576,77.50000000583134,0,100,3.0,3,1.154720587575218e-10
3.8,0.24656126505724016,77.50000000271393,0,100,3.0,3,5.374123148693897e-11
3.805,0.220700632329898,77.50000000124622,0,100,3.0,3,2.4677641668309697e-11
3.81,0.17683207093748562,77.50000000056461,0,100,3.0,3,1.1180425122568135e-11
3.815,0.12682276483597799,77.50000000025238,0,100,3.0,3,4.997718410732428e-12
3.82,0.08141644409447898,77.50000000011131,0,100,3.0,3,2.204230197706481e-12
3.825,0.04678490952598309,77.50000000004844,0,100,3.0,3,9.59303044042052e-13
3.83,0.024064605020532023,77.5000000000208,0,100,3.0,3,4.1197408520902444e-13
3.835,0.011080171739334697,77.50000000000881,0,100,3.0,3,1.7446989947376718e-13
3.84,0.004571212771509492,77.50000000000368,0,100,3.0,3,7.28833934898479e-14
3.845,0.0017299316936037438,77.50000000000152,0,100,3.0,3,3.011012781240821e-14
3.85,0.0008899431850697582,77.50000000000061,0,100,3.0,3,1.2100331737696755e-14
3.855,0.002128806368910263,77.50000000000024,0,100,3.0,3,4.783852082345229e-15
3.86,0.009309664818487698,77.5000000000001,0,100,3.0,3,1.969821445671565e-15
3.865,0.03503263543368747,77.50000000000004,0,100,3.0,3,8.442091910020992e-16
3.87,0.10606267793605692,77.50000000000001,0,100,3.0,3,2.814030636673664e-16
3.875,0.25734927343160535,77.5,0,100,3.0,3,0.0
3.88,0.5003202479539708,77.5,0,100,3.0,3,0.0
3.885,0.7793067891790435,77.5,0,100,3.0,3,0.0
3.89,0.9720477407234077,77.5000029632167,1,100,3.0,3,5.867755844249559e-08
3.895,0.967267334488097,77.50000611949993,0,100,3.0,3,1.2117821641611342e-07
3.9,0.7505869905515209,77.5000136661605,0,100,3.0,3,2.706170395714874e-07
3.905,0.4028369574773956,77.50003448761683,0,100,3.0,3,6.829231055424244e-07
3.91,0.04553881263121314,77.50009893563154,0,100,3.0,3,1.9591214166635243e-06
3.915,-0.189138810908105,77.50030887479707,0,100,3.0,3,6.1163326152625205e-06
3.92,-0.22868072635956738,77.50098936987865,0,100,3.0,3,1.9591482745598493e-05
3.925,-0.14104670682394166,77.50311109919818,0,100,3.0,3,6.160592471641763e-05
3.93,-0.051158381651102834,77.50936430658398,0,100,3.0,3,0.00018543181354407307
3.935,-0.008206426846427752,77.52663503308537,0,100,3.0,3,0.0005274263977300939
3.94,0.005350271385530505,77.57113795423459,0,100,3.0,3,0.0014086723610809244
3.945,0.01084668799215426,77.67785621339104,0,100,3.0,3,0.003521905215664127
3.95,0.016256859896386415,77.9156022259755,0,100,3.0,3,0.008229747049019897
3.955,0.02345021205790711,78.4069380257099,0,100,3.0,3,0.017959168825938725
3.96,0.0330621597308209,79.34748987799968,0,100,3.0,3,0.036583957980191636
3.965,0.04559141319943196,81.01228362930992,0,100,3.0,3,0.06955017087742416
3.97,0.06149084917446989,83.73079902637203,0,100,3.0,3,0.12338215893805991
3.975,0.08111733445924295,87.81367872264438,0,100,3.0,3,0.20423126183454224
3.98,0.1046628598272375,93.4288216152286,0,100,3.0,3,0.3154222102025465
3.985,0.1320831047748631,100.45351412056698,0,100,3.0,3,0.4545250320904352
3.99,0.16303381314489318,108.36134960751014,0,100,3.0,3,0.6111158338120819
3.995,0.19682662652900276,116.21652194472324,0,100,3.0,3,0.7666638008856087
4.0,0.23241585813229,122.82360122088085,0,100,3.0,3,0.8974970538788286
4.005,0.26842527782774417,127.01713839847308,0,100,3.0,3,0.9805373940291698
4.01,0.30321927900592993,128.0,0,100,3.0,3,1.0
4.015,0.3350163137995362,125.59701682575721,0,100,3.0,3,0.9524161747674694
4.02,0.3620352400956416,120.3140247604608,0,100,3.0,3,0.8478024705041742
4.025,0.3826586036805073,113.17578272521496,0,100,3.0,3,0.7064511430735635
4.03,0.39559233134833227,105.41460450461524,0,100,3.0,3,0.5527644456359454
4.035,0.4,98.1397912084383,0,100,3.0,3,0.40870873680075837
4.04,0.39559233134833227,92.10783014594557,0,100,3.0,3,0.2892639632860509
4.045,0.3826586036805073,87.64951021194136,0,100,3.0,3,0.2009804002364626
4.05,0.3620352400956416,84.73520644729147,0,100,3.0,3,0.143271414797851
4.055,0.3350163137995362,83.11302488416099,0,100,3.0,3,0.11114900760714837
4.06,0.3032192790059296,82.45012180045974,0,100,3.0,3,0.09802221387048991
4.065,0.26842527782774417,82.43311100444015,0,100,3.0,3,0.09768536642455743
4.07,0.23241585813229,82.8162323398421,0,100,3.0,3,0.10527192752162579
4.075,0.19682662652900276,83.42866618321837,0,100,3.0,3,0.11739933036075977
4.08,0.16303381314489318,84.1600622480566,0,100,3.0,3,0.13188242075359613
4.085,0.13208310477486307,84.940236624999,0,100,3.0,3,0.14733141831681193
4.09,0.10466285982723562,85.72195777553705,0,100,3.0,3,0.1628110450601396
4.095,0.08111733445917907,86.4696633299647,0,100,3.0,3,0.1776170956428654
4.1,0.06149084917398798,87.15353818842898,0,100,3.0,3,0.19115917204809865
4.105,0.04559141333598128,87.74725089071974,0,100,3.0,3,0.2029158592221731
4.11,0.03306217087257399,88.22774168238095,0,100,3.0,3,0.21243052836397924
4.115,0.02345067901074276,88.57593914149084,0,100,3.0,3,0.21932552755427395
4.12,0.016268788896435526,88.77773137510404,0,100,3.0,3,0.2233214133683968
4.125,0.011039026374860051,88.82481855964929,0,100,3.0,3,0.22425383286434233
4.13,0.007326255555493689,88.71524935893723,0,100,3.0,3,0.22208414572152926
4.135,0.0047556414315231815,88.45354650959632,0,100,3.0,3,0.21690191108111528
4.14,0.0030193390635632803,88.05039484238684,0,100,3.0,3,0.20891870975023438
4.145,0.001874953127946523,87.52191701266186,0,100,3.0,3,0.1984538022309279
4.15,0.0011387927410965778,86.88860404516025,0,100,3.0,3,0.18591295138931188
4.155,0.0006765107634274089,86.17399918548756,0,100,3.0,3,0.17176236010866455
4.16,0.00039307957404427924,85.40325259759987,0,100,3.0,3,0.15650005143762127
4.165,0.00022338910511776318,84.60166988532686,0,100,3.0,3,0.14062712644211597
4.17,0.00012417073320013317,83.79336949573046,0,100,3.0,3,0.12462117813327643
4.175,6.750753468904987e-05,83.00014467233905,0,100,3.0,3,0.10891375588790192
4.18,3.5897234866245036e-05,82.2405979846216,0,100,3.0,3,0.09387322741824954
4.185,1.8670050400879738e-05,81.52958456421845,0,100,3.0,3,0.07979375374690006
4.19,9.497421874143672e-06,80.8779681711764,0,100,3.0,3,0.06689045883517634
4.195,4.725434140340885e-06,80.29266578507671,0,100,3.0,3,0.05530031257577638
4.2,2.299606063738814e-06,79.77693434234938,0,100,3.0,3,0.045087808759393624
4.205,1.0945633976635486e-06,79.33083911757771,0,100,3.0,3,0.03625423995203387
4.21,5.095703414287532e-07,78.95183743607637,0,100,3.0,3,0.028749256159928207
4.215,2.3202944964797243e-07,78.63541317800785,0,100,3.0,3,0.022483429267482213
4.22,1.0333746954038608e-07,78.3757053491493,0,100,3.0,3,0.017340699983154448
4.225,4.501406988770349e-08,78.16608584846017,0,100,3.0,3,0.013189818781389513
4.23,0.0,77.99965535153865,0,100,3.0,3,0.00989416537700296
4.235,0.0,77.86964004284735,0,100,3.0,3,0.007319604808858435
4.24,0.0,77.7696842680522,0,100,3.0,3,0.005340282535687178
4.245,0.0,77.69404405685896,0,100,3.0,3,0.0038424565714644857
4.25,0.0,77.63769342762592,0,100,3.0,3,0.0027266025272459243
4.255,0.0,77.59635942692422,0,100,3.0,3,0.0019081074638460122
4.26,0.0,77.56650332172448,0,100,3.0,3,0.0013168974598907444
4.265,0.0,77.54526479938636,0,100,3.0,3,0.0008963326611160258
4.27,0.0,77.53038407321809,0,100,3.0,3,0.0006016648161997493
4.275,0.0,77.52011404975813,0,100,3.0,3,0.0003982980150125725
4.28,0.0,77.51313170683527,0,100,3.0,3,0.0002600337987181626
4.285,0.0,77.50845494854985,0,100,3.0,3,0.0001674247237594887
4.29,0.0,77.5053686969771,0,100,3.0,3,0.00010631083122971762
4.295,0.0,77.50336197861758,0,100,3.0,3,6.6573834011411e-05
4.3,0.0,77.50207629536354,0,100,3.0,3,4.1114759673998586e-05
4.305,0.0,77.5012645949802,0,100,3.0,3,2.5041484756421046e-05
4.31,0.0,77.50075959466382,0,100,3.0,3,1.5041478491465937e-05
4.315,0.0,77.50044996681824,0,100,3.0,3,8.910234024507182e-06
4.32,0.0,77.50026287374051,0,100,3.0,3,5.205420604165783e-06
4.325,0.0,77.50015145445519,0,100,3.0,3,2.9990981226213685e-06
4.33,0.0,77.5000860567684,0,100,3.0,3,1.7040944236790586e-06
4.335,0.0,77.50004822321333,0,100,3.0,3,9.549151153769704e-07
4.34,0.0,77.50002664988816,0,100,3.0,3,5.277205575409182e-07
4.345,0.0,77.50001452455274,0,100,3.0,3,2.87614905726802e-07
4.35,0.0,77.50000780689389,0,100,3.0,3,1.545919582269454e-07
4.355,0.001684486749771458,77.5000041382995,0,100,3.0,3,8.194652479579589e-08
4.36,0.00456624331333666,77.5000021633844,0,100,3.0,3,4.2839294936507795e-08
4.365,0.011079731271581421,77.50000111535623,0,100,3.0,3,2.2086261919461736e-08
4.37,0.024064571490409,77.50000056710259,0,100,3.0,3,1.1229754235419834e-08
4.375,0.046784906529573234,77.5000002843661,0,100,3.0,3,5.631011784469881e-09
4.38,0.08141644351188804,77.50000014062486,0,100,3.0,3,2.784650749811473e-09
4.385,0.12682276464025305,77.5000000685827,0,100,3.0,3,1.3580731346976763e-09
4.39,0.1768320708657512,77.5000000329864,0,100,3.0,3,6.53196168221455e-10
4.395,0.22070063230473494,77.50000001564673,0,100,3.0,3,3.0983631062338077e-10
4.4,0.24656126505113576,77.50000000731949,0,100,3.0,3,1.4494030618170475e-10
4.405,0.24656126505724016,77.5000000033768,0,100,3.0,3,6.686727739170327e-11
4.41,0.220700632329898,77.50000000153638,0,100,3.0,3,3.042332942226998e-11
4.415,0.17683207093748562,77.50000000068938,0,100,3.0,3,1.3651144021567612e-11
4.42,0.12682276483597799,77.50000000030506,0,100,3.0,3,6.0408795677473545e-12
4.425,0.08141644409447898,77.50000000013313,0,100,3.0,3,2.6361839004358887e-12
4.43,0.04678490952598309,77.5000000000573,0,100,3.0,3,1.1346171527068214e-12
4.435,0.024064605020532023,77.50000000002431,0,100,3.0,3,4.81480641934864e-13
4.44,0.011080171739334697,77.50000000001017,0,100,3.0,3,2.0148459358583435e-13
4.445,0.004571212771509492,77.5000000000042,0,100,3.0,3,8.329530684554046e-14
4.45,0.0017299316936037438,77.5000000000017,0,100,3.0,3,3.376836764008397e-14
4.455,0.0008899431850697582,77.50000000000068,0,100,3.0,3,1.3507347056033587e-14
4.46,0.002128806368910263,77.50000000000027,0,100,3.0,3,5.346658209679962e-15
4.465,0.009309664818487698,77.5000000000001,0,100,3.0,3,1.969821445671565e-15
4.47,0.03503263543368747,77.50000000000004,0,100,3.0,3,8.442091910020992e-16
4.475,0.10606267793605692,77.50000000000001,0,100,3.0,3,2.814030636673664e-16
4.48,0.25734927343160535,77.5,0,100,3.0,3,0.0
4.485,0.5003202479539708,77.5,0,100,3.0,3,0.0
4.49,0.7793067891790435,77.5,0,100,3.0,3,0.0
4.495,0.9720477407234077,77.50000297426018,1,100,3.0,3,5.889624126572052e-08
4.5,0.967267334488097,77.50000567823217,0,100,3.0,3,1.1244024100357486e-07
4.505,0.7505869905515209,77.50001149390847,0,100,3.0,3,2.276021479976389e-07
4.51,0.4028369574773956,77.50002552223552,0,100,3.0,3,5.053908023343172e-07
4.515,0.04553881263121314,77.50006306261808,0,100,3.0,3,1.2487647144989932e-06
4.52,-0.189138810908105,77.5001698874946,0,100,3.0,3,3.3641088038220374e-06
4.525,-0.22868072635956738,77.50047859341034,0,100,3.0,3,9.477097234362236e-06
4.53,-0.14104670682394166,77.50135524508104,0,100,3.0,3,2.6836536258290627e-05
4.535,-0.051158381651102834,77.50375492034152,0,100,3.0,3,7.435485824794117e-05
4.54,-0.008206426846427752,77.51002123916122,0,100,3.0,3,0.00019844037943007696
4.545,0.005350271385530505,77.5255453584863,0,100,3.0,3,0.0005058486828969839
4.55,0.01084668799215426,77.5619207241607,0,100,3.0,3,0.0012261529536772287
4.555,0.016256859896386415,77.64238621016548,0,100,3.0,3,0.0028195289141679874
4.56,0.02345021205790711,77.8102100292443,0,100,3.0,3,0.006142772856322825
4.565,0.0330621597308209,78.13987659239612,0,100,3.0,3,0.01267082361180437
4.57,0.04559141319943196,78.74916028808956,0,100,3.0,3,0.02473584728890209
4.575,0.06149084917446989,79.80740165759062,0,100,3.0,3,0.04569112193248747
4.58,0.08111733445924295,81.53230654845552,0,100,3.0,3,0.07984765442486184
4.585,0.1046628598272375,84.16614940220346,0,100,3.0,3,0.13200295845947443
4.59,0.1320831047748631,87.92480409158405,0,100,3.0,3,0.20643176418978318
4.595,0.16303381314489318,92.92132389923525,0,100,3.0,3,0.30537275047990586
4.6,0.19682662652900276,99.07906867815493,0,100,3.0,3,0.4273082906565332
4.605,0.23241585813229,106.06297302446497,0,100,3.0,3,0.5656034262270291
4.61,0.26842527782774417,113.26372517607233,0,100,3.0,3,0.7081925777440065
4.615,0.30321927900592993,119.86120910133064,0,100,3.0,3,0.8388358237887257
4.62,0.3350163137995362,124.96909105340002,0,100,3.0,3,0.9399820010574261
4.625,0.3620352400956416,127.82948178557024,0,100,3.0,3,0.9966234016944602
4.63,0.3826586036805073,128.0,0,100,3.0,3,1.0
4.635,0.39559233134833227,125.47008483330974,0,100,3.0,3,0.9499026699665295
4.64,0.4,120.66481219264665,0,100,3.0,3,0.8547487562900327
4.645,0.39559233134833227,114.3347951868165,0,100,3.0,3,0.7294018848874556
4.65,0.3826586036805073,107.37172732806118,0,100,3.0,3,0.5915193530309145
4.655,0.3620352400956416,100.61213146388492,0,100,3.0,3,0.4576659695818796
4.66,0.3350163137995362,94.68808896833318,0,100,3.0,3,0.34035819739273615
4.665,0.3032192790059296,89.95808553040531,0,100,3.0,3,0.24669476297832302
4.67,0.26842527782774417,86.51808198825748,0,100,3.0,3,0.17857588095559362
4.675,0.23241585813229,84.26758558980437,0,100,3.0,3,0.13401159583771027
4.68,0.19682662652900276,82.99601598482167,0,100,3.0,3,0.10883199969943896
4.685,0.16303381314489318,82.46008910161746,0,100,3.0,3,0.09821958617064269
4.69,0.13208310477486307,82.43631776475485,0,100,3.0,3,0.09774886662880884
4.695,0.10466285982723562,82.74620952675184,0,100,3.0,3,0.10388533716340279
4.7,0.08111733445917907,83.26041912278987,0,100,3.0,3,0.1140677054017796
4.705,0.06149084917398798,83.8909837535951,0,100,3.0,3,0.12655413373455632
4.71,0.04559141333598128,84.57950349558233,0,100,3.0,3,0.14018818803133326
4.715,0.03306217087257399,85.2861599745921,0,100,3.0,3,0.15418138563548703
4.72,0.02345067901074276,85.98163805601772,0,100,3.0,3,0.16795322883203395
4.725,0.016268788896435526,86.64215441522398,0,100,3.0,3,0.18103276069750465
4.73,0.011039026374860051,87.24693849353997,0,100,3.0,3,0.19300868304039548
4.735,0.007326255555493689,87.77732882594401,0,100,3.0,3,0.2035114618998814
4.74,0.0047556414315231815,88.21678411743441,0,100,3.0,3,0.21221354687988941
4.745,0.0030193390635632803,88.5513239266052,0,100,3.0,3,0.21883809755653874
4.75,0.001874953127946523,88.77009736679604,0,100,3.0,3,0.22317024488705023
4.755,0.0011387927410965778,88.8659030200672,0,100,3.0,3,0.22506738653598404
4.76,0.0006765107634274089,88.83555969828684,0,100,3.0,3,0.2244665286789474
4.765,0.00039307957404427924,88.68007425722836,0,100,3.0,3,0.22138760905402685
4.77,0.00022338910511776318,88.40458376283155,0,100,3.0,3,0.2159323517392386
4.775,0.00012417073320013317,88.01807297572829,0,100,3.0,3,0.20827867278669876
4.78,6.750753468904987e-05,87.5328876255651,0,100,3.0,3,0.19867104209039793
4.785,3.5897234866245036e-05,86.96407988350431,0,100,3.0,3,0.18740752244562991
4.79,1.8670050400879738e-05,86.32863430486985,0,100,3.0,3,0.1748244416805911
4.795,9.497421874143672e-06,85.64462963051776,0,100,3.0,3,0.16127979466371792
4.8,4.725434140340885e-06,84.93039382902155,0,100,3.0,3,0.14713651146577336
4.805,2.299606063738814e-06,84.20370673858773,0,100,3.0,3,0.13274666809084607
4.81,1.0945633976635486e-06,83.48109723485612,0,100,3.0,3,0.11843756900705192
4.815,5.095703414287532e-07,82.77727103304531,0,100,3.0,3,0.10450041649594673
4.82,2.3202944964797243e-07,82.10469232958998,0,100,3.0,4,0.09118202632851446
4.825,1.0333746954038608e-07,81.4733289031435,0,100,3.0,4,0.07867978026026726
4.83,4.501406988770349e-08,80.89055736587513,0,100,3.0,4,0.06713974981930941
4.835,0.0,80.36121411084514,0,100,3.0,4,0.05665770516525029
4.84,0.0,79.8877689525599,0,100,3.0,4,0.04728255351603753
4.845,0.0,79.47059295025286,0,100,3.0,4,0.039021642579264645
4.85,0.0,79.108289512118,0,100,3.0,4,0.03184731707164368
4.855,0.0,78.79805835279892,0,100,3.0,4,0.02570412579799838
4.86,0.0,78.53606471576967,0,100,3.0,4,0.020516132985537998
4.865,0.0,78.31779082219269,0,100,3.0,4,0.016193877667182006
4.87,0.0,78.13835205700114,0,100,3.0,4,0.012640634792101837
4.875,0.0,77.99276627075692,0,100,3.0,4,0.009757747935780534
4.88,0.0,77.87617018053467,0,100,3.0,4,0.0074489144660331045
4.885,0.0,77.78398175514256,0,100,3.0,4,0.005623401091931931
4.89,0.0,77.71201139014435,0,100,3.0,4,0.004198245349393159
4.895,0.0,77.65652749302741,0,100,3.0,4,0.0030995543173744835
4.9,0.0,77.61428381951266,0,100,3.0,4,0.0022630459309438476
4.905,0.0,77.58251664176932,0,100,3.0,4,0.0016339929063231057
4.91,0.0,77.55891976749406,0,100,3.0,4,0.0011667280691893206
4.915,0.0,77.54160477570755,0,100,3.0,4,0.0008238569447040516
4.92,0.0,77.52905280217514,0,100,3.0,4,0.0005753030133691914
4.925,0.0,77.52006298507172,0,100,3.0,4,0.0003972868331033223
4.93,0.0,77.51370142552075,0,100,3.0,4,0.0002713153568465421
4.935,0.0,77.50925334255247,0,100,3.0,4,0.0001832345059894898
4.94,0.0,77.5061800815573,0,100,3.0,4,0.0001223778526198743
4.945,0.0,77.50408180688879,0,100,3.0,4,8.082785918399132e-05
4.95,0.0,77.50266608126702,0,100,3.0,4,5.279368845589992e-05
4.955,0.0,77.50172209455528,0,100,3.0,4,3.4100882282702947e-05
4.96,0.0,77.50110002684835,0,100,3.0,4,2.1782709868287808e-05
4.965,0.0,77.50069488391328,0,100,3.0,4,1.376007749075656e-05
4.97,0.0,77.50043409412848,0,100,3.0,4,8.59592333622774e-06
4.975,0.0,77.50026817497371,0,100,3.0,4,5.310395519051898e-06
4.98,0.0,77.50016383823585,0,100,3.0,4,3.24432150196657e-06
4.985,0.0,77.50009898627022,0,100,3.0,4,1.9601241627125354e-06
4.99,0.0,77.50005914218141,0,100,3.0,4,1.1711323052190667e-06
4.995,0.0,77.5000349447871,0,100,3.0,4,6.919759822393293e-07
5.0,0.0,77.50002041879647,0,100,3.0,4,4.0433260330633623e-07
5.005,0.0,77.50001179887397,0,100,3.0,4,2.3364106871866008e-07
5.01,0.0,77.50000674238683,0,100,3.0,4,1.335126104986737e-07
5.015,0.0,77.50000381021472,0,100,3.0,4,7.544979646557087e-08
5.02,0.0,77.50000212935424,0,100,3.0,4,4.216543055746916e-08
5.025,0.0,77.50000117681735,0,100,3.0,4,2.3303313848445402e-08
5.03,0.001684486749771458,77.50000064318053,0,100,3.0,4,1.2736248069390652e-08
5.035,0.00456624331333666,77.50000034763173,0,100,3.0,4,6.883796555881093e-09
5.04,0.011079731271581421,77.5000001858098,0,100,3.0,4,3.6794019008696767e-09
5.045,0.024064571490409,77.5000000982156,0,100,3.0,4,1.944863245148779e-09
5.05,0.046784906529573234,77.5000000513399,0,100,3.0,4,1.0166316017846227e-09
5.055,0.08141644351188804,77.50000002653947,0,100,3.0,4,5.255340101489264e-10
5.06,0.12682276464025305,77.50000001356726,0,100,3.0,4,2.686586003169351e-10
5.065,0.1768320708657512,77.5000000068589,0,100,3.0,4,1.3581975148518172e-10
5.07,0.22070063230473494,77.5000000034291,0,100,3.0,4,6.790284066599919e-11
5.075,0.24656126505113576,77.50000000169538,0,100,3.0,4,3.357194830164415e-11
5.08,0.24656126505724016,77.50000000082893,0,100,3.0,4,1.641452210678115e-11
5.085,0.220700632329898,77.5000000004008,0,100,3.0,4,7.936692007674403e-12
5.09,0.17683207093748562,77.50000000019165,0,100,3.0,4,3.795001716618104e-12
5.095,0.12682276483597799,77.50000000009062,0,100,3.0,4,1.7945073370067957e-12
5.1,0.08141644409447898,77.50000000004238,0,100,3.0,4,8.391439358560866e-13
5.105,0.04678490952598309,77.5000000000196,0,100,3.0,4,3.880548247972983e-13
5.11,0.024064605020532023,77.50000000000897,0,100,3.0,4,1.775653331741082e-13
5.115,0.011080171739334697,77.50000000000405,0,100,3.0,4,8.019987314519942e-14
5.12,0.004571212771509492,77.50000000000182,0,100,3.0,4,3.60195921494229e-14
5.125,0.0017299316936037438,77.5000000000008,0,100,3.0,4,1.575857156537252e-14
5.13,0.0008899431850697582,77.50000000000036,0,100,3.0,4,7.03507659168416e-15
5.135,0.002128806368910263,77.50000000000016,0,100,3.0,4,3.0954337003410305e-15
5.14,0.009309664818487698,77.50000000000007,0,100,3.0,4,1.4070153183368321e-15
5.145,0.03503263543368747,77.50000000000003,0,100,3.0,4,5.628061273347328e-16
5.15,0.10606267793605692,77.50000000000001,0,100,3.0,4,2.814030636673664e-16
5.155,0.25734927343160535,77.5,0,100,3.0,4,0.0
5.16,0.5003202479539708,77.5,0,100,3.0,4,0.0
5.165,0.7793067891790435,77.5,0,100,3.0,4,0.0
5.17,0.9720477407234077,77.5000029632167,1,100,3.0,4,5.867755844249559e-08
5.175,0.967267334488097,77.50000632443192,0,100,3.0,4,1.252362756864692e-07
5.18,0.7505869905515209,77.50001473324576,0,100,3.0,4,2.917474408505849e-07
5.185,0.4028369574773956,77.50003930345265,0,100,3.0,4,7.782861911378535e-07
5.19,0.04553881263121314,77.50012007178523,0,100,3.0,4,2.37765911352014e-06
5.195,-0.189138810908105,77.50039768906025,0,100,3.0,4,7.875030896043021e-06
5.2,-0.22868072635956738,77.50133813309903,0,100,3.0,4,2.6497685129220596e-05
5.205,-0.14104670682394166,77.50437429970992,0,100,3.0,4,8.661979623609861e-05
5.21,-0.051158381651102834,77.51356283545961,0,100,3.0,4,0.0002685709992001851
5.215,-0.008206426846427752,77.539423280672,0,100,3.0,4,0.0007806590232078606
5.22,0.005350271385530505,77.60683292766095,0,100,3.0,4,0.0021155035180385365
5.225,0.01084668799215426,77.7691843879838,0,100,3.0,4,0.005330383920471266
5.23,0.016256859896386415,78.1298195737859,0,100,3.0,4,0.012471674728433559
5.235,0.02345021205790711,78.8674564682652,0,100,3.0,4,0.027078345906241648
5.24,0.0330621597308209,80.25416185836706,0,100,3.0,4,0.05453785858152585
5.245,0.04559141319943196,82.64472323642266,0,100,3.0,4,0.10187570765193393
5.25,0.06149084917446989,86.41224109374863,0,100,3.0,4,0.17648002165838877
5.255,0.08111733445924295,91.81665598492147,0,100,3.0,4,0.2834981383152766
5.26,0.1046628598272375,98.826395638257,0,100,3.0,4,0.42230486412390095
5.265,0.1320831047748631,106.95895384922622,0,100,3.0,4,0.5833456207767568
5.27,0.16303381314489318,115.23602411394728,0,100,3.0,4,0.7472480022563818
5.275,0.19682662652900276,122.32971667135199,0,100,3.0,4,0.8877171618089502
5.28,0.23241585813229,126.89775582948093,0,100,3.0,4,0.9781733827619986
5.285,0.26842527782774417,128.0,0,100,3.0,4,1.0
5.29,0.30321927900592993,125.42125272540896,0,100,3.0,4,0.9489356975328508
5.295,0.3350163137995362,119.74965133212939,0,100,3.0,4,0.8366267590520671
5.3,0.3620352400956416,112.17257946470455,0,100,3.0,4,0.6865857319743476
5.305,0.3826586036805073,104.08785511981466,0,100,3.0,4,0.5264921805903894
5.31,0.39559233134833227,96.70488803956961,0,100,3.0,4,0.38029481266474474
5.315,0.4,90.78889417401182,0,100,3.0,4,0.2631464192873627
5.32,0.39559233134833227,86.60772759605685,0,100,3.0,4,0.18035104150607617
5.325,0.3826586036805073,84.04089578195409,0,100,3.0,4,0.12952268875156617
5.33,0.3620352400956416,82.75786879881116,0,100,3.0,4,0.10411621383784475
5.335,0.3350163137995362,82.37959366821764,0,100,3.0,4,0.09662561719242846
5.34,0.3032192790059296,82.57856812118584,0,100,3.0,4,0.1005657053700166
5.345,0.26842527782774417,83.11531036543767,0,100,3.0,4,0.11119426466213198
5.35,0.23241585813229,83.83263983129649,0,100,3.0,4,0.12539880854052454
5.355,0.19682662652900276,84.63250912217958,0,100,3.0,4,0.14123780439959574
5.36,0.16303381314489318,85.45226040314074,0,100,3.0,4,0.1574705030324899
5.365,0.13208310477486307,86.2475629773933,0,100,3.0,4,0.1732190688592733
5.37,0.10466285982723562,86.98281595132833,0,100,3.0,4,0.18777853368966999
5.375,0.08111733445917907,87.62707318852279,0,100,3.0,4,0.20053610274302547
5.38,0.06149084917398798,88.15320332098976,0,100,3.0,4,0.21095452120771804
5.385,0.04559141333598128,88.5385782151131,0,100,3.0,4,0.21858570722996248
5.39,0.03306217087257399,88.76624892522591,0,100,3.0,4,0.22309403812328532
5.395,0.02345067901074276,88.82603771663241,0,100,3.0,4,0.22427797458678045
5.4,0.016268788896435526,88.71524935893723,0,100,3.0,4,0.22208414572152926
5.405,0.011039026374860051,88.43886075670979,0,100,3.0,4,0.2166111040932631
5.41,0.007326255555493689,88.00914720955005,0,100,3.0,4,0.20810192494158516
5.415,0.0047556414315231815,87.44477763798974,0,100,3.0,4,0.19692628986118307
5.42,0.0030193390635632803,86.76946988444872,0,100,3.0,4,0.18355385909799454
5.425,0.001874953127946523,86.0103405328122,0,100,3.0,4,0.16852159470915234
5.43,0.0011387927410965778,85.1961087935566,0,100,3.0,4,0.15239819393181395
5.435,0.0006765107634274089,84.35531914558466,0,100,3.0,4,0.13574889397197343
5.44,0.00039307957404427924,83.51473332893123,0,100,3.0,4,0.11910363027586592
5.445,0.00022338910511776318,82.69801221580293,0,100,3.0,4,0.10293093496639472
5.45,0.00012417073320013317,81.92476728085217,0,100,3.0,4,0.08761915407628051
5.455,6.750753468904987e-05,81.2100160794701,0,100,3.0,4,0.07346566494000187
5.46,3.5897234866245036e-05,80.56403251225963,0,100,3.0,4,0.06067391113385405
5.465,1.8670050400879738e-05,79.99254590939884,0,100,3.0,4,0.04935734474057114
5.47,9.497421874143672e-06,79.49721667177356,0,100,3.0,4,0.039548844985615
5.475,4.725434140340885e-06,79.07630197143015,0,100,3.0,4,0.031213900424359505
5.48,2.299606063738814e-06,78.72542256815419,0,100,3.0,4,0.024265793428795777
5.485,1.0945633976635486e-06,78.43834933264405,0,100,3.0,4,0.018581174903842604
5.49,5.095703414287532e-07,78.20774277436361,0,100,3.0,4,0.01401470840323979
5.495,2.3202944964797243e-07,78.02579755035103,0,100,3.0,4,0.010411832680218405
5.5,1.0333746954038608e-07,77.88476352268945,0,100,3.0,4,0.007619079657216909
5.505,4.501406988770349e-08,77.77733293361308,0,100,3.0,4,0.005491741259664978
5.51,0.0,77.69689796089891,0,100,3.0,4,0.0038989695227506687
5.515,0.0,77.63769342762592,0,100,3.0,4,0.0027266025272459243
5.52,0.0,77.59484565128201,0,100,3.0,4,0.0018781317085547404
5.525,0.0,77.56435078582085,0,100,3.0,4,0.0012742729865514734
5.53,0.0,77.54300535190977,0,100,3.0,4,0.0008515911269261333
5.535,0.0,77.52830892491497,0,100,3.0,4,0.0005605727705934027
5.54,0.0,77.5183550878223,0,100,3.0,4,0.0003634670855901034
5.545,0.0,77.51172254143796,0,100,3.0,4,0.0002321295334249863
5.55,0.0,77.50737427460564,0,100,3.0,4,0.00014602523971560832
5.555,0.0,77.50456929349846,0,100,3.0,4,9.04810593755032e-05
5.56,0.0,77.5027887592473,0,100,3.0,4,5.522295539198113e-05
5.565,0.0,77.50167650638357,0,100,3.0,4,3.319814620940318e-05
5.57,0.0,77.50099273108047,0,100,3.0,4,1.9658041197479378e-05
5.575,0.0,77.50057901557518,0,100,3.0,4,1.1465654954136962e-05
5.58,0.0,77.50033264507117,0,100,3.0,4,6.587031112242738e-06
5.585,0.0,77.50018823663869,0,100,3.0,4,3.727458191926218e-06
5.59,0.0,77.50010492028098,0,100,3.0,4,2.0776293262437016e-06
5.595,0.0,77.50005760324511,0,100,3.0,4,1.1406583190242906e-06
5.6,0.0,77.50003115061858,0,100,3.0,4,6.168439323245015e-07
5.605,0.0,77.50001659275955,0,100,3.0,4,3.285694960465149e-07
5.61,0.001684486749771458,77.5000087056817,0,100,3.0,4,1.7238973650999488e-07
5.615,0.00456624331333666,77.50000449903288,0,100,3.0,4,8.908976006201592e-08
5.62,0.011079731271581421,77.50000229017026,0,100,3.0,4,4.5349906096618887e-08
5.625,0.024064571490409,77.5000011482821,0,100,3.0,4,2.2738259310631967e-08
5.63,0.046784906529573234,77.50000056710259,0,100,3.0,4,1.1229754235419834e-08
5.635,0.08141644351188804,77.50000027587154,0,100,3.0,4,5.4628028217596484e-09
5.64,0.12682276464025305,77.50000013218568,0,100,3.0,4,2.617538133437289e-09
5.645,0.1768320708657512,77.500000062387,0,100,3.0,4,1.235386182790787e-09
5.65,0.22070063230473494,77.50000002900254,0,100,3.0,4,5.743076333529454e-10
5.655,0.24656126505113576,77.50000001328037,0,100,3.0,4,2.629776352676183e-10
5.66,0.24656126505724016,77.50000000598986,0,100,3.0,4,1.1861110993273127e-10
5.665,0.220700632329898,77.50000000266107,0,100,3.0,4,5.2694412090096365e-11
5.67,0.17683207093748562,77.50000000116447,0,100,3.0,4,2.3058729843031337e-11
5.675,0.12682276483597799,77.50000000050191,0,100,3.0,4,9.938874805667714e-12
5.68,0.08141644409447898,77.50000000021309,0,100,3.0,4,4.219638939692159e-12
5.685,0.04678490952598309,77.50000000008912,0,100,3.0,4,1.7646786122580548e-12
5.69,0.024064605020532023,77.5000000000367,0,100,3.0,4,7.268641134528074e-13
5.695,0.011080171739334697,77.5000000000149,0,100,3.0,4,2.949104107234e-13
5.7,0.004571212771509492,77.50000000000595,0,100,3.0,4,1.1790788367662653e-13
5.705,0.0017299316936037438,77.50000000000234,0,100,3.0,4,4.6431505505115455e-14
5.71,0.0008899431850697582,77.50000000000091,0,100,3.0,4,1.800979607471145e-14
5.715,0.002128806368910263,77.50000000000034,0,100,3.0,4,6.7536735280167935e-15
5.72,0.009309664818487698,77.50000000000013,0,100,3.0,4,2.5326275730062976e-15
5.725,0.03503263543368747,77.50000000000004,0,100,3.0,4,8.442091910020992e-16
5.73,0.10606267793605692,77.50000000000001,0,100,3.0,4,2.814030636673664e-16
5.735,0.25734927343160535,77.5,0,100,3.0,4,0.0
5.74,0.5003202479539708,77.5,0,100,3.0,4,0.0
5.745,0.7793067891790435,77.5,0,100,3.0,4,0.0
5.75,0.9720477407234077,77.50000295858096,1,100,3.0,4,5.85857616676936e-08
5.755,0.967267334488097,77.50000649780915,0,100,3.0,4,1.2866948817744662e-07
5.76,0.7505869905515209,77.50001571079831,0,100,3.0,4,3.111049170006436e-07
5.765,0.4028369574773956,77.50004401685699,0,100,3.0,4,8.716209304854448e-07
5.77,0.04553881263121314,77.50014199796655,0,100,3.0,4,2.8118409218087877e-06
5.775,-0.189138810908105,77.50049432191162,0,100,3.0,4,9.7885527052898e-06
5.78,-0.22868072635956738,77.50173211644027,0,100,3.0,4,3.42993354508107e-05
5.785,-0.14104670682394166,77.50584288582245,0,100,3.0,4,0.00011570070935536563
5.79,-0.051158381651102834,77.51854730297484,0,100,3.0,4,0.00036727332623441534
5.795,-0.008206426846427752,77.55481496280055,0,100,3.0,4,0.001085444807931663
5.8,0.005350271385530505,77.65008419708057,0,100,3.0,4,0.0029719642986252228
5.805,0.01084668799215426,77.87981851286148,0,100,3.0,4,0.00752115867052428
5.81,0.016256859896386415,78.38742298606793,0,100,3.0,4,0.017572732397384796
5.815,0.02345021205790711,79.41315942805718,0,100,3.0,4,0.03788434511004326
5.82,0.0330621597308209,81.30460163111171,0,100,3.0,4,0.0753386461606279
5.825,0.04559141319943196,84.47809489490693,0,100,3.0,4,0.1381800969288501
5.83,0.06149084917446989,89.30317826768169,0,100,3.0,4,0.23372630233033045
5.835,0.08111733445924295,95.91109716494718,0,100,3.0,4,0.36457618148410254
5.84,0.1046628598272375,103.98360250134391,0,100,3.0,4,0.5244277723038397
5.845,0.1320831047748631,112.63196549089727,0,100,3.0,4,0.6956824849682628
5.85,0.16303381314489318,120.48176915990015,0,100,3.0,4,0.851124141780201
5.855,0.19682662652900276,126.00411814452141,0,100,3.0,4,0.960477587020226
5.86,0.23241585813229,128.0,0,100,3.0,4,1.0
5.865,0.26842527782774417,126.03166825490115,0,100,3.0,4,0.9610231337604188
5.87,0.30321927900592993,120.59024835370354,0,100,3.0,4,0.8532722446277929
5.875,0.3350163137995362,112.91318697147013,0,100,3.0,4,0.7012512271578243
5.88,0.3620352400956416,104.54533238728061,0,100,3.0,4,0.5355511363817943
5.885,0.3826586036805073,96.85710937740994,0,100,3.0,4,0.38330909658237505
5.89,0.39559233134833227,90.72270386050883,0,100,3.0,4,0.2618357200100758
5.895,0.4,86.44535081746378,0,100,3.0,4,0.17713565975175793
5.9,0.39559233134833227,83.88417312505604,0,100,3.0,4,0.12641926980308985
5.905,0.3826586036805073,82.66571321886003,0,100,3.0,4,0.10229135086851553
5.91,0.3620352400956416,82.37202450792604,0,100,3.0,4,0.09647573283021865
5.915,0.3350163137995362,82.65192834843367,0,100,3.0,4,0.10201838313730041
5.92,0.3032192790059296,83.25634189984378,0,100,3.0,4,0.11398696831373813
5.925,0.26842527782774417,84.0264242558057,0,100,3.0,4,0.12923612387734046
5.93,0.23241585813229,84.86484526486245,0,100,3.0,4,0.1458385200962862
5.935,0.19682662652900276,85.70909511705845,0,100,3.0,4,0.16255633895165253
5.94,0.16303381314489318,86.51374059129739,0,100,3.0,4,0.17848991269895825
5.945,0.13208310477486307,87.24132622835091,0,100,3.0,4,0.19289754907625573
5.95,0.10466285982723562,87.85911768203138,0,100,3.0,4,0.20513104320854222
5.955,0.08111733445917907,88.33897458047528,0,100,3.0,4,0.2146331600094115
5.96,0.06149084917398798,88.65851542478347,0,100,3.0,4,0.22096070148086086
5.965,0.04559141333598128,88.80252600599808,0,100,3.0,4,0.22381239615837772
5.97,0.03306217087257399,88.76406271594287,0,100,3.0,4,0.22305074685035386
5.975,0.02345067901074276,88.5449807473852,0,100,3.0,4,0.21871249004723162
5.98,0.016268788896435526,88.15577906783629,0,100,3.0,4,0.21100552609576817
5.985,0.011039026374860051,87.61476482243962,0,100,3.0,4,0.20029237272157674
5.99,0.007326255555493689,86.94662571979583,0,100,3.0,4,0.18706189544150165
5.995,0.0047556414315231815,86.18056443389439,0,100,3.0,4,0.17189236502761168
6.0,0.0030193390635632803,85.34819090517139,0,100,3.0,4,0.15540972089448302
6.005,0.001874953127946523,84.48138340308783,0,100,3.0,4,0.13824521590272937
6.01,0.0011387927410965778,83.61031721315373,0,100,3.0,4,0.1209963804584898
6.015,0.0006765107634274089,82.7618245365926,0,100,3.0,4,0.10419454527906136
6.02,0.00039307957404427924,81.9581974975489,0,100,3.0,4,0.08828113856532464
6.025,0.00022338910511776318,81.21648669901883,0,100,3.0,5,0.07359379602017485
6.03,0.00012417073320013317,80.54828942211552,0,100,3.0,5,0.06036216677456468
6.035,6.750753468904987e-05,79.95997193468784,0,100,3.0,5,0.04871231553837313
6.04,3.5897234866245036e-05,79.45323475258576,0,100,3.0,5,0.038677915892787275
6.045,1.8670050400879738e-05,79.02591053115628,0,100,3.0,5,0.030216050121906632
6.05,9.497421874143672e-06,78.67288122682059,0,100,3.0,5,0.023225370828130552
6.055,4.725434140340885e-06,78.38701167635604,0,100,3.0,5,0.01756458765061463
6.06,2.299606063738814e-06,78.16001677799984,0,100,3.0,5,0.013069639168313722
6.065,1.0945633976635486e-06,77.98320447949557,0,100,3.0,5,0.009568405534565727
6.07,5.095703414287532e-07,77.84806252373428,0,100,3.0,5,0.0068923272026591076
6.075,2.3202944964797243e-07,77.74667998599702,0,100,3.0,5,0.0048847521979607815
6.08,1.0333746954038608e-07,77.6720128543322,0,100,3.0,5,0.0034061951352909866
6.085,4.501406988770349e-08,77.61801527615162,0,100,3.0,5,0.002336936161418297
6.09,0.0,77.5796646933126,0,100,3.0,5,0.0015775186794573105
6.095,0.0,77.5529107463042,0,100,3.0,5,0.0010477375505783498
6.1,0.0,77.53457579886194,0,100,3.0,5,0.000684669284394789
6.105,0.0,77.52223058524193,0,100,3.0,5,0.00044020960875105396
6.11,0.0,77.51406306247611,0,100,3.0,5,0.00027847648467547634
6.115,0.0,77.50875304685681,0,100,3.0,5,0.00017332766053089986
6.12,0.0,77.50536029803884,0,100,3.0,5,0.00010614451562054735
6.125,0.0,77.50322975038792,0,100,3.0,5,6.395545322606727e-05
6.13,0.0,77.501914693741,0,100,3.0,5,3.791472754455348e-05
6.135,0.0,77.50111681184963,0,100,3.0,5,2.211508613123163e-05
6.14,0.0,77.50064093065815,0,100,3.0,5,1.2691696200995961e-05
6.145,0.0,77.50036190319393,0,100,3.0,5,7.166399879875231e-06
6.15,0.0,77.50020105927997,0,100,3.0,5,3.981371880663213e-06
6.155,0.0,77.50010990214456,0,100,3.0,5,2.1762800902634618e-06
6.16,0.0,77.5000591069498,0,100,3.0,5,1.1704346496180103e-06
6.165,0.0,77.50003127672464,0,100,3.0,5,6.193410820062559e-07
6.17,0.001684486749771458,77.5000162837461,0,100,3.0,5,3.2245041794421114e-07
6.175,0.00456624331333666,77.50000834137632,0,100,3.0,5,1.651757686139006e-07
6.18,0.011079731271581421,77.50000420408458,0,100,3.0,5,8.324919951636469e-08
6.185,0.024064571490409,77.50000208475734,0,100,3.0,5,4.128232358378245e-08
6.19,0.046784906529573234,77.50000101716151,0,100,3.0,5,2.0141812055413483e-08
6.195,0.08141644351188804,77.50000048828643,0,100,3.0,5,9.669038252126268e-09
6.2,0.12682276464025305,77.50000023062678,0,100,3.0,5,4.5668669638034055e-09
6.205,0.1768320708657512,77.50000010717541,0,100,3.0,5,2.1222853441634805e-09
6.21,0.22070063230473494,77.50000004900393,0,100,3.0,5,9.703748475820447e-10
6.215,0.24656126505113576,77.50000002204536,0,100,3.0,5,4.365416982794402e-10
6.22,0.24656126505724016,77.50000000975783,0,100,3.0,5,1.9322428805494247e-10
6.225,0.220700632329898,77.50000000424953,0,100,3.0,5,8.414908374070725e-11
6.23,0.17683207093748562,77.50000000182087,0,100,3.0,5,3.605673735382699e-11
6.235,0.12682276483597799,77.50000000076766,0,100,3.0,5,1.5201112096247465e-11
6.24,0.08141644409447898,77.50000000031842,0,100,3.0,5,6.305398447594679e-12
6.245,0.04678490952598309,77.50000000012996,0,100,3.0,5,2.573431017238066e-12
6.25,0.024064605020532023,77.50000000005218,0,100,3.0,5,1.0333120497865694e-12
6.255,0.011080171739334697,77.50000000002062,0,100,3.0,5,4.0831584538134865e-13
6.26,0.004571212771509492,77.50000000000801,0,100,3.0,5,1.5871132790839464e-13
6.265,0.0017299316936037438,77.50000000000307,0,100,3.0,5,6.078306175215115e-14
6.27,0.0008899431850697582,77.50000000000115,0,100,3.0,5,2.279364815705668e-14
6.275,0.002128806368910263,77.50000000000043,0,100,3.0,5,8.442091910020992e-15
6.28,0.009309664818487698,77.50000000000016,0,100,3.0,5,3.0954337003410305e-15
6.285,0.03503263543368747,77.50000000000006,0,100,3.0,5,1.1256122546694657e-15
6.29,0.10606267793605692,77.50000000000001,0,100,3.0,5,2.814030636673664e-16
6.295,0.25734927343160535,77.5,0,100,3.0,5,0.0
6.3,0.5003202479539708,77.5,0,100,3.0,5,0.0
6.305,0.7793067891790435,77.5,0,100,3.0,5,0.0
6.31,0.9720477407234077,77.50000297094563,1,100,3.0,5,5.8830606533747686e-08
6.315,0.967267334488097,77.50000585321456,0,100,3.0,5,1.1590523881480268e-07
6.32,0.7505869905515209,77.50001231859999,0,100,3.0,5,2.4393267297833374e-07
6.325,0.4028369574773956,77.5000287685175,0,100,3.0,5,5.696736137690438e-07
6.33,0.04553881263121314,77.50007544225073,0,100,3.0,5,1.493905955103941e-06
6.335,-0.189138810908105,77.50021580677046,0,100,3.0,5,4.2734013951609664e-06
6.34,-0.22868072635956738,77.50064122197105,0,100,3.0,5,1.2697464773291268e-05
6.345,-0.14104670682394166,77.50189764285709,0,100,3.0,5,3.7577086278971173e-05
6.35,-0.051158381651102834,77.50544678588247,0,100,3.0,5,0.00010785714618751257
6.355,-0.008206426846427752,77.51494354533021,0,100,3.0,5,0.00029591178871706545
6.36,0.005350271385530505,77.53889317447089,0,100,3.0,5,0.0007701618707106056
6.365,0.01084668799215426,77.59565760011441,0,100,3.0,5,0.0018942099032555873
6.37,0.016256859896386415,77.72188223512214,0,100,3.0,5,0.004393707626180944
6.375,0.02345021205790711,77.98486749911095,0,100,3.0,5,0.00960133661605837
6.38,0.0330621597308209,78.4976358334839,0,100,3.0,5,0.01975516501948312
6.385,0.04559141319943196,79.43210578788607,0,100,3.0,5,0.03825952055219946
6.39,0.06149084917446989,81.02144467284691,0,100,3.0,5,0.06973157768013685
6.395,0.08111733445924295,83.53943824352314,0,100,3.0,5,0.11959283650540864
6.4,0.1046628598272375,87.24612635035874,0,100,3.0,5,0.1929926009972027
6.405,0.1320831047748631,92.29836240213126,0,100,3.0,5,0.29303687925012395
6.41,0.16303381314489318,98.6415242177682,0,100,3.0,5,0.41864404391620186
6.415,0.19682662652900276,105.91856224009601,0,100,3.0,5,0.5627438067345745
6.42,0.23241585813229,113.44355699129795,0,100,3.0,5,0.7117536037880783
6.425,0.26842527782774417,120.27731578487735,0,100,3.0,5,0.8470755600965811
6.43,0.30321927900592993,125.40886924748625,0,100,3.0,5,0.9486904801482426
6.435,0.3350163137995362,128.0,0,100,3.0,5,1.0
6.44,0.3620352400956416,127.61297446918879,0,100,3.0,5,0.9923361281027482
6.445,0.3826586036805073,124.33696161207922,0,100,3.0,5,0.9274645863778064
6.45,0.39559233134833227,118.76344665656188,0,100,3.0,5,0.8170979535952848
6.455,0.4,111.82039289833824,0,100,3.0,5,0.6796117405611533
6.46,0.39559233134833227,104.52944873576625,0,100,3.0,5,0.5352366086290347
6.465,0.3826586036805073,97.77357003237384,0,100,3.0,5,0.40145683232423446
6.47,0.3620352400956416,92.14593155860807,0,100,3.0,5,0.2900184467051103
6.475,0.3350163137995362,87.90825613345055,0,100,3.0,5,0.20610408185050594
6.48,0.3032192790059296,85.04198682162858,0,100,3.0,5,0.1493462736956155
6.485,0.26842527782774417,83.34911037832367,0,100,3.0,5,0.11582396788759747
6.49,0.23241585813229,82.55716877843483,0,100,3.0,5,0.10014195600861046
6.495,0.19682662652900276,82.39818228678223,0,100,3.0,5,0.09699370864915308
6.5,0.16303381314489318,82.65144010719679,0,100,3.0,5,0.10200871499399586
6.505,0.13208310477486307,83.15544646601765,0,100,3.0,5,0.11198903893104259
6.51,0.10466285982723562,83.80098496712186,0,100,3.0,5,0.12477197954696759
6.515,0.08111733445917907,84.51679817502719,0,100,3.0,5,0.13894649851538993
6.52,0.06149084917398798,85.25545908263547,0,100,3.0,5,0.15357344718090035
6.525,0.04559141333598128,85.98282074337618,0,100,3.0,5,0.16797664838368673
6.53,0.03306217087257399,86.67155747492474,0,100,3.0,5,0.1816149995034602
6.535,0.02345067901074276,87.29795930335597,0,100,3.0,5,0.19401899610605874
6.54,0.016268788896435526,87.84083911807926,0,100,3.0,5,0.20476909144711405
6.545,0.011039026374860051,88.28160151207733,0,100,3.0,5,0.21349705964509563
6.55,0.007326255555493689,88.60482836895572,0,100,3.0,5,0.21989759146446974
6.555,0.0047556414315231815,88.79899114489746,0,100,3.0,5,0.22374239890886052
6.56,0.0030193390635632803,88.85706779854773,0,100,3.0,5,0.22489243165441053
6.565,0.001874953127946523,88.77694250763581,0,100,3.0,5,0.22330579223041205
6.57,0.0011387927410965778,88.56152685954629,0,100,3.0,5,0.21904013583259982
6.575,0.0006765107634274089,88.21858228046267,0,100,3.0,5,0.2122491540685677
6.58,0.00039307957404427924,87.76025532372388,0,100,3.0,5,0.20317337274700756
6.585,0.00022338910511776318,87.20236355807309,0,100,3.0,5,0.19212601105095226
6.59,0.00012417073320013317,86.5634902866797,0,100,3.0,5,0.17947505518177614
6.595,6.750753468904987e-05,85.86396018771272,0,100,3.0,5,0.16562297401411327
6.6,3.5897234866245036e-05,85.12477432033205,0,100,3.0,5,0.15098563010558516
6.605,1.8670050400879738e-05,84.36658158555097,0,100,3.0,5,0.13597191258516783
6.61,9.497421874143672e-06,83.60875530007408,0,100,3.0,5,0.12096545148661544
6.615,4.725434140340885e-06,82.86862941840498,0,100,3.0,5,0.10630949343376195
6.62,2.299606063738814e-06,82.1609310518812,0,100,3.0,5,0.09229566439368726
6.625,1.0945633976635486e-06,81.49742647014536,0,100,3.0,5,0.07915695980485854
6.63,5.095703414287532e-07,80.88677888145745,0,100,3.0,5,0.06706492834569198
6.635,2.3202944964797243e-07,80.33459982381898,0,100,3.0,5,0.05613068958057379
6.64,1.0333746954038608e-07,79.84366331563119,0,100,3.0,5,0.04640917456695426
6.645,4.501406988770349e-08,79.4142437702478,0,100,3.0,5,0.03790581723262958
6.65,0.0,79.04453522094083,0,100,3.0,5,0.030584855860214453
6.655,0.0,78.73111024024065,0,100,3.0,5,0.024378420598824817
6.66,0.0,78.46938127165673,0,100,3.0,5,0.01919566874567781
6.665,0.0,78.25403387991976,0,100,3.0,5,0.014931363958807127
6.67,0.0,78.07940954909407,0,100,3.0,5,0.011473456417704283
6.675,0.0,77.93982406759571,0,100,3.0,5,0.00870938747714274
6.68,0.0,77.8298153669202,0,100,3.0,5,0.006530997364756453
6.685,0.0,77.74432130323292,0,100,3.0,5,0.004838045608572724
6.69,0.0,77.67879292921928,0,100,3.0,5,0.0035404540439462227
6.695,0.0,77.62925218591911,0,100,3.0,5,0.00255944922612107
6.7,0.0,77.59230474085237,0,100,3.0,5,0.0018278166505419813
6.705,0.0,77.56511914230262,0,100,3.0,5,0.0012894879663885247
6.71,0.0,77.54538286297166,0,100,3.0,5,0.0008986705538943354
6.715,0.0,77.5312445059329,0,100,3.0,5,0.0006187030877802698
6.72,0.0,77.52124975792847,0,100,3.0,5,0.00042078728571233557
6.725,0.0,77.51427686543666,0,100,3.0,5,0.00028271020666646127
6.73,0.0,77.50947567810488,0,100,3.0,5,0.00018763719019558933
6.735,0.0,77.50621278444058,0,100,3.0,5,0.0001230254344668898
6.74,0.0,77.50402402644141,0,100,3.0,5,7.968369190918322e-05
6.745,0.0,77.50257474319895,0,100,3.0,5,5.098501384056795e-05
6.75,0.0,77.50162744217775,0,100,3.0,5,3.222657777721924e-05
6.755,0.0,77.50101619199279,0,100,3.0,5,2.0122613718605393e-05
6.76,0.0,77.50062682242242,0,100,3.0,5,1.2412325196408455e-05
6.765,0.0,77.50038195467684,0,100,3.0,5,7.56345894732215e-06
6.77,0.0,77.50022992049958,0,100,3.0,5,4.552881179760973e-06
6.775,0.0,77.50013672316726,0,100,3.0,5,2.7073894506708647e-06
6.78,0.0,77.50008031655649,0,100,3.0,5,1.5904268612230947e-06
6.785,0.0,77.50004660865855,0,100,3.0,5,9.22943733672078e-07
6.79,0.0,77.50002671939872,0,100,3.0,5,5.29097004325852e-07
6.795,0.0,77.500015131616,0,100,3.0,5,2.996359603119993e-07
6.8,0.0,77.50000846530277,0,100,3.0,5,1.67629757819362e-07
6.805,0.0,77.50000467840951,0,100,3.0,5,9.264177248438176e-08
6.81,0.0,77.50000255418604,0,100,3.0,5,5.057794137743744e-08
6.815,0.001684486749771458,77.50000137754365,0,100,3.0,5,2.7278092163511912e-08
6.82,0.00456624331333666,77.5000007339336,0,100,3.0,5,1.4533338686521915e-08
6.825,0.011079731271581421,77.500000386284,0,100,3.0,5,7.649188125586728e-09
6.83,0.024064571490409,77.50000020084232,0,100,3.0,5,3.9770756896782906e-09
6.835,0.046784906529573234,77.50000010315784,0,100,3.0,5,2.0427296026310154e-09
6.84,0.08141644351188804,77.5000000523417,0,100,3.0,5,1.0364693921609173e-09
6.845,0.12682276464025305,77.50000002623567,0,100,3.0,5,5.195181754538455e-10
6.85,0.1768320708657512,77.50000001299077,0,100,3.0,5,2.57242922233141e-10
6.855,0.22070063230473494,77.50000000635443,0,100,3.0,5,1.2583022412805389e-10
6.86,0.24656126505113576,77.50000000307055,0,100,3.0,5,6.080304136967153e-11
6.865,0.24656126505724016,77.50000000146574,0,100,3.0,5,2.9024474792779507e-11
6.87,0.220700632329898,77.50000000069117,0,100,3.0,5,1.36866008075897e-11
6.875,0.17683207093748562,77.50000000032198,0,100,3.0,5,6.3757492135115204e-12
6.88,0.12682276483597799,77.50000000014816,0,100,3.0,5,2.9339083417959623e-12
6.885,0.08141644409447898,77.50000000006736,0,100,3.0,5,1.3338505217833169e-12
6.89,0.04678490952598309,77.50000000003025,0,100,3.0,5,5.991071225478231e-13
6.895,0.024064605020532023,77.50000000001342,0,100,3.0,5,2.656444921019939e-13
6.9,0.011080171739334697,77.50000000000588,0,100,3.0,5,1.165008683582897e-13
6.905,0.004571212771509492,77.50000000000254,0,100,3.0,5,5.037114839645859e-14
6.91,0.0017299316936037438,77.5000000000011,0,100,3.0,5,2.1668035902387214e-14
6.915,0.0008899431850697582,77.50000000000045,0,100,3.0,5,9.004898037355725e-15
6.92,0.002128806368910263,77.50000000000018,0,100,3.0,5,3.6582398276757634e-15
6.925,0.009309664818487698,77.50000000000009,0,100,3.0,5,1.6884183820041984e-15
6.93,0.03503263543368747,77.50000000000003,0,100,3.0,5,5.628061273347328e-16
6.935,0.10606267793605692,77.50000000000001,0,100,3.0,5,2.814030636673664e-16
6.94,0.25734927343160535,77.5,0,100,3.0,5,0.0
6.945,0.5003202479539708,77.5,0,100,3.0,5,0.0
6.95,0.7793067891790435,77.5,0,100,3.0,5,0.0
6.955,0.9720477407234077,77.50000296085867,1,100,3.0,5,5.863086466933514e-08
6.96,0.967267334488097,77.50000571035189,0,100,3.0,5,1.1307627496174937e-07
6.965,0.7505869905515209,77.50001170443171,0,100,3.0,5,2.3177092502199158e-07
6.97,0.4028369574773956,77.50002641304063,0,100,3.0,5,5.230305075116067e-07
6.975,0.04553881263121314,77.5000665252307,0,100,3.0,5,1.3173313008526675e-06
6.98,-0.189138810908105,77.50018274192149,0,100,3.0,5,3.61865191073118e-06
6.985,-0.22868072635956738,77.50052387318846,0,100,3.0,5,1.0373726504079932e-05
6.99,-0.14104670682394166,77.50150521745815,0,100,3.0,5,2.9806286299912477e-05
6.995,-0.051158381651102834,77.50421964861579,0,100,3.0,5,8.355739833243008e-05
7.0,-0.008206426846427752,77.51136598535467,0,100,3.0,5,0.00022506901692420094
7.005,0.005350271385530505,77.52917765399178,0,100,3.0,5,0.0005777753265699112
7.01,0.01084668799215426,77.57108134476782,0,100,3.0,5,0.001407551381540973
7.015,0.016256859896386415,77.6639647333306,0,100,3.0,5,0.0032468264025861697
7.02,0.02345021205790711,77.85769648779382,0,100,3.0,5,0.0070830987681943895
7.025,0.0330621597308209,78.23750275866202,0,100,3.0,5,0.014604015023010253
7.03,0.04559141319943196,78.93660609869892,0,100,3.0,5,0.02844764551879043
7.035,0.06149084917446989,80.14329255035945,0,100,3.0,5,0.05234242673979104
7.04,0.08111733445924295,82.09338400003853,0,100,3.0,5,0.09095809901066389
7.045,0.1046628598272375,85.03822258680947,0,100,3.0,5,0.14927173439226668
7.05,0.1320831047748631,89.18250782082993,0,100,3.0,5,0.23133678853128567
7.055,0.16303381314489318,94.59721442119522,0,100,3.0,5,0.3385587014098063
7.06,0.19682662652900276,101.12843122811438,0,100,3.0,5,0.46788972728939365
7.065,0.23241585813229,108.33679106398483,0,100,3.0,5,0.6106295260195016
7.07,0.26842527782774417,115.50495517696805,0,100,3.0,5,0.7525733698409516
7.075,0.30321927900592993,121.73545376717152,0,100,3.0,5,0.8759495795479509
7.08,0.3350163137995362,126.12938694554578,0,100,3.0,5,0.9629581573375401
7.085,0.3620352400956416,128.0,0,100,3.0,5,1.0
7.09,0.3826586036805073,127.05213378267595,0,100,3.0,5,0.9812303719341773
7.095,0.39559233134833227,123.46342393853134,0,100,3.0,5,0.9101668106639869
7.1,0.4,117.83691169866654,0,100,3.0,5,0.7987507267062681
7.105,0.39559233134833227,111.0428157522503,0,100,3.0,5,0.6642141733118873
7.11,0.3826586036805073,104.00689074025422,0,100,3.0,5,0.5248889255495885
7.115,0.3620352400956416,97.51613742161487,0,100,3.0,5,0.3963591568636608
7.12,0.3350163137995362,92.09620566947218,0,100,3.0,5,0.28903377563311256
7.125,0.3032192790059296,87.98016572790874,0,100,3.0,5,0.20752803421601468
7.13,0.26842527782774417,85.15367330456162,0,100,3.0,5,0.151557887219042
7.135,0.23241585813229,83.44129238271697,0,100,3.0,5,0.11764935411320726
7.14,0.19682662652900276,82.59709159381332,0,100,3.0,5,0.10093250680818451
7.145,0.16303381314489318,82.37439505741156,0,100,3.0,5,0.09652267440418934
7.15,0.13208310477486307,82.56552256721031,0,100,3.0,5,0.10030737756852096
7.155,0.10466285982723562,83.01490925964377,0,100,3.0,5,0.10920612395334203
7.16,0.08111733445917907,83.6149898322029,0,100,3.0,5,0.12108890756837415
7.165,0.06149084917398798,84.29448016479837,0,100,3.0,5,0.13454416167917568
7.17,0.04559141333598128,85.00585406562266,0,100,3.0,5,0.14863077357668628
7.175,0.03306217087257399,85.71541498624035,0,100,3.0,5,0.16268148487604647
7.18,0.02345067901074276,86.3968221508936,0,100,3.0,5,0.17617469605729896
7.185,0.016268788896435526,87.02758541113411,0,100,3.0,5,0.18866505764622005
7.19,0.011039026374860051,87.58761854591343,0,100,3.0,5,0.19975482269135503
7.195,0.007326255555493689,88.05900895677816,0,100,3.0,5,0.2090892862728348
7.2,0.0047556414315231815,88.42639340038534,0,100,3.0,5,0.21636422575020467
7.205,0.0030193390635632803,88.6775522319961,0,100,3.0,5,0.22133766796031887
7.21,0.001874953127946523,88.8039936388506,0,100,3.0,5,0.22384145819506138
7.215,0.0011387927410965778,88.80139813628098,0,100,3.0,5,0.22379006210457386
7.22,0.0006765107634274089,88.66985288048312,0,100,3.0,5,0.2211852055541212
7.225,0.00039307957404427924,88.41384349586936,0,100,3.0,5,0.21611571278949224
7.23,0.00022338910511776318,88.04199915217103,0,100,3.0,6,0.20875245845883228
7.235,0.00012417073320013317,87.56660940207883,0,100,3.0,6,0.19933880004116486
7.24,6.750753468904987e-05,87.00294999195195,0,100,3.0,6,0.18817722756340496
7.245,3.5897234866245036e-05,86.36846906118626,0,100,3.0,6,0.1756132487363616
7.25,1.8670050400879738e-05,85.68189406124547,0,100,3.0,6,0.16201770418307868
7.255,9.497421874143672e-06,84.96232284202596,0,100,3.0,6,0.1477687691490288
7.26,4.725434140340885e-06,84.22835970510592,0,100,3.0,6,0.1332348456456617
7.265,2.299606063738814e-06,83.49734943647044,0,100,3.0,6,0.11875939478159295
7.27,1.0945633976635486e-06,82.78475053823685,0,100,3.0,6,0.10464852550964059
7.275,5.095703414287532e-07,82.10367455593006,0,100,3.0,6,0.09116187239465456
7.28,2.3202944964797243e-07,81.46460316387433,0,100,3.0,6,0.07850699334404614
7.285,1.0333746954038608e-07,80.87528008464052,0,100,3.0,6,0.06683722939882222
7.29,4.501406988770349e-08,80.34076230091587,0,100,3.0,6,0.05625271883001722
7.295,0.0,79.86360532746926,0,100,3.0,6,0.04680406589048037
7.3,0.0,79.44415107473705,0,100,3.0,6,0.03849804108390198
7.305,0.0,79.08088414773357,0,100,3.0,6,0.031304636588783574
7.31,0.0,78.77082299540983,0,100,3.0,6,0.025164811790293663
7.315,0.0,78.5099155754286,0,100,3.0,6,0.019998328226308773
7.32,0.0,78.2934143679769,0,100,3.0,6,0.015711175603502846
7.325,0.0,78.11621183743308,0,100,3.0,6,0.012202214602635337
7.33,0.0,77.97312402094234,0,100,3.0,6,0.009368792493907646
7.335,0.0,77.85911615682538,0,100,3.0,6,0.00711121102624514
7.34,0.0,77.76946966133801,0,100,3.0,6,0.005336032897782325
7.345,0.0,77.6998940161644,0,100,3.0,6,0.0039582973497899595
7.35,0.0,77.64659011856614,0,100,3.0,6,0.00290277462507204
7.355,0.0,77.6062734021177,0,100,3.0,6,0.0021044238043107654
7.36,0.0,77.57616570333117,0,100,3.0,6,0.0015082317491320926
7.365,0.0,77.55396464383686,0,100,3.0,6,0.0010686068086507624
7.37,0.0,77.537798464583,0,100,3.0,6,0.0007484844471882257
7.375,0.0,77.52617302906836,0,100,3.0,6,0.0005182778033338646
7.38,0.0,77.51791631962661,0,100,3.0,6,0.0003547786064674742
7.385,0.0,77.5121243538018,0,100,3.0,6,0.0002400862138969306
7.39,0.0,77.50811116779626,0,100,3.0,6,0.0001606171840843208
7.395,0.0,77.50536442472783,0,100,3.0,6,0.00010622623223425628
7.4,0.0,77.5035073403457,0,100,3.0,6,6.945228407339032e-05
7.405,0.0,77.50226697980659,0,100,3.0,6,4.489068923944479e-05
7.41,0.0,77.50144854628769,0,100,3.0,6,2.868408490476303e-05
7.415,0.0,77.5009150231643,0,100,3.0,6,1.8119270580123923e-05
7.42,0.0,77.50057140861654,0,100,3.0,6,1.131502210964214e-05
7.425,0.0,77.5003527576711,0,100,3.0,6,6.985300417724856e-06
7.43,0.0,77.50021528864964,0,100,3.0,6,4.263141577065752e-06
7.435,0.0,77.50012989151612,0,100,3.0,6,2.572109230184219e-06
7.44,0.0,77.50007747390087,0,100,3.0,6,1.5341366509567318e-06
7.445,0.0,77.50004568199337,0,100,3.0,6,9.045939281246446e-07
7.45,0.0,77.50002662868097,0,100,3.0,6,5.273006132767369e-07
7.455,0.0,77.50001534508321,0,100,3.0,6,3.0386303392063356e-07
7.46,0.0,77.50000874185959,0,100,3.0,6,1.7310613045965782e-07
7.465,0.0,77.50000492326701,0,100,3.0,6,9.749043591333553e-08
7.47,0.0,77.50000274105619,0,100,3.0,6,5.427834044930572e-08
7.475,0.0,77.50000150868118,0,100,3.0,6,2.9874874851182284e-08
7.48,0.001684486749771458,77.50000082090328,0,100,3.0,6,1.6255510521803824e-08
7.485,0.00456624331333666,77.50000044157197,0,100,3.0,6,8.743999407922481e-09
7.49,0.011079731271581421,77.50000023481508,0,100,3.0,6,4.6498034817427695e-09
7.495,0.024064571490409,77.50000012344272,0,100,3.0,6,2.4444102451741513e-09
7.5,0.046784906529573234,77.50000006415344,0,100,3.0,6,1.270365146410768e-09
7.505,0.08141644351188804,77.50000003296016,0,100,3.0,6,6.526764167628613e-10
7.51,0.12682276464025305,77.5000000167407,0,100,3.0,6,3.3149899986755834e-10
7.515,0.1768320708657512,77.50000000840569,0,100,3.0,6,1.664493493531199e-10
7.52,0.22070063230473494,77.50000000417242,0,100,3.0,6,8.262219071724812e-11
7.525,0.24656126505113576,77.50000000204747,0,100,3.0,6,4.0543990607066817e-11
7.53,0.24656126505724016,77.50000000099325,0,100,3.0,6,1.966838573196691e-11
7.535,0.220700632329898,77.50000000047635,0,100,3.0,6,9.432630694130123e-12
7.54,0.17683207093748562,77.50000000022584,0,100,3.0,6,4.472057487801787e-12
7.545,0.12682276483597799,77.50000000010584,0,100,3.0,6,2.095890018194545e-12
7.55,0.08141644409447898,77.50000000004904,0,100,3.0,6,9.711219727160816e-13
7.555,0.04678490952598309,77.50000000002247,0,100,3.0,6,4.448982436581063e-13
7.56,0.024064605020532023,77.50000000001017,0,100,3.0,6,2.0148459358583435e-13
7.565,0.011080171739334697,77.50000000000455,0,100,3.0,6,9.004898037355726e-14
7.57,0.004571212771509492,77.50000000000202,0,100,3.0,6,3.995923504076603e-14
7.575,0.0017299316936037438,77.50000000000088,0,100,3.0,6,1.7446989947376717e-14
7.58,0.0008899431850697582,77.50000000000038,0,100,3.0,6,7.597882719018894e-15
7.585,0.002128806368910263,77.50000000000016,0,100,3.0,6,3.0954337003410305e-15
7.59,0.009309664818487698,77.50000000000007,0,100,3.0,6,1.4070153183368321e-15
7.595,0.03503263543368747,77.50000000000003,0,100,3.0,6,5.628061273347328e-16
7.6,0.10606267793605692,77.50000000000001,0,100,3.0,6,2.814030636673664e-16
7.605,0.25734927343160535,77.5,0,100,3.0,6,0.0
7.61,0.5003202479539708,77.5,0,100,3.0,6,0.0
7.615,0.7793067891790435,77.5,0,100,3.0,6,0.0
7.62,0.9720477407234077,77.50000295860458,1,100,3.0,6,5.8586229359585414e-08
7.625,0.967267334488097,77.50000607194025,0,100,3.0,6,1.2023644056189188e-07
7.63,0.7505869905515209,77.50001345273148,0,100,3.0,6,2.663907223742883e-07
7.635,0.4028369574773956,77.5000335974731,0,100,3.0,6,6.65296497145121e-07
7.64,0.04553881263121314,77.5000952391376,0,100,3.0,6,1.8859235166978084e-06
7.645,-0.189138810908105,77.50029396174413,0,100,3.0,6,5.821024636320949e-06
7.65,-0.22868072635956738,77.50093256649718,0,100,3.0,6,1.8466663310573943e-05
7.655,-0.14104670682394166,77.5029100232732,0,100,3.0,6,5.762422323172278e-05
7.66,-0.051158381651102834,77.50870714352278,0,100,3.0,6,0.00017241868361948757
7.665,-0.008206426846427752,77.5246562773498,0,100,3.0,6,0.00048824311583773423
7.67,0.005350271385530505,77.56565066778992,0,100,3.0,6,0.0013000132235628605
7.675,0.01084668799215426,77.66383990810884,0,100,3.0,6,0.0032443546160166505
7.68,0.016256859896386415,77.88262038992832,0,100,3.0,6,0.007576641384719209
7.685,0.02345021205790711,78.33545183145863,0,100,3.0,6,0.016543600622943112
7.69,0.0330621597308209,79.20484989603223,0,100,3.0,6,0.03375940388182632
7.695,0.04559141319943196,80.75054676642503,0,100,3.0,6,0.06436726270148578
7.7,0.06149084917446989,83.28992906835192,0,100,3.0,6,0.11465206075944404
7.705,0.08111733445924295,87.13394030962314,0,100,3.0,6,0.19077109524006222
7.71,0.1046628598272375,92.47378991953458,0,100,3.0,6,0.2965106914759323
7.715,0.1320831047748631,99.23955414039685,0,100,3.0,6,0.43048622060191777
7.72,0.16303381314489318,106.98246625036123,0,100,3.0,6,0.5838112128784402
7.725,0.19682662652900276,114.8494723141842,0,100,3.0,6,0.7395935111719643
7.73,0.23241585813229,121.70177762100317,0,100,3.0,6,0.8752827251683797
7.735,0.26842527782774417,126.37413972136399,0,100,3.0,6,0.9678047469577027
7.74,0.30321927900592993,128.0,0,100,3.0,6,1.0
7.745,0.3350163137995362,126.27952255457706,0,100,3.0,6,0.9659311396945952
7.75,0.3620352400956416,121.57753056726469,0,100,3.0,6,0.8728223874705879
7.755,0.3826586036805073,114.80819134861454,0,100,3.0,6,0.7387760663091989
7.76,0.39559233134833227,107.1570555269131,0,100,3.0,6,0.5872684262755069
7.765,0.4,99.75682326894582,0,100,3.0,6,0.44072917364249153
7.77,0.39559233134833227,93.437628290086,0,100,3.0,6,0.3155965998036831
7.775,0.3826586036805073,88.6210265304858,0,100,3.0,6,0.2202183471383328
7.78,0.3620352400956416,85.35521064557099,0,100,3.0,6,0.15554872565487113
7.785,0.3350163137995362,83.43676931776182,0,100,3.0,6,0.11755978847053099
7.79,0.3032192790059296,82.55078966163666,0,100,3.0,6,0.1000156368640922
7.795,0.26842527782774417,82.37990978446584,0,100,3.0,6,0.0966318769201156
7.8,0.23241585813229,82.66385053700031,0,100,3.0,6,0.10225446607921415
7.805,0.19682662652900276,83.21572546574443,0,100,3.0,6,0.11318268248998865
7.81,0.16303381314489318,83.91239791841033,0,100,3.0,6,0.12697817660218486
7.815,0.13208310477486307,84.67546318988141,0,100,3.0,6,0.14208837999765173
7.82,0.10466285982723562,85.45331282711224,0,100,3.0,6,0.1574913431111335
7.825,0.08111733445917907,86.20847512306442,0,100,3.0,6,0.17244505194186965
7.83,0.06149084917398798,86.91043201717129,0,100,3.0,6,0.1863451884588374
7.835,0.04559141333598128,87.53247338289246,0,100,3.0,6,0.19866283926519726
7.84,0.03306217087257399,88.0509704560115,0,100,3.0,6,0.20893010803983164
7.845,0.02345067901074276,88.44584531855038,0,100,3.0,6,0.21674941224852243
7.85,0.016268788896435526,88.70146811501344,0,100,3.0,6,0.22181124980224634
7.855,0.011039026374860051,88.80754517288817,0,100,3.0,6,0.2239117856017459
7.86,0.007326255555493689,88.75976200907462,0,100,3.0,6,0.22296558433811128
7.865,0.0047556414315231815,88.56006114259078,0,100,3.0,6,0.21901111173447094
7.87,0.0030193390635632803,88.21650740561338,0,100,3.0,6,0.2122080674378888
7.875,0.001874953127946523,87.74274663539316,0,100,3.0,6,0.20282666604738933
7.88,0.0011387927410965778,87.15710631316468,0,100,3.0,6,0.19122982798345892
7.885,0.0006765107634274089,86.48142019658886,0,100,3.0,6,0.17784990488294766
7.89,0.00039307957404427924,85.73968176817759,0,100,3.0,6,0.16316201521143742
7.895,0.00022338910511776318,84.95664182706211,0,100,3.0,6,0.14765627380321017
7.9,0.00012417073320013317,84.15646337911748,0,100,3.0,6,0.13181115602212837
7.905,6.750753468904987e-05,83.36153323734182,0,100,3.0,6,0.11606996509587757
7.91,3.5897234866245036e-05,82.59150690834363,0,100,3.0,6,0.10082191897710163
7.915,1.8670050400879738e-05,81.86263483969579,0,100,3.0,6,0.08638880870684726
7.92,9.497421874143672e-06,81.18738775969096,0,100,3.0,6,0.07301757939982106
7.925,4.725434140340885e-06,80.57437030471705,0,100,3.0,6,0.06087861989538713
7.93,2.299606063738814e-06,80.02848839135753,0,100,3.0,6,0.0500690770565847
7.935,1.0945633976635486e-06,79.55131885537037,0,100,3.0,6,0.040620175353868686
7.94,5.095703414287532e-07,79.14162062723075,0,100,3.0,6,0.03250733915308417
7.945,2.3202944964797243e-07,78.79592494440962,0,100,3.0,6,0.025661880087319212
7.95,1.0333746954038608e-07,78.50914673365939,0,100,3.0,6,0.019983103636819648
7.955,4.501406988770349e-08,78.2751686651716,0,100,3.0,6,0.015349874557853577
7.96,0.0,78.08736155817212,0,100,3.0,6,0.01163092194400237
7.965,0.0,77.93901792246764,0,100,3.0,6,0.008693424207280032
7.97,0.0,77.82368785280029,0,100,3.0,6,0.0064096604514908995
7.975,0.0,77.73541708275205,0,100,3.0,6,0.004661724410931694
7.98,0.0,77.66889506741865,0,100,3.0,6,0.0033444567805672436
7.985,0.0,77.61952627338034,0,100,3.0,6,0.0023668568986206853
7.99,0.0,77.583440560487,0,100,3.0,6,0.0016522883264753596
7.995,0.0,77.55745905335685,0,100,3.0,6,0.0011378030367693284
8.0,0.0,77.53903077198105,0,100,3.0,6,0.0007728865738821098
8.005,0.0,77.52615310372167,0,100,3.0,6,0.0005178832420132368
8.01,0.0,77.51728648731061,0,100,3.0,6,0.00034230667941809016
8.015,0.0,77.51127087641395,0,100,3.0,6,0.00022318567156327782
8.02,0.0,77.50724896569103,0,100,3.0,6,0.0001435438750699704
8.025,0.0,77.50459898318086,0,100,3.0,6,9.10689738783267e-05
8.03,0.0,77.50287816056776,0,100,3.0,6,5.699327856952082e-05
8.035,0.0,77.50177678810005,0,100,3.0,6,3.518392277317274e-05
8.04,0.0,77.50108199106754,0,100,3.0,6,2.1425565693793897e-05
8.045,0.0,77.5006499487824,0,100,3.0,6,1.2870272918730328e-05
8.05,0.0,77.50038512526845,0,100,3.0,6,7.626242939628661e-06
8.055,0.0,77.50022510871771,0,100,3.0,6,4.457598370580323e-06
8.06,0.0,77.5001297926306,0,100,3.0,6,2.5701511010358426e-06
8.065,0.0,77.50007382019291,0,100,3.0,6,1.4617859982094934e-06
8.07,0.0,77.50004141596045,0,100,3.0,6,8.201180287752583e-07
8.075,0.0,77.50002292069169,0,100,3.0,6,4.5387508299598373e-07
8.08,0.0,77.50001251281783,0,100,3.0,6,2.477785709414651e-07
8.085,0.0,77.50000673829383,0,100,3.0,6,1.334315610696793e-07
8.09,0.001684486749771458,77.50000357941612,0,100,3.0,6,7.087952705732466e-08
8.095,0.00456624331333666,77.50000187560704,0,100,3.0,6,3.714073347221682e-08
8.1,0.011079731271581421,77.50000096948018,0,100,3.0,6,1.919762739096696e-08
8.105,0.024064571490409,77.5000004943146,0,100,3.0,6,9.788408024718646e-09
8.11,0.046784906529573234,77.5000002486196,0,100,3.0,6,4.923160387610695e-09
8.115,0.08141644351188804,77.50000012334874,0,100,3.0,6,2.442549326714119e-09
8.12,0.12682276464025305,77.50000006036726,0,100,3.0,6,1.1953912095609352e-09
8.125,0.1768320708657512,77.5000000291431,0,100,3.0,6,5.770909910556793e-10
8.13,0.22070063230473494,77.50000001387833,0,100,3.0,6,2.748185133806137e-10
8.135,0.24656126505113576,77.50000000651939,0,100,3.0,6,1.290967508911047e-10
8.14,0.24656126505724016,77.50000000302094,0,100,3.0,6,5.982066327440875e-11
8.145,0.220700632329898,77.50000000138085,0,100,3.0,6,2.7343654293494327e-11
8.15,0.17683207093748562,77.5000000006226,0,100,3.0,6,1.2328831025394658e-11
8.155,0.12682276483597799,77.50000000027693,0,100,3.0,6,5.4837015016859696e-12
8.16,0.08141644409447898,77.50000000012149,0,100,3.0,6,2.4057147912923155e-12
8.165,0.04678490952598309,77.50000000005258,0,100,3.0,6,1.0411913355692557e-12
8.17,0.024064605020532023,77.50000000002245,0,100,3.0,6,4.446168405944389e-13
8.175,0.011080171739334697,77.50000000000945,0,100,3.0,6,1.8713303733879865e-13
8.18,0.004571212771509492,77.50000000000392,0,100,3.0,6,7.766724557219314e-14
8.185,0.0017299316936037438,77.5000000000016,0,100,3.0,6,3.179854619441241e-14
8.19,0.0008899431850697582,77.50000000000065,0,100,3.0,6,1.2944540928698855e-14
8.195,0.002128806368910263,77.50000000000026,0,100,3.0,6,5.065255146012595e-15
8.2,0.009309664818487698,77.5000000000001,0,100,3.0,6,1.969821445671565e-15
8.205,0.03503263543368747,77.50000000000004,0,100,3.0,6,8.442091910020992e-16
8.21,0.10606267793605692,77.50000000000001,0,100,3.0,6,2.814030636673664e-16
8.215,0.25734927343160535,77.5,0,100,3.0,6,0.0
8.22,0.5003202479539708,77.5,0,100,3.0,6,0.0
8.225,0.7793067891790435,77.5,0,100,3.0,6,0.0
8.23,0.9720477407234077,77.500002961856,1,100,3.0,6,5.865061381774638e-08
8.235,0.967267334488097,77.500006041423,0,100,3.0,6,1.1963213873878877e-07
8.24,0.7505869905515209,77.50001328138595,0,100,3.0,6,2.629977415165173e-07
8.245,0.4028369574773956,77.50003283321637,0,100,3.0,6,6.501627003199426e-07
8.25,0.04553881263121314,77.50009198824264,0,100,3.0,6,1.8215493592959877e-06
8.255,-0.189138810908105,77.50028074560149,0,100,3.0,6,5.559318841314602e-06
8.26,-0.22868072635956738,77.50088215537116,0,100,3.0,6,1.7468423191256096e-05
8.265,-0.14104670682394166,77.5027317136506,0,100,3.0,6,5.409333961592487e-05
8.27,-0.051158381651102834,77.50812515206187,0,100,3.0,6,0.00016089410023495125
8.275,-0.008206426846427752,77.52290585167412,0,100,3.0,6,0.0004535812212697967
8.28,0.005350271385530505,77.5607994860294,0,100,3.0,6,0.0012039502184038745
8.285,0.01084668799215426,77.65144697964095,0,100,3.0,6,0.0029989500919000286
8.29,0.016256859896386415,77.85343089561607,0,100,3.0,6,0.00699863159635785
8.295,0.02345021205790711,78.27206809920676,0,100,3.0,6,0.015288477212015105
8.3,0.0330621597308209,79.07802187804528,0,100,3.0,6,0.031247957981094594
8.305,0.04559141319943196,80.51693895137673,0,100,3.0,6,0.05974136537379663
8.31,0.06149084917446989,82.89454088046219,0,100,3.0,6,0.10682259169232054
8.315,0.08111733445924295,86.52074732919208,0,100,3.0,6,0.17862865998400151
8.32,0.1046628598272375,91.60628022891433,0,100,3.0,6,0.2793322817606798
8.325,0.1320831047748631,98.12800786254579,0,100,3.0,6,0.40847540321872844
8.33,0.16303381314489318,105.70840989696592,0,100,3.0,6,0.5585823741973449
8.335,0.19682662652900276,113.57344353324595,0,100,3.0,6,0.7143256145197218
8.34,0.23241585813229,120.64276888442222,0,100,3.0,6,0.8543122551370738
8.345,0.26842527782774417,125.75956336367835,0,100,3.0,6,0.9556349180926407
8.35,0.30321927900592993,128.0,0,100,3.0,6,1.0
8.355,0.3350163137995362,126.95061745029365,0,100,3.0,6,0.9792201475305673
8.36,0.3620352400956416,122.84001560912182,0,100,3.0,6,0.897822091269739
8.365,0.3826586036805073,116.46801010317881,0,100,3.0,6,0.7716437644193824
8.37,0.39559233134833227,108.96296573740314,0,100,3.0,6,0.6230290245030324
8.375,0.4,101.46881286087532,0,100,3.0,6,0.4746299576410954
8.38,0.39559233134833227,94.88053871179497,0,100,3.0,6,0.34416908340188057
8.385,0.3826586036805073,89.70779311233117,0,100,3.0,6,0.24173847747190444
8.39,0.3620352400956416,86.07956026661839,0,100,3.0,6,0.1698922825072948
8.395,0.3350163137995362,83.84687409322002,0,100,3.0,6,0.1256806751132678
8.4,0.3032192790059296,82.7187027867249,0,100,3.0,6,0.10334064924207731
8.405,0.26842527782774417,82.37771688222631,0,100,3.0,6,0.09658845311339226
8.41,0.23241585813229,82.55072048744152,0,100,3.0,6,0.10001426707804997
8.415,0.19682662652900276,83.03453037589074,0,100,3.0,6,0.1095946609087275
8.42,0.16303381314489318,83.69208055632127,0,100,3.0,6,0.12261545656081728
8.425,0.13208310477486307,84.43544696634281,0,100,3.0,6,0.1373355834919368
8.43,0.10466285982723562,85.20760297898806,0,100,3.0,6,0.15262580156412006
8.435,0.08111733445917907,85.96850260217812,0,100,3.0,7,0.1676931208352103
8.44,0.06149084917398798,86.6865931944108,0,100,3.0,7,0.18191273652298623
8.445,0.04559141333598128,87.33469336179016,0,100,3.0,7,0.19474640320376552
8.45,0.03306217087257399,87.88866412777621,0,100,3.0,7,0.20571612134210315
8.455,0.02345067901074276,88.32756689971691,0,100,3.0,7,0.21440726534092897
8.46,0.016268788896435526,88.63444229094094,0,100,3.0,7,0.22048400576120672
8.465,0.011039026374860051,88.7972016808272,0,100,3.0,7,0.22370696397677625
8.47,0.007326255555493689,88.80935150413694,0,100,3.0,7,0.22394755453736517
8.475,0.0047556414315231815,88.67040269484706,0,100,3.0,7,0.22119609296726842
8.48,0.0030193390635632803,88.38589749796584,0,100,3.0,7,0.21556232669239292
8.485,0.001874953127946523,87.96704111602165,0,100,3.0,7,0.20726814091131976
8.49,0.0011387927410965778,87.42996910265714,0,100,3.0,7,0.19663305153776514
8.495,0.0006765107634274089,86.79471636674512,0,100,3.0,7,0.18405378944049744
8.5,0.00039307957404427924,86.08397933237504,0,100,3.0,7,0.16997978875990172
8.505,0.00022338910511776318,85.32177758289465,0,100,3.0,7,0.15488668480979514
8.51,0.00012417073320013317,84.53212429988861,0,100,3.0,7,0.13924998613640807
8.515,6.750753468904987e-05,83.7378064113005,0,100,3.0,7,0.1235209190356534
8.52,3.5897234866245036e-05,82.95935736032456,0,100,3.0,7,0.1081060863430606
8.525,1.8670050400879738e-05,82.21428063285789,0,100,3.0,7,0.09335209173976025
8.53,9.497421874143672e-06,81.51655406697313,0,100,3.0,7,0.0795357240984778
8.535,4.725434140340885e-06,80.8764170164331,0,100,3.0,7,0.06685974289966524
8.54,2.299606063738814e-06,80.30041774319758,0,100,3.0,7,0.05545381669698188
8.545,1.0945633976635486e-06,79.7916792805792,0,100,3.0,7,0.04537978773424164
8.55,5.095703414287532e-07,79.35032975682887,0,100,3.0,7,0.03664019320453208
8.555,2.3202944964797243e-07,78.97403808767992,0,100,3.0,7,0.029188873023364655
8.56,1.0333746954038608e-07,78.65859741440458,0,100,3.0,7,0.022942523057516477
8.565,4.501406988770349e-08,78.39850537991533,0,100,3.0,7,0.01779218574089772
8.57,0.0,78.1875006071592,0,100,3.0,7,0.01361387340909295
8.575,0.0,78.01902678123402,0,100,3.0,7,0.010277758044237983
8.58,0.0,77.8866079019436,0,100,3.0,7,0.007655602018685262
8.585,0.0,77.78412926151917,0,100,3.0,7,0.0056263220102805754
8.59,0.0,77.70602763440992,0,100,3.0,7,0.004079755136830114
8.595,0.0,77.64740060525696,0,100,3.0,7,0.002918823866474497
