Time,ECG,Pressure,R_Peaks,mean_hr,hrv_scale,Phase_Bin,Normalized_Pressure
0.0,0.001684486749771458,77.5,0,100,3.0,0,0.0
0.005,0.00456624331333666,77.5,0,100,3.0,0,0.0
0.01,0.011079731271581421,77.5,0,100,3.0,0,0.0
0.015,0.024064571490409,77.5,0,100,3.0,0,0.0
0.02,0.046784906529573234,77.5,0,100,3.0,0,0.0
0.025,0.08141644351188804,77.5,0,100,3.0,0,0.0
0.03,0.12682276464025305,77.5,0,100,3.0,0,0.0
0.035,0.1768320708657512,77.5,0,100,3.0,0,0.0
0.04,0.22070063230473494,77.5,0,100,3.0,0,0.0
0.045,0.24656126505113576,77.5,0,100,3.0,0,0.0
0.05,0.24656126505724016,77.5,0,100,3.0,0,0.0
0.055,0.220700632329898,77.5,0,100,3.0,0,0.0
0.06,0.17683207093748562,77.5,0,100,3.0,0,0.0
0.065,0.12682276483597799,77.5,0,100,3.0,0,0.0
0.07,0.08141644409447898,77.5,0,100,3.0,0,0.0
0.075,0.04678490952598309,77.5,0,100,3.0,0,0.0
0.08,0.024064605020532023,77.5,0,100,3.0,0,0.0
0.085,0.011080171739334697,77.5,0,100,3.0,0,0.0
0.09,0.004571212771509492,77.5,0,100,3.0,0,0.0
0.095,0.0017299316936037438,77.5,0,100,3.0,0,0.0
0.1,0.0008899431850697582,77.5,0,100,3.0,0,0.0
0.105,0.002128806368910263,77.5,0,100,3.0,0,0.0
0.11,0.009309664818487698,77.5,0,100,3.0,0,0.0
0.115,0.03503263543368747,77.5,0,100,3.0,0,0.0
0.12,0.10606267793605692,77.5,0,100,3.0,0,0.0
0.125,0.25734927343160535,77.5,0,100,3.0,0,0.0
0.13,0.5003202479539708,77.5,0,100,3.0,0,0.0
0.135,0.7793067891790435,77.5,0,100,3.0,0,0.0
0.14,0.9720477407234077,77.5,0,100,3.0,0,0.0
0.145,0.967267334488097,77.5,0,100,3.0,0,0.0
0.15,0.7505869905515209,77.5,0,100,3.0,0,0.0
0.155,0.4028369574773956,77.5,0,100,3.0,0,0.0
0.16,0.04553881263121314,77.5,0,100,3.0,0,0.0
0.165,-0.189138810908105,77.5,0,100,3.0,0,0.0
0.17,-0.22868072635956738,77.5,0,100,3.0,0,0.0
0.175,-0.14104670682394166,77.5,0,100,3.0,0,0.0
0.18,-0.051158381651102834,77.5,0,100,3.0,0,0.0
0.185,-0.008206426846427752,77.5,0,100,3.0,0,0.0
0.19,0.005350271385530505,77.5,0,100,3.0,0,0.0
0.195,0.01084668799215426,77.5,0,100,3.0,0,0.0
0.2,0.016256859896386415,77.5,0,100,3.0,0,0.0
0.205,0.02345021205790711,77.5,0,100,3.0,0,0.0
0.21,0.0330621597308209,77.5,0,100,3.0,0,0.0
0.215,0.04559141319943196,77.5,0,100,3.0,0,0.0
0.22,0.06149084917446989,77.5,0,100,3.0,0,0.0
0.225,0.08111733445924295,77.5,0,100,3.0,0,0.0
0.23,0.1046628598272375,77.5,0,100,3.0,0,0.0
0.235,0.1320831047748631,77.5,0,100,3.0,0,0.0
0.24,0.16303381314489318,77.5,0,100,3.0,0,0.0
0.245,0.19682662652900276,77.5,0,100,3.0,0,0.0
0.25,0.23241585813229,77.5,0,100,3.0,0,0.0
0.255,0.26842527782774417,77.5,0,100,3.0,0,0.0
0.26,0.30321927900592993,77.5,0,100,3.0,0,0.0
0.265,0.3350163137995362,77.5,0,100,3.0,0,0.0
0.27,0.3620352400956416,77.5,0,100,3.0,0,0.0
0.275,0.3826586036805073,77.5,0,100,3.0,0,0.0
0.28,0.39559233134833227,77.5,0,100,3.0,0,0.0
0.285,0.4,77.5,0,100,3.0,0,0.0
0.29,0.39559233134833227,77.5,0,100,3.0,0,0.0
0.295,0.3826586036805073,77.5,0,100,3.0,0,0.0
0.3,0.3620352400956416,77.5,0,100,3.0,0,0.0
0.305,0.3350163137995362,77.5,0,100,3.0,0,0.0
0.31,0.3032192790059296,77.5,0,100,3.0,0,0.0
0.315,0.26842527782774417,77.5,0,100,3.0,0,0.0
0.32,0.23241585813229,77.5,0,100,3.0,0,0.0
0.325,0.19682662652900276,77.5,0,100,3.0,0,0.0
0.33,0.16303381314489318,77.5,0,100,3.0,0,0.0
0.335,0.13208310477486307,77.5,0,100,3.0,0,0.0
0.34,0.10466285982723562,77.5,0,100,3.0,0,0.0
0.345,0.08111733445917907,77.5,0,100,3.0,0,0.0
0.35,0.06149084917398798,77.5,0,100,3.0,0,0.0
0.355,0.04559141333598128,77.5,0,100,3.0,0,0.0
0.36,0.03306217087257399,77.5,0,100,3.0,0,0.0
0.365,0.02345067901074276,77.5,0,100,3.0,0,0.0
0.37,0.016268788896435526,77.5,0,100,3.0,0,0.0
0.375,0.011039026374860051,77.5,0,100,3.0,0,0.0
0.38,0.007326255555493689,77.5,0,100,3.0,0,0.0
0.385,0.0047556414315231815,77.5,0,100,3.0,0,0.0
0.39,0.0030193390635632803,77.5,0,100,3.0,0,0.0
0.395,0.001874953127946523,77.5,0,100,3.0,0,0.0
0.4,0.0011387927410965778,77.5,0,100,3.0,0,0.0
0.405,0.0006765107634274089,77.5,0,100,3.0,0,0.0
0.41,0.00039307957404427924,77.5,0,100,3.0,0,0.0
0.415,0.00022338910511776318,77.5,0,100,3.0,0,0.0
0.42,0.00012417073320013317,77.5,0,100,3.0,0,0.0
0.425,6.750753468904987e-05,77.5,0,100,3.0,0,0.0
0.43,3.5897234866245036e-05,77.5,0,100,3.0,0,0.0
0.435,1.8670050400879738e-05,77.5,0,100,3.0,0,0.0
0.44,9.497421874143672e-06,77.5,0,100,3.0,0,0.0
0.445,4.725434140340885e-06,77.5,0,100,3.0,0,0.0
0.45,2.299606063738814e-06,77.5,0,100,3.0,0,0.0
0.455,1.0945633976635486e-06,77.5,0,100,3.0,0,0.0
0.46,5.095703414287532e-07,77.5,0,100,3.0,0,0.0
0.465,2.3202944964797243e-07,77.5,0,100,3.0,0,0.0
0.47,1.0333746954038608e-07,77.5,0,100,3.0,0,0.0
0.475,4.501406988770349e-08,77.5,0,100,3.0,0,0.0
0.48,0.0,77.5,0,100,3.0,0,0.0
0.485,0.0,77.5,0,100,3.0,0,0.0
0.49,0.0,77.5,0,100,3.0,0,0.0
0.495,0.0,77.5,0,100,3.0,0,0.0
0.5,0.0,77.5,0,100,3.0,0,0.0
0.505,0.0,77.5,0,100,3.0,0,0.0
0.51,0.0,77.5,0,100,3.0,0,0.0
0.515,0.0,77.5,0,100,3.0,0,0.0
0.52,0.0,77.5,0,100,3.0,0,0.0
0.525,0.0,77.5,0,100,3.0,0,0.0
0.53,0.0,77.5,0,100,3.0,0,0.0
0.535,0.0,77.5,0,100,3.0,0,0.0
0.54,0.0,77.5,0,100,3.0,0,0.0
0.545,0.0,77.5,0,100,3.0,0,0.0
0.55,0.0,77.5,0,100,3.0,0,0.0
0.555,0.0,77.5,0,100,3.0,0,0.0
0.56,0.0,77.5,0,100,3.0,0,0.0
0.565,0.0,77.5,0,100,3.0,0,0.0
0.57,0.0,77.5,0,100,3.0,0,0.0
0.575,0.0,77.5,0,100,3.0,0,0.0
0.58,0.0,77.5,0,100,3.0,0,0.0
0.585,0.0,77.5,0,100,3.0,0,0.0
0.59,0.0,77.5,0,100,3.0,0,0.0
0.595,0.0,77.5,0,100,3.0,0,0.0
0.6,0.0,77.5,0,100,3.0,0,0.0
0.605,0.0,77.5,0,100,3.0,0,0.0
0.61,0.001684486749771458,77.5,0,100,3.0,0,0.0
0.615,0.00456624331333666,77.5,0,100,3.0,0,0.0
0.62,0.011079731271581421,77.5,0,100,3.0,0,0.0
0.625,0.024064571490409,77.5,0,100,3.0,0,0.0
0.63,0.046784906529573234,77.5,0,100,3.0,0,0.0
0.635,0.08141644351188804,77.5,0,100,3.0,0,0.0
0.64,0.12682276464025305,77.5,0,100,3.0,0,0.0
0.645,0.1768320708657512,77.5,0,100,3.0,0,0.0
0.65,0.22070063230473494,77.5,0,100,3.0,0,0.0
0.655,0.24656126505113576,77.5,0,100,3.0,0,0.0
0.66,0.24656126505724016,77.5,0,100,3.0,0,0.0
0.665,0.220700632329898,77.5,0,100,3.0,0,0.0
0.67,0.17683207093748562,77.5,0,100,3.0,0,0.0
0.675,0.12682276483597799,77.5,0,100,3.0,0,0.0
0.68,0.08141644409447898,77.5,0,100,3.0,0,0.0
0.685,0.04678490952598309,77.5,0,100,3.0,0,0.0
0.69,0.024064605020532023,77.5,0,100,3.0,0,0.0
0.695,0.011080171739334697,77.5,0,100,3.0,0,0.0
0.7,0.004571212771509492,77.5,0,100,3.0,0,0.0
0.705,0.0017299316936037438,77.5,0,100,3.0,0,0.0
0.71,0.0008899431850697582,77.5,0,100,3.0,0,0.0
0.715,0.002128806368910263,77.5,0,100,3.0,0,0.0
0.72,0.009309664818487698,77.5,0,100,3.0,0,0.0
0.725,0.03503263543368747,77.5,0,100,3.0,0,0.0
0.73,0.10606267793605692,77.5,0,100,3.0,0,0.0
0.735,0.25734927343160535,77.5,0,100,3.0,0,0.0
0.74,0.5003202479539708,77.5,0,100,3.0,0,0.0
0.745,0.7793067891790435,77.5,0,100,3.0,0,0.0
0.75,0.9720477407234077,77.50000297094563,1,100,3.0,0,5.8830606533747686e-08
0.755,0.967267334488097,77.50000585321456,0,100,3.0,0,1.1590523881480268e-07
0.76,0.7505869905515209,77.50001231859999,0,100,3.0,0,2.4393267297833374e-07
0.765,0.4028369574773956,77.5000287685175,0,100,3.0,0,5.696736137690438e-07
0.77,0.04553881263121314,77.50007544225073,0,100,3.0,0,1.493905955103941e-06
0.775,-0.189138810908105,77.50021580677046,0,100,3.0,0,4.2734013951609664e-06
0.78,-0.22868072635956738,77.50064122197105,0,100,3.0,0,1.2697464773291268e-05
0.785,-0.14104670682394166,77.50189764285709,0,100,3.0,0,3.7577086278971173e-05
0.79,-0.051158381651102834,77.50544678588247,0,100,3.0,0,0.00010785714618751257
0.795,-0.008206426846427752,77.51494354533021,0,100,3.0,0,0.00029591178871706545
0.8,0.005350271385530505,77.53889317447089,0,100,3.0,0,0.0007701618707106056
0.805,0.01084668799215426,77.59565760011441,0,100,3.0,0,0.0018942099032555873
0.81,0.016256859896386415,77.72188223512214,0,100,3.0,0,0.004393707626180944
0.815,0.02345021205790711,77.98486749911095,0,100,3.0,0,0.00960133661605837
0.82,0.0330621597308209,78.4976358334839,0,100,3.0,0,0.01975516501948312
0.825,0.04559141319943196,79.43210578788607,0,100,3.0,0,0.03825952055219946
0.83,0.06149084917446989,81.02144467284691,0,100,3.0,0,0.06973157768013685
0.835,0.08111733445924295,83.53943824352314,0,100,3.0,0,0.11959283650540864
0.84,0.1046628598272375,87.24612635035874,0,100,3.0,0,0.1929926009972027
0.845,0.1320831047748631,92.29836240213126,0,100,3.0,0,0.29303687925012395
0.85,0.16303381314489318,98.6415242177682,0,100,3.0,0,0.41864404391620186
0.855,0.19682662652900276,105.91856224009601,0,100,3.0,0,0.5627438067345745
0.86,0.23241585813229,113.44355699129795,0,100,3.0,0,0.7117536037880783
0.865,0.26842527782774417,120.27731578487735,0,100,3.0,0,0.8470755600965811
0.87,0.30321927900592993,125.40886924748625,0,100,3.0,0,0.9486904801482426
0.875,0.3350163137995362,128.0,0,100,3.0,0,1.0
0.88,0.3620352400956416,127.61297446918879,0,100,3.0,0,0.9923361281027482
0.885,0.3826586036805073,124.33696161207922,0,100,3.0,0,0.9274645863778064
0.89,0.39559233134833227,118.76344665656188,0,100,3.0,0,0.8170979535952848
0.895,0.4,111.82039289833824,0,100,3.0,0,0.6796117405611533
0.9,0.39559233134833227,104.52944873576625,0,100,3.0,0,0.5352366086290347
0.905,0.3826586036805073,97.77357003237384,0,100,3.0,0,0.40145683232423446
0.91,0.3620352400956416,92.14593155860807,0,100,3.0,0,0.2900184467051103
0.915,0.3350163137995362,87.90825613345055,0,100,3.0,0,0.20610408185050594
0.92,0.3032192790059296,85.04198682162858,0,100,3.0,0,0.1493462736956155
0.925,0.26842527782774417,83.34911037832367,0,100,3.0,0,0.11582396788759747
0.93,0.23241585813229,82.55716877843483,0,100,3.0,0,0.10014195600861046
0.935,0.19682662652900276,82.39818228678223,0,100,3.0,0,0.09699370864915308
0.94,0.16303381314489318,82.65144010719679,0,100,3.0,0,0.10200871499399586
0.945,0.13208310477486307,83.15544646601765,0,100,3.0,0,0.11198903893104259
0.95,0.10466285982723562,83.80098496712186,0,100,3.0,0,0.12477197954696759
0.955,0.08111733445917907,84.51679817502719,0,100,3.0,0,0.13894649851538993
0.96,0.06149084917398798,85.25545908263547,0,100,3.0,0,0.15357344718090035
0.965,0.04559141333598128,85.98282074337618,0,100,3.0,0,0.16797664838368673
0.97,0.03306217087257399,86.67155747492474,0,100,3.0,0,0.1816149995034602
0.975,0.02345067901074276,87.29795930335597,0,100,3.0,0,0.19401899610605874
0.98,0.016268788896435526,87.84083911807926,0,100,3.0,0,0.20476909144711405
0.985,0.011039026374860051,88.28160151207733,0,100,3.0,0,0.21349705964509563
0.99,0.007326255555493689,88.60482836895572,0,100,3.0,0,0.21989759146446974
0.995,0.0047556414315231815,88.79899114489746,0,100,3.0,0,0.22374239890886052
1.0,0.0030193390635632803,88.85706779854773,0,100,3.0,0,0.22489243165441053
1.005,0.001874953127946523,88.77694250763581,0,100,3.0,0,0.22330579223041205
1.01,0.0011387927410965778,88.56152685954629,0,100,3.0,0,0.21904013583259982
1.015,0.0006765107634274089,88.21858228046267,0,100,3.0,0,0.2122491540685677
1.02,0.00039307957404427924,87.76025532372388,0,100,3.0,0,0.20317337274700756
1.025,0.00022338910511776318,87.20236355807309,0,100,3.0,0,0.19212601105095226
1.03,0.00012417073320013317,86.5634902866797,0,100,3.0,0,0.17947505518177614
1.035,6.750753468904987e-05,85.86396018771272,0,100,3.0,0,0.16562297401411327
1.04,3.5897234866245036e-05,85.12477432033205,0,100,3.0,0,0.15098563010558516
1.045,1.8670050400879738e-05,84.36658158555097,0,100,3.0,0,0.13597191258516783
1.05,9.497421874143672e-06,83.60875530007408,0,100,3.0,0,0.12096545148661544
1.055,4.725434140340885e-06,82.86862941840498,0,100,3.0,0,0.10630949343376195
1.06,2.299606063738814e-06,82.1609310518812,0,100,3.0,0,0.09229566439368726
1.065,1.0945633976635486e-06,81.49742647014536,0,100,3.0,0,0.07915695980485854
1.07,5.095703414287532e-07,80.88677888145745,0,100,3.0,0,0.06706492834569198
1.075,2.3202944964797243e-07,80.33459982381898,0,100,3.0,0,0.05613068958057379
1.08,1.0333746954038608e-07,79.84366331563119,0,100,3.0,0,0.04640917456695426
1.085,4.501406988770349e-08,79.4142437702478,0,100,3.0,0,0.03790581723262958
1.09,0.0,79.04453522094083,0,100,3.0,0,0.030584855860214453
1.095,0.0,78.73111024024065,0,100,3.0,0,0.024378420598824817
1.1,0.0,78.46938127165673,0,100,3.0,0,0.01919566874567781
1.105,0.0,78.25403387991976,0,100,3.0,0,0.014931363958807127
1.11,0.0,78.07940954909407,0,100,3.0,0,0.011473456417704283
1.115,0.0,77.93982406759571,0,100,3.0,0,0.00870938747714274
1.12,0.0,77.8298153669202,0,100,3.0,0,0.006530997364756453
1.125,0.0,77.74432130323292,0,100,3.0,0,0.004838045608572724
1.13,0.0,77.67879292921928,0,100,3.0,0,0.0035404540439462227
1.135,0.0,77.62925218591911,0,100,3.0,0,0.00255944922612107
1.14,0.0,77.59230474085237,0,100,3.0,0,0.0018278166505419813
1.145,0.0,77.56511914230262,0,100,3.0,0,0.0012894879663885247
1.15,0.0,77.54538286297166,0,100,3.0,0,0.0008986705538943354
1.155,0.0,77.5312445059329,0,100,3.0,0,0.0006187030877802698
1.16,0.0,77.52124975792847,0,100,3.0,0,0.00042078728571233557
1.165,0.0,77.51427686543666,0,100,3.0,0,0.00028271020666646127
1.17,0.0,77.50947567810488,0,100,3.0,0,0.00018763719019558933
1.175,0.0,77.50621278444058,0,100,3.0,0,0.0001230254344668898
1.18,0.0,77.50402402644141,0,100,3.0,0,7.968369190918322e-05
1.185,0.0,77.50257474319895,0,100,3.0,0,5.098501384056795e-05
1.19,0.0,77.50162744217775,0,100,3.0,0,3.222657777721924e-05
1.195,0.0,77.50101619199279,0,100,3.0,0,2.0122613718605393e-05
1.2,0.0,77.50062682242242,0,100,3.0,0,1.2412325196408455e-05
1.205,0.0,77.50038195467684,0,100,3.0,1,7.56345894732215e-06
1.21,0.0,77.50022992049958,0,100,3.0,1,4.552881179760973e-06
1.215,0.0,77.50013672316726,0,100,3.0,1,2.7073894506708647e-06
1.22,0.0,77.50008031655649,0,100,3.0,1,1.5904268612230947e-06
1.225,0.0,77.50004660865855,0,100,3.0,1,9.22943733672078e-07
1.23,0.0,77.50002671939872,0,100,3.0,1,5.29097004325852e-07
1.235,0.0,77.500015131616,0,100,3.0,1,2.996359603119993e-07
1.24,0.0,77.50000846530277,0,100,3.0,1,1.67629757819362e-07
1.245,0.0,77.50000467840951,0,100,3.0,1,9.264177248438176e-08
1.25,0.0,77.50000255418604,0,100,3.0,1,5.057794137743744e-08
1.255,0.001684486749771458,77.50000137754365,0,100,3.0,1,2.7278092163511912e-08
1.26,0.00456624331333666,77.5000007339336,0,100,3.0,1,1.4533338686521915e-08
1.265,0.011079731271581421,77.500000386284,0,100,3.0,1,7.649188125586728e-09
1.27,0.024064571490409,77.50000020084232,0,100,3.0,1,3.9770756896782906e-09
1.275,0.046784906529573234,77.50000010315784,0,100,3.0,1,2.0427296026310154e-09
1.28,0.08141644351188804,77.5000000523417,0,100,3.0,1,1.0364693921609173e-09
1.285,0.12682276464025305,77.50000002623567,0,100,3.0,1,5.195181754538455e-10
1.29,0.1768320708657512,77.50000001299077,0,100,3.0,1,2.57242922233141e-10
1.295,0.22070063230473494,77.50000000635443,0,100,3.0,1,1.2583022412805389e-10
1.3,0.24656126505113576,77.50000000307055,0,100,3.0,1,6.080304136967153e-11
1.305,0.24656126505724016,77.50000000146574,0,100,3.0,1,2.9024474792779507e-11
1.31,0.220700632329898,77.50000000069117,0,100,3.0,1,1.36866008075897e-11
1.315,0.17683207093748562,77.50000000032198,0,100,3.0,1,6.3757492135115204e-12
1.32,0.12682276483597799,77.50000000014816,0,100,3.0,1,2.9339083417959623e-12
1.325,0.08141644409447898,77.50000000006736,0,100,3.0,1,1.3338505217833169e-12
1.33,0.04678490952598309,77.50000000003025,0,100,3.0,1,5.991071225478231e-13
1.335,0.024064605020532023,77.50000000001342,0,100,3.0,1,2.656444921019939e-13
1.34,0.011080171739334697,77.50000000000588,0,100,3.0,1,1.165008683582897e-13
1.345,0.004571212771509492,77.50000000000254,0,100,3.0,1,5.037114839645859e-14
1.35,0.0017299316936037438,77.5000000000011,0,100,3.0,1,2.1668035902387214e-14
1.355,0.0008899431850697582,77.50000000000045,0,100,3.0,1,9.004898037355725e-15
1.36,0.002128806368910263,77.50000000000018,0,100,3.0,1,3.6582398276757634e-15
1.365,0.009309664818487698,77.50000000000009,0,100,3.0,1,1.6884183820041984e-15
1.37,0.03503263543368747,77.50000000000003,0,100,3.0,1,5.628061273347328e-16
1.375,0.10606267793605692,77.50000000000001,0,100,3.0,1,2.814030636673664e-16
1.38,0.25734927343160535,77.5,0,100,3.0,1,0.0
1.385,0.5003202479539708,77.5,0,100,3.0,1,0.0
1.39,0.7793067891790435,77.5,0,100,3.0,1,0.0
1.395,0.9720477407234077,77.50000295863794,1,100,3.0,1,5.858688981257584e-08
1.4,0.967267334488097,77.50000705382551,0,100,3.0,1,1.39679713129226e-07
1.405,0.7505869905515209,77.50001902543339,0,100,3.0,1,3.7674125522217126e-07
1.41,0.4028369574773956,77.5000615587088,0,100,3.0,1,1.2189843325453658e-06
1.415,0.04553881263121314,77.50023160766888,0,100,3.0,1,4.586290472870772e-06
1.42,-0.189138810908105,77.50092200089497,0,100,3.0,1,1.8257443464830936e-05
1.425,-0.22868072635956738,77.50358973522475,0,100,3.0,1,7.108386583663875e-05
1.43,-0.14104670682394166,77.5131059647251,0,100,3.0,1,0.00025952405396236205
1.435,-0.051158381651102834,77.54402912719091,0,100,3.0,1,0.0008718639047705019
1.44,-0.008206426846427752,77.63500465781877,0,100,3.0,1,0.0026733595607676968
1.445,0.005350271385530505,77.87649695456608,0,100,3.0,1,0.007455385238932258
1.45,0.01084668799215426,78.45342791113406,0,100,3.0,1,0.018879760616515973
1.455,0.016256859896386415,79.69080695348266,0,100,3.0,1,0.043382315910547795
1.46,0.02345021205790711,82.06617501621035,0,100,3.0,1,0.09041930725169013
1.465,0.0330621597308209,86.13087845737554,0,100,3.0,1,0.17090848430446623
1.47,0.04559141319943196,92.2936164643154,0,100,3.0,1,0.29294290028347336
1.475,0.06149084917446989,100.4931270168305,0,100,3.0,1,0.4553094458778317
1.48,0.08111733445924295,109.90654193845512,0,100,3.0,1,0.6417137017515866
1.485,0.1046628598272375,118.91969962154933,0,100,3.0,1,0.8201920717138481
1.49,0.1320831047748631,125.51577497707142,0,100,3.0,1,0.9508074252885429
1.495,0.16303381314489318,128.0,0,100,3.0,1,1.0
1.5,0.19682662652900276,125.71579008588697,0,100,3.0,1,0.9547681205126132
1.505,0.23241585813229,119.34324879327852,0,100,3.0,1,0.8285791840253172
1.51,0.26842527782774417,110.5979971739174,0,100,3.0,1,0.6554058846320279
1.515,0.30321927900592993,101.51363369323616,0,100,3.0,1,0.47551749887596356
1.52,0.3350163137995362,93.71710930994122,0,100,3.0,1,0.32113087742457863
1.525,0.3620352400956416,88.0408711759401,0,100,3.0,1,0.2087301222958435
1.53,0.3826586036805073,84.55286850593457,0,100,3.0,1,0.13966076249375384
1.535,0.39559233134833227,82.84748489696597,0,100,3.0,1,0.10589079003893002
1.54,0.4,82.37133282226496,0,100,3.0,1,0.09646203608445467
1.545,0.39559233134833227,82.63805034016156,0,100,3.0,1,0.10174357109230803
1.55,0.3826586036805073,83.30587334297871,0,100,3.0,1,0.11496778896987553
1.555,0.3620352400956416,84.16490713408541,0,100,3.0,1,0.13197835909080022
1.56,0.3350163137995362,85.0921950880515,0,100,3.0,1,0.15034049679309894
1.565,0.3032192790059296,86.01072621984261,0,100,3.0,1,0.16852923207609127
1.57,0.26842527782774417,86.86417440841791,0,100,3.0,1,0.18542919620629525
1.575,0.23241585813229,87.60559262371146,0,100,3.0,1,0.2001107450239893
1.58,0.19682662652900276,88.19456648085263,0,100,3.0,1,0.2117735936802501
1.585,0.16303381314489318,88.59825923824728,0,100,3.0,1,0.21976750966826297
1.59,0.13208310477486307,88.79360978800707,0,100,3.0,1,0.2236358373862787
1.595,0.10466285982723562,88.76927877568113,0,100,3.0,1,0.22315403516200258
1.6,0.08111733445917907,88.52667951771419,0,100,3.0,1,0.21835008945968684
1.605,0.06149084917398798,88.0798288762355,0,100,3.0,1,0.2095015619056534
1.61,0.04559141333598128,87.45400355470595,0,100,3.0,1,0.1971089812813059
1.615,0.03306217087257399,86.68337241155771,0,100,3.0,1,0.18184895864470718
1.62,0.02345067901074276,85.80791143717427,0,100,3.0,1,0.16451309776582712
1.625,0.016268788896435526,84.86998793217056,0,100,3.0,1,0.14594035509248632
1.63,0.011039026374860051,83.9110173452604,0,100,3.0,1,0.12695083852000802
1.635,0.007326255555493689,82.96855247346932,0,100,3.0,1,0.1082881677914716
1.64,0.0047556414315231815,82.07407279822225,0,100,3.0,1,0.09057569897469796
1.645,0.0030193390635632803,81.25162151282318,0,100,3.0,1,0.07428953490738965
1.65,0.001874953127946523,80.51731199682195,0,100,3.0,1,0.059748752412315746
1.655,0.0011387927410965778,79.87961489221692,0,100,3.0,1,0.047121086974592497
1.66,0.0006765107634274089,79.34025664052957,0,100,3.0,1,0.036440725555041076
1.665,0.00039307957404427924,78.89551775269611,0,100,3.0,1,0.027634014904873425
1.67,0.00022338910511776318,78.53771380517617,0,100,3.0,1,0.02054878822131025
1.675,0.00012417073320013317,78.25666749841467,0,100,3.0,1,0.014983514820092506
1.68,6.750753468904987e-05,78.04102560834315,0,100,3.0,1,0.010713378383032629
1.685,3.5897234866245036e-05,77.87932880329069,0,100,3.0,1,0.007511461451300793
1.69,1.8670050400879738e-05,77.76079488933377,0,100,3.0,1,0.005164255234332007
1.695,9.497421874143672e-06,77.67581972189748,0,100,3.0,1,0.003481578651435304
1.7,4.725434140340885e-06,77.61623083499478,0,100,3.0,1,0.0023016006929659546
1.705,2.299606063738814e-06,77.5753460316081,0,100,3.0,1,0.00149200062590309
1.71,1.0945633976635486e-06,77.54789439215395,0,100,3.0,1,0.0009484038050287057
1.715,5.095703414287532e-07,77.5298534278326,0,100,3.0,1,0.0005911569867842756
1.72,2.3202944964797243e-07,77.51824689616652,0,100,3.0,1,0.0003613246765646839
1.725,1.0333746954038608e-07,77.5109362657051,0,100,3.0,1,0.00021655971693263328
1.73,4.501406988770349e-08,77.50642738570303,0,100,3.0,1,0.00012727496441652199
1.735,0.0,77.50370411898086,0,100,3.0,1,7.334889071016462e-05
1.74,0.0,77.502093248318,0,100,3.0,1,4.1450461742667835e-05
1.745,0.0,77.5011599568401,0,100,3.0,1,2.2969442378181687e-05
1.75,0.0,77.50063030124682,0,100,3.0,1,1.248121280822137e-05
1.755,0.0,77.50033584567429,0,100,3.0,1,6.650409391800122e-06
1.76,0.0,77.50017547554839,0,100,3.0,1,3.474763334429779e-06
1.765,0.001684486749771458,77.50008990393783,0,100,3.0,1,1.7802759967113648e-06
1.77,0.00456624331333666,77.50004516750249,0,100,3.0,1,8.944059899395953e-07
1.775,0.011079731271581421,77.50002225146947,0,100,3.0,1,4.406231579029583e-07
1.78,0.024064571490409,77.50001074921063,0,100,3.0,1,2.1285565605809313e-07
1.785,0.046784906529573234,77.50000509189812,0,100,3.0,1,1.0082966569051236e-07
1.79,0.08141644351188804,77.50000236520123,0,100,3.0,1,4.6835667841277074e-08
1.795,0.12682276464025305,77.5000010773126,0,100,3.0,1,2.1332922842972974e-08
1.8,0.1768320708657512,77.50000048117234,0,100,3.0,1,9.528165064423747e-09
1.805,0.22070063230473494,77.50000021073895,0,100,3.0,1,4.173048441456071e-09
1.81,0.24656126505113576,77.50000009050534,0,100,3.0,1,1.792184917522349e-09
1.815,0.24656126505724016,77.50000003811438,0,100,3.0,1,7.547401823427605e-10
1.82,0.220700632329898,77.50000001573942,0,100,3.0,1,3.116716214046193e-10
1.825,0.17683207093748562,77.50000000637344,0,100,3.0,1,1.2620674142724082e-10
1.83,0.12682276483597799,77.50000000253073,0,100,3.0,1,5.011338319013928e-11
1.835,0.08141644409447898,77.50000000098537,0,100,3.0,1,1.951220703163152e-11
1.84,0.04678490952598309,77.50000000037622,0,100,3.0,1,7.449864707529858e-12
1.845,0.024064605020532023,77.50000000014086,0,100,3.0,1,2.7892671670709357e-12
1.85,0.011080171739334697,77.50000000005171,0,100,3.0,1,1.0240257486855464e-12
1.855,0.004571212771509492,77.50000000001862,0,100,3.0,1,3.6863801340425e-13
1.86,0.0017299316936037438,77.50000000000657,0,100,3.0,1,1.3000821541432327e-13
1.865,0.0008899431850697582,77.50000000000227,0,100,3.0,1,4.502449018677863e-14
1.87,0.002128806368910263,77.50000000000077,0,100,3.0,1,1.5195765438037787e-14
1.875,0.009309664818487698,77.50000000000026,0,100,3.0,1,5.065255146012595e-15
1.88,0.03503263543368747,77.50000000000009,0,100,3.0,1,1.6884183820041984e-15
1.885,0.10606267793605692,77.50000000000003,0,100,3.0,1,5.628061273347328e-16
1.89,0.25734927343160535,77.50000000000001,0,100,3.0,1,2.814030636673664e-16
1.895,0.5003202479539708,77.5,0,100,3.0,1,0.0
1.9,0.7793067891790435,77.5,0,100,3.0,1,0.0
1.905,0.9720477407234077,77.5000029632167,1,100,3.0,1,5.867755844249559e-08
1.91,0.967267334488097,77.50000611949993,0,100,3.0,1,1.2117821641611342e-07
1.915,0.7505869905515209,77.5000136661605,0,100,3.0,1,2.706170395714874e-07
1.92,0.4028369574773956,77.50003448761683,0,100,3.0,1,6.829231055424244e-07
1.925,0.04553881263121314,77.50009893563154,0,100,3.0,1,1.9591214166635243e-06
1.93,-0.189138810908105,77.50030887479707,0,100,3.0,1,6.1163326152625205e-06
1.935,-0.22868072635956738,77.50098936987865,0,100,3.0,1,1.9591482745598493e-05
1.94,-0.14104670682394166,77.50311109919818,0,100,3.0,1,6.160592471641763e-05
1.945,-0.051158381651102834,77.50936430658398,0,100,3.0,1,0.00018543181354407307
1.95,-0.008206426846427752,77.52663503308537,0,100,3.0,1,0.0005274263977300939
1.955,0.005350271385530505,77.57113795423459,0,100,3.0,1,0.0014086723610809244
1.96,0.01084668799215426,77.67785621339104,0,100,3.0,1,0.003521905215664127
1.965,0.016256859896386415,77.9156022259755,0,100,3.0,1,0.008229747049019897
1.97,0.02345021205790711,78.4069380257099,0,100,3.0,1,0.017959168825938725
1.975,0.0330621597308209,79.34748987799968,0,100,3.0,1,0.036583957980191636
1.98,0.04559141319943196,81.01228362930992,0,100,3.0,1,0.06955017087742416
1.985,0.06149084917446989,83.73079902637203,0,100,3.0,1,0.12338215893805991
1.99,0.08111733445924295,87.81367872264438,0,100,3.0,1,0.20423126183454224
1.995,0.1046628598272375,93.4288216152286,0,100,3.0,1,0.3154222102025465
2.0,0.1320831047748631,100.45351412056698,0,100,3.0,1,0.4545250320904352
2.005,0.16303381314489318,108.36134960751014,0,100,3.0,1,0.6111158338120819
2.01,0.19682662652900276,116.21652194472324,0,100,3.0,1,0.7666638008856087
2.015,0.23241585813229,122.82360122088085,0,100,3.0,1,0.8974970538788286
2.02,0.26842527782774417,127.01713839847308,0,100,3.0,1,0.9805373940291698
2.025,0.30321927900592993,128.0,0,100,3.0,1,1.0
2.03,0.3350163137995362,125.59701682575721,0,100,3.0,1,0.9524161747674694
2.035,0.3620352400956416,120.3140247604608,0,100,3.0,1,0.8478024705041742
2.04,0.3826586036805073,113.17578272521496,0,100,3.0,1,0.7064511430735635
2.045,0.39559233134833227,105.41460450461524,0,100,3.0,1,0.5527644456359454
2.05,0.4,98.1397912084383,0,100,3.0,1,0.40870873680075837
2.055,0.39559233134833227,92.10783014594557,0,100,3.0,1,0.2892639632860509
2.06,0.3826586036805073,87.64951021194136,0,100,3.0,1,0.2009804002364626
2.065,0.3620352400956416,84.73520644729147,0,100,3.0,1,0.143271414797851
2.07,0.3350163137995362,83.11302488416099,0,100,3.0,1,0.11114900760714837
2.075,0.3032192790059296,82.45012180045974,0,100,3.0,1,0.09802221387048991
2.08,0.26842527782774417,82.43311100444015,0,100,3.0,1,0.09768536642455743
2.085,0.23241585813229,82.8162323398421,0,100,3.0,1,0.10527192752162579
2.09,0.19682662652900276,83.42866618321837,0,100,3.0,1,0.11739933036075977
2.095,0.16303381314489318,84.1600622480566,0,100,3.0,1,0.13188242075359613
2.1,0.13208310477486307,84.940236624999,0,100,3.0,1,0.14733141831681193
2.105,0.10466285982723562,85.72195777553705,0,100,3.0,1,0.1628110450601396
2.11,0.08111733445917907,86.4696633299647,0,100,3.0,1,0.1776170956428654
2.115,0.06149084917398798,87.15353818842898,0,100,3.0,1,0.19115917204809865
2.12,0.04559141333598128,87.74725089071974,0,100,3.0,1,0.2029158592221731
2.125,0.03306217087257399,88.22774168238095,0,100,3.0,1,0.21243052836397924
2.13,0.02345067901074276,88.57593914149084,0,100,3.0,1,0.21932552755427395
2.135,0.016268788896435526,88.77773137510404,0,100,3.0,1,0.2233214133683968
2.14,0.011039026374860051,88.82481855964929,0,100,3.0,1,0.22425383286434233
2.145,0.007326255555493689,88.71524935893723,0,100,3.0,1,0.22208414572152926
2.15,0.0047556414315231815,88.45354650959632,0,100,3.0,1,0.21690191108111528
2.155,0.0030193390635632803,88.05039484238684,0,100,3.0,1,0.20891870975023438
2.16,0.001874953127946523,87.52191701266186,0,100,3.0,1,0.1984538022309279
2.165,0.0011387927410965778,86.88860404516025,0,100,3.0,1,0.18591295138931188
2.17,0.0006765107634274089,86.17399918548756,0,100,3.0,1,0.17176236010866455
2.175,0.00039307957404427924,85.40325259759987,0,100,3.0,1,0.15650005143762127
2.18,0.00022338910511776318,84.60166988532686,0,100,3.0,1,0.14062712644211597
2.185,0.00012417073320013317,83.79336949573046,0,100,3.0,1,0.12462117813327643
2.19,6.750753468904987e-05,83.00014467233905,0,100,3.0,1,0.10891375588790192
2.195,3.5897234866245036e-05,82.2405979846216,0,100,3.0,1,0.09387322741824954
2.2,1.8670050400879738e-05,81.52958456421845,0,100,3.0,1,0.07979375374690006
2.205,9.497421874143672e-06,80.8779681711764,0,100,3.0,1,0.06689045883517634
2.21,4.725434140340885e-06,80.29266578507671,0,100,3.0,1,0.05530031257577638
2.215,2.299606063738814e-06,79.77693434234938,0,100,3.0,1,0.045087808759393624
2.22,1.0945633976635486e-06,79.33083911757771,0,100,3.0,1,0.03625423995203387
2.225,5.095703414287532e-07,78.95183743607637,0,100,3.0,1,0.028749256159928207
2.23,2.3202944964797243e-07,78.63541317800785,0,100,3.0,1,0.022483429267482213
2.235,1.0333746954038608e-07,78.3757053491493,0,100,3.0,1,0.017340699983154448
2.24,4.501406988770349e-08,78.16608584846017,0,100,3.0,1,0.013189818781389513
2.245,0.0,77.99965535153865,0,100,3.0,1,0.00989416537700296
2.25,0.0,77.86964004284735,0,100,3.0,1,0.007319604808858435
2.255,0.0,77.7696842680522,0,100,3.0,1,0.005340282535687178
2.26,0.0,77.69404405685896,0,100,3.0,1,0.0038424565714644857
2.265,0.0,77.63769342762592,0,100,3.0,1,0.0027266025272459243
2.27,0.0,77.59635942692422,0,100,3.0,1,0.0019081074638460122
2.275,0.0,77.56650332172448,0,100,3.0,1,0.0013168974598907444
2.28,0.0,77.54526479938636,0,100,3.0,1,0.0008963326611160258
2.285,0.0,77.53038407321809,0,100,3.0,1,0.0006016648161997493
2.29,0.0,77.52011404975813,0,100,3.0,1,0.0003982980150125725
2.295,0.0,77.51313170683527,0,100,3.0,1,0.0002600337987181626
2.3,0.0,77.50845494854985,0,100,3.0,1,0.0001674247237594887
2.305,0.0,77.5053686969771,0,100,3.0,1,0.00010631083122971762
2.31,0.0,77.50336197861758,0,100,3.0,1,6.6573834011411e-05
2.315,0.0,77.50207629536354,0,100,3.0,1,4.1114759673998586e-05
2.32,0.0,77.5012645949802,0,100,3.0,1,2.5041484756421046e-05
2.325,0.0,77.50075959466382,0,100,3.0,1,1.5041478491465937e-05
2.33,0.0,77.50044996681824,0,100,3.0,1,8.910234024507182e-06
2.335,0.0,77.50026287374051,0,100,3.0,1,5.205420604165783e-06
2.34,0.0,77.50015145445519,0,100,3.0,1,2.9990981226213685e-06
2.345,0.0,77.5000860567684,0,100,3.0,1,1.7040944236790586e-06
2.35,0.0,77.50004822321333,0,100,3.0,1,9.549151153769704e-07
2.355,0.0,77.50002664988816,0,100,3.0,1,5.277205575409182e-07
2.36,0.0,77.50001452455274,0,100,3.0,1,2.87614905726802e-07
2.365,0.0,77.50000780689389,0,100,3.0,1,1.545919582269454e-07
2.37,0.001684486749771458,77.5000041382995,0,100,3.0,1,8.194652479579589e-08
2.375,0.00456624331333666,77.5000021633844,0,100,3.0,1,4.2839294936507795e-08
2.38,0.011079731271581421,77.50000111535623,0,100,3.0,1,2.2086261919461736e-08
2.385,0.024064571490409,77.50000056710259,0,100,3.0,1,1.1229754235419834e-08
2.39,0.046784906529573234,77.5000002843661,0,100,3.0,1,5.631011784469881e-09
2.395,0.08141644351188804,77.50000014062486,0,100,3.0,1,2.784650749811473e-09
2.4,0.12682276464025305,77.5000000685827,0,100,3.0,1,1.3580731346976763e-09
2.405,0.1768320708657512,77.5000000329864,0,100,3.0,1,6.53196168221455e-10
2.41,0.22070063230473494,77.50000001564673,0,100,3.0,2,3.0983631062338077e-10
2.415,0.24656126505113576,77.50000000731949,0,100,3.0,2,1.4494030618170475e-10
2.42,0.24656126505724016,77.5000000033768,0,100,3.0,2,6.686727739170327e-11
2.425,0.220700632329898,77.50000000153638,0,100,3.0,2,3.042332942226998e-11
2.43,0.17683207093748562,77.50000000068938,0,100,3.0,2,1.3651144021567612e-11
2.435,0.12682276483597799,77.50000000030506,0,100,3.0,2,6.0408795677473545e-12
2.44,0.08141644409447898,77.50000000013313,0,100,3.0,2,2.6361839004358887e-12
2.445,0.04678490952598309,77.5000000000573,0,100,3.0,2,1.1346171527068214e-12
2.45,0.024064605020532023,77.50000000002431,0,100,3.0,2,4.81480641934864e-13
2.455,0.011080171739334697,77.50000000001017,0,100,3.0,2,2.0148459358583435e-13
2.46,0.004571212771509492,77.5000000000042,0,100,3.0,2,8.329530684554046e-14
2.465,0.0017299316936037438,77.5000000000017,0,100,3.0,2,3.376836764008397e-14
2.47,0.0008899431850697582,77.50000000000068,0,100,3.0,2,1.3507347056033587e-14
2.475,0.002128806368910263,77.50000000000027,0,100,3.0,2,5.346658209679962e-15
2.48,0.009309664818487698,77.5000000000001,0,100,3.0,2,1.969821445671565e-15
2.485,0.03503263543368747,77.50000000000004,0,100,3.0,2,8.442091910020992e-16
2.49,0.10606267793605692,77.50000000000001,0,100,3.0,2,2.814030636673664e-16
2.495,0.25734927343160535,77.5,0,100,3.0,2,0.0
2.5,0.5003202479539708,77.5,0,100,3.0,2,0.0
2.505,0.7793067891790435,77.5,0,100,3.0,2,0.0
2.51,0.9720477407234077,77.50000296249844,1,100,3.0,2,5.866333548744865e-08
2.515,0.967267334488097,77.50000623791465,0,100,3.0,2,1.2352306231771917e-07
2.52,0.7505869905515209,77.50001428061503,0,100,3.0,2,2.827844561111441e-07
2.525,0.4028369574773956,77.50003723221408,0,100,3.0,2,7.372715660071348e-07
2.53,0.04553881263121314,77.5001108437001,0,100,3.0,2,2.194924754443455e-06
2.535,-0.189138810908105,77.5003583964972,0,100,3.0,2,7.096960340696019e-06
2.54,-0.22868072635956738,77.501182171344,0,100,3.0,2,2.340933354452597e-05
2.545,-0.14104670682394166,77.50380467824786,0,100,3.0,2,7.534016332396512e-05
2.55,-0.051158381651102834,77.51165782593294,0,100,3.0,2,0.00023084803827609813
2.555,-0.008206426846427752,77.5335966224769,0,100,3.0,2,0.0006652796530080524
2.56,0.005350271385530505,77.59053331272185,0,100,3.0,2,0.0017927388657791189
2.565,0.01084668799215426,77.72746904695667,0,100,3.0,2,0.00450433756349843
2.57,0.016256859896386415,78.03213843050357,0,100,3.0,2,0.01053739466343693
2.575,0.02345021205790711,78.65824858789371,0,100,3.0,2,0.022935615601855627
2.58,0.0330621597308209,79.8447054890364,0,100,3.0,2,0.04642981166408713
2.585,0.04559141319943196,81.91361678160214,0,100,3.0,2,0.08739835211093355
2.59,0.06149084917446989,85.22452481350312,0,100,3.0,2,0.15296088739610145
2.595,0.08111733445924295,90.06880030306164,0,100,3.0,2,0.2488871347140918
2.6,0.1046628598272375,96.51294300837715,0,100,3.0,2,0.37649392095796336
2.605,0.1320831047748631,104.23854785834601,0,100,3.0,2,0.5294761952147725
2.61,0.16303381314489318,112.45984400219734,0,100,3.0,2,0.6922741386573731
2.615,0.19682662652900276,119.9980053094794,0,100,3.0,2,0.8415446595936514
2.62,0.23241585813229,125.53757473601254,0,100,3.0,2,0.9512391036834167
2.625,0.26842527782774417,128.0,0,100,3.0,2,1.0
2.63,0.30321927900592993,126.89180836635488,0,100,3.0,2,0.9780556112149481
2.635,0.3350163137995362,122.4744115695857,0,100,3.0,2,0.8905824073185287
2.64,0.3620352400956416,115.6764248123543,0,100,3.0,2,0.7559688081654317
2.645,0.3826586036805073,107.78956631187174,0,100,3.0,2,0.5997933923142919
2.65,0.39559233134833227,100.08516728784107,0,100,3.0,2,0.4472310354027935
2.655,0.4,93.50661991231735,0,100,3.0,2,0.3169627705409376
2.66,0.39559233134833227,88.53287890241118,0,100,3.0,2,0.21847284955269672
2.665,0.3826586036805073,85.21553134284277,0,100,3.0,2,0.15278279886817359
2.67,0.3620352400956416,83.32232502267858,0,100,3.0,2,0.1152935648055165
2.675,0.3350163137995362,82.50166604103804,0,100,3.0,2,0.09904289190174327
2.68,0.3032192790059296,82.40734321991523,0,100,3.0,2,0.09717511326564819
2.685,0.26842527782774417,82.76277175392498,0,100,3.0,2,0.1042133020579204
2.69,0.23241585813229,83.37479852576797,0,100,3.0,2,0.1163326440746133
2.695,0.19682662652900276,84.11928489680142,0,100,3.0,2,0.1310749484515132
2.7,0.16303381314489318,84.91824422362451,0,100,3.0,2,0.14689592522028738
2.705,0.13208310477486307,85.71996481329595,0,100,3.0,2,0.16277158046130585
2.71,0.10466285982723562,86.48593626724252,0,100,3.0,2,0.1779393320246044
2.715,0.08111733445917907,87.18404127410177,0,100,3.0,2,0.19176319354656976
2.72,0.06149084917398798,87.78600746918313,0,100,3.0,2,0.20368331622144817
2.725,0.04559141333598128,88.26721388243585,0,100,3.0,2,0.2132121560878387
2.73,0.03306217087257399,88.60753321720543,0,100,3.0,2,0.2199511528159491
2.735,0.02345067901074276,88.79243107822423,0,100,3.0,2,0.22361249659849952
2.74,0.016268788896435526,88.81389846101516,0,100,3.0,2,0.22403759328742884
2.745,0.011039026374860051,88.67099812814219,0,100,3.0,2,0.22120788372558786
2.75,0.007326255555493689,88.36992451308627,0,100,3.0,2,0.21524602996210446
2.755,0.0047556414315231815,87.92355634630057,0,100,3.0,2,0.20640705636238757
2.76,0.0030193390635632803,87.35054249369495,0,100,3.0,2,0.1950602473998999
2.765,0.001874953127946523,86.67401021165833,0,100,3.0,2,0.18166356854768964
2.77,0.0011387927410965778,85.92002012496754,0,100,3.0,2,0.16673307178153537
2.775,0.0006765107634274089,85.11591134258094,0,100,3.0,2,0.15081012559566226
2.78,0.00039307957404427924,84.28868206654177,0,100,3.0,2,0.13442934785231223
2.785,0.00022338910511776318,83.46353675053035,0,100,3.0,2,0.11808983664416539
2.79,0.00012417073320013317,82.66270333596,0,100,3.0,2,0.10223174922693076
2.795,6.750753468904987e-05,81.90458788413636,0,100,3.0,2,0.08721956206210617
2.8,3.5897234866245036e-05,81.20329432496659,0,100,3.0,2,0.07333256089042757
2.805,1.8670050400879738e-05,80.5684992351286,0,100,3.0,2,0.06076236109165541
2.81,9.497421874143672e-06,80.00563985868109,0,100,3.0,2,0.04961663086497214
2.815,4.725434140340885e-06,79.51635092389155,0,100,3.0,2,0.03992774106715943
2.82,2.299606063738814e-06,79.0990735069262,0,100,3.0,2,0.03166482191933075
2.825,1.0945633976635486e-06,78.74975699852942,0,100,3.0,2,0.024747663337216248
2.83,5.095703414287532e-07,78.46258162434901,0,100,3.0,2,0.0190610222643369
2.835,2.3202944964797243e-07,78.23064160050076,0,100,3.0,2,0.014468150504965555
2.84,1.0333746954038608e-07,78.0465451756297,0,100,3.0,2,0.01082267674514263
2.845,4.501406988770349e-08,77.9029049232077,0,100,3.0,2,0.007978315311043564
2.85,0.0,77.792707549016,0,100,3.0,2,0.005796189089425757
2.855,0.0,77.70956565642611,0,100,3.0,2,0.004149814978734806
2.86,0.0,77.64786355410972,0,100,3.0,2,0.0029279911704894867
2.865,0.0,77.60281512541162,0,100,3.0,2,0.0020359430774578983
2.87,0.0,77.57045433470391,0,100,3.0,2,0.0013951353406714971
2.875,0.0,77.54757877616558,0,100,3.0,2,0.0009421539834768215
2.88,0.0,77.5316645744132,0,100,3.0,2,0.0006270212755088895
2.885,0.0,77.5207677230544,0,100,3.0,2,0.00041124204068128704
2.89,0.0,77.51342328935382,0,100,3.0,2,0.00026580770997671236
2.895,0.0,77.50855034936433,0,100,3.0,2,0.00016931384879856045
2.9,0.0,77.50536739563128,0,100,3.0,2,0.00010628506200558573
2.905,0.0,77.50332045956841,0,100,3.0,2,6.575167462205902e-05
2.91,0.0,77.50202435942687,0,100,3.0,2,4.008632528453826e-05
2.915,0.0,77.50121627531419,0,100,3.0,2,2.4084659686974587e-05
2.92,0.0,77.50072016332395,0,100,3.0,2,1.4260659880149135e-05
2.925,0.0,77.50042022796278,0,100,3.0,2,8.321345797576844e-06
2.93,0.0,77.50024165385936,0,100,3.0,2,4.785224937864264e-06
2.935,0.0,77.50013694852625,0,100,3.0,2,2.7118520048958036e-06
2.94,0.0,77.50007648492242,0,100,3.0,2,1.5145529191456019e-06
2.945,0.0,77.50004209680522,0,100,3.0,2,8.336001033035471e-07
2.95,0.0,77.50002283375228,0,100,3.0,2,4.5215351054922745e-07
2.955,0.0,77.50001220563202,0,100,3.0,2,2.416956835243735e-07
2.96,0.001684486749771458,77.5000064298094,0,100,3.0,2,1.2732295847782363e-07
2.965,0.00456624331333666,77.50000333803408,0,100,3.0,2,6.609968468723364e-08
2.97,0.011079731271581421,77.50000170780497,0,100,3.0,2,3.381792018696822e-08
2.975,0.024064571490409,77.50000086107428,0,100,3.0,2,1.7050975918326652e-08
2.98,0.046784906529573234,77.50000042785618,0,100,3.0,2,8.472399582784095e-09
2.985,0.08141644351188804,77.50000020951245,0,100,3.0,2,4.148761387240132e-09
2.99,0.12682276464025305,77.50000010110594,0,100,3.0,2,2.0020978142680844e-09
2.995,0.1768320708657512,77.50000004808376,0,100,3.0,2,9.52153717806519e-10
3.0,0.22070063230473494,77.5000000225359,0,100,3.0,2,4.46255450634174e-10
3.005,0.24656126505113576,77.50000001040894,0,100,3.0,2,2.0611761362605386e-10
3.01,0.24656126505724016,77.50000000473797,0,100,3.0,2,9.38211884420183e-11
3.015,0.220700632329898,77.50000000212536,0,100,3.0,2,4.2086360799027655e-11
3.02,0.17683207093748562,77.50000000093956,0,100,3.0,2,1.8605244957431598e-11
3.025,0.12682276483597799,77.50000000040933,0,100,3.0,2,8.105533845874822e-12
3.03,0.08141644409447898,77.50000000017575,0,100,3.0,2,3.4801116883743206e-12
3.035,0.04678490952598309,77.50000000007437,0,100,3.0,2,1.4725822321713284e-12
3.04,0.024064605020532023,77.50000000003101,0,100,3.0,2,6.140214849221935e-13
3.045,0.011080171739334697,77.50000000001275,0,100,3.0,2,2.5241854810962767e-13
3.05,0.004571212771509492,77.50000000000516,0,100,3.0,2,1.0214931211125401e-13
3.055,0.0017299316936037438,77.50000000000206,0,100,3.0,2,4.080344423176813e-14
3.06,0.0008899431850697582,77.50000000000081,0,100,3.0,2,1.6039974629039884e-14
3.065,0.002128806368910263,77.50000000000031,0,100,3.0,2,6.190867400682061e-15
3.07,0.009309664818487698,77.50000000000011,0,100,3.0,2,2.2512245093389313e-15
3.075,0.03503263543368747,77.50000000000004,0,100,3.0,2,8.442091910020992e-16
3.08,0.10606267793605692,77.50000000000001,0,100,3.0,2,2.814030636673664e-16
3.085,0.25734927343160535,77.5,0,100,3.0,2,0.0
3.09,0.5003202479539708,77.5,0,100,3.0,2,0.0
3.095,0.7793067891790435,77.5,0,100,3.0,2,0.0
3.1,0.9720477407234077,77.5000029632167,1,100,3.0,2,5.867755844249559e-08
3.105,0.967267334488097,77.5000057751259,0,100,3.0,2,1.1435892869854743e-07
3.11,0.7505869905515209,77.50001199175011,0,100,3.0,2,2.3746039829293835e-07
3.115,0.4028369574773956,77.50002751992237,0,100,3.0,2,5.449489578094841e-07
3.12,0.04553881263121314,77.50007070106201,0,100,3.0,2,1.4000210299936142e-06
3.125,-0.189138810908105,77.50019813608883,0,100,3.0,2,3.9234869074568835e-06
3.13,-0.22868072635956738,77.50057818202339,0,100,3.0,2,1.144914897800431e-05
3.135,-0.14104670682394166,77.50168586741358,0,100,3.0,2,3.3383513140290576e-05
3.14,-0.051158381651102834,77.5047820690373,0,100,3.0,2,9.469443638226498e-05
3.145,-0.008206426846427752,77.51300007149011,0,100,3.0,2,0.00025742715822002987
3.15,0.005350271385530505,77.53360476810788,0,100,3.0,2,0.0006654409526312507
3.155,0.01084668799215426,77.58226524038565,0,100,3.0,2,0.0016290146611020258
3.16,0.016256859896386415,77.69031446440876,0,100,3.0,2,0.0037686032556189615
3.165,0.02345021205790711,77.9156022259755,0,100,3.0,2,0.008229747049019897
3.17,0.0330621597308209,78.35618586329275,0,100,3.0,2,0.016954175510747547
3.175,0.04559141319943196,79.16338774532016,0,100,3.0,2,0.03293837119445871
3.18,0.06149084917446989,80.54697677121837,0,100,3.0,2,0.06033617368749244
3.185,0.08111733445924295,82.76193692058763,0,100,3.0,2,0.10419677070470554
3.19,0.1046628598272375,86.06632239589023,0,100,3.0,2,0.1696301464532718
3.195,0.1320831047748631,90.64618514458124,0,100,3.0,2,0.2603204979124998
3.2,0.16303381314489318,96.51755276989908,0,100,3.0,2,0.37658520336433826
3.205,0.19682662652900276,103.43337691048391,0,100,3.0,2,0.5135322160491864
3.21,0.23241585813229,110.83650493935875,0,100,3.0,2,0.6601288106803712
3.215,0.26842527782774417,117.89739331976155,0,100,3.0,2,0.7999483825695356
3.22,0.30321927900592993,123.65167505875493,0,100,3.0,2,0.9138945556189095
3.225,0.3350163137995362,127.21320863734229,0,100,3.0,2,0.984419973016679
3.23,0.3620352400956416,128.0,0,100,3.0,2,1.0
3.235,0.3826586036805073,125.89439684457138,0,100,3.0,2,0.9583048880113143
3.24,0.39559233134833227,121.27734577653152,0,100,3.0,2,0.8668781341887429
3.245,0.4,114.92344206600626,0,100,3.0,2,0.7410582587327972
3.25,0.39559233134833227,107.79691013430045,0,100,3.0,2,0.5999388145406029
3.255,0.3826586036805073,100.82266697370292,0,100,3.0,2,0.4618349895782757
3.26,0.3620352400956416,94.70661957252793,0,100,3.0,2,0.34072514005005794
3.265,0.3350163137995362,89.84941816370699,0,100,3.0,2,0.2445429339347918
3.27,0.3032192790059296,86.35636014773148,0,100,3.0,2,0.17537346827191047
3.275,0.26842527782774417,84.11343960508452,0,100,3.0,2,0.13095920010068363
3.28,0.23241585813229,82.88714208485197,0,100,3.0,2,0.10667608088815789
3.285,0.19682662652900276,82.41251134980615,0,100,3.0,2,0.09727745247140895
3.29,0.16303381314489318,82.45099200146763,0,100,3.0,2,0.09803944557361635
3.295,0.13208310477486307,82.8162323398421,0,100,3.0,2,0.10527192752162579
3.3,0.10466285982723562,83.37622289337803,0,100,3.0,2,0.11636084937382234
3.305,0.08111733445917907,84.04294535759365,0,100,3.0,2,0.12956327440779508
3.31,0.06149084917398798,84.75858818303747,0,100,3.0,2,0.14373441946608861
3.315,0.04559141333598128,85.4835482932493,0,100,3.0,2,0.1580900652128574
3.32,0.03306217087257399,86.18809782060332,0,100,3.0,2,0.17204154100204588
3.325,0.02345067901074276,86.84758514710228,0,100,3.0,2,0.18510069598222334
3.33,0.016268788896435526,87.44024089333156,0,100,3.0,2,0.19683645333329827
3.335,0.011039026374860051,87.94659384418057,0,100,3.0,2,0.2068632444392192
3.34,0.007326255555493689,88.34973107038635,0,100,3.0,2,0.2148461598096308
3.345,0.0047556414315231815,88.6359020647416,0,100,3.0,2,0.22051291217310098
3.35,0.0030193390635632803,88.79516897178708,0,100,3.0,2,0.2236667123126154
3.355,0.001874953127946523,88.8219336995392,0,100,3.0,2,0.22419670692156835
3.36,0.0011387927410965778,88.71524935893723,0,100,3.0,2,0.22208414572152926
3.365,0.0006765107634274089,88.47887116054635,0,100,3.0,2,0.21740338931774947
3.37,0.00039307957404427924,88.12103561282021,0,100,3.0,2,0.21031753688752888
3.375,0.00022338910511776318,87.65398370746026,0,100,3.0,2,0.20106898430614367
3.38,0.00012417073320013317,87.09326584850498,0,100,3.0,2,0.18996566036643533
3.385,6.750753468904987e-05,86.45688333992547,0,100,3.0,2,0.1773640265331776
3.39,3.5897234866245036e-05,85.76433238765725,0,100,3.0,2,0.16365014629024255
3.395,1.8670050400879738e-05,85.03562111892845,0,100,3.0,2,0.14922022017680092
3.4,9.497421874143672e-06,84.29032800874867,0,100,3.0,2,0.13446194076730048
3.405,4.725434140340885e-06,83.54676196678626,0,100,3.0,2,0.11973786072844086
3.41,2.299606063738814e-06,82.82127143199685,0,100,3.0,2,0.10537171152469006
3.415,1.0945633976635486e-06,82.12773383300559,0,100,3.0,2,0.09163829372288303
3.42,5.095703414287532e-07,81.47723957849853,0,100,3.0,2,0.07875721937620844
3.425,2.3202944964797243e-07,80.8779681711764,0,100,3.0,2,0.06689045883517634
3.43,1.0333746954038608e-07,80.33523965205595,0,100,3.0,2,0.056143359446652406
3.435,4.501406988770349e-08,79.85171351657259,0,100,3.0,2,0.04656858448658589
3.44,0.0,79.4277001310269,0,100,3.0,2,0.03817227982231477
3.445,0.0,79.06154663501417,0,100,3.0,2,0.030921715544834995
3.45,0.0,78.75006000694432,0,100,3.0,2,0.024753663503847993
3.455,0.0,78.48893371593002,0,100,3.0,2,0.019582845860000333
3.46,0.0,78.27315029611424,0,100,3.0,2,0.015309906853747291
3.465,0.0,78.09733930154225,0,100,3.0,2,0.01182850102063859
3.47,0.0,77.95607752728124,0,100,3.0,2,0.009031238163984908
3.475,0.0,77.84412535886558,0,100,3.0,2,0.006814363541892725
3.48,0.0,77.75659908390251,0,100,3.0,2,0.005081169978267619
3.485,0.0,77.68908363648295,0,100,3.0,2,0.0037442304254049156
3.49,0.0,77.63769342762592,0,100,3.0,2,0.0027266025272459243
3.495,0.0,77.59909069997673,0,100,3.0,2,0.001962192078747081
3.5,0.0,77.57047141662967,0,100,3.0,2,0.001395473596627178
3.505,0.0,77.54952831210755,0,100,3.0,2,0.0009807586555951383
3.51,0.0,77.53439968565549,0,100,3.0,2,0.0006811818941680531
3.515,0.0,77.52361107934098,0,100,3.0,2,0.0004675461255639747
3.52,0.0,77.51601539400482,0,100,3.0,2,0.0003171365149470229
3.525,0.0,77.5107354396466,0,100,3.0,2,0.00021258296329891224
3.53,0.0,77.5071115204345,0,100,3.0,2,0.00014082218682190587
3.535,0.0,77.50465549120143,0,100,3.0,2,9.218794458283044e-05
3.54,0.0,77.50301181976099,0,100,3.0,2,5.963999526703348e-05
3.545,0.0,77.50192554142846,0,100,3.0,2,3.812953323688924e-05
3.55,0.0,77.50121657020485,0,100,3.0,2,2.409049910586801e-05
3.555,0.0,77.50075959466382,0,100,3.0,2,1.5041478491465937e-05
3.56,0.0,77.5004686914755,0,100,3.0,2,9.281019316912903e-06
3.565,0.0,77.50028579368261,0,100,3.0,2,5.659280843712965e-06
3.57,0.0,77.50017221802912,0,100,3.0,2,3.410258002396845e-06
3.575,0.0,77.50010255693317,0,100,3.0,2,2.0308303598341972e-06
3.58,0.0,77.50006035480573,0,100,3.0,2,1.1951446678344072e-06
3.585,0.0,77.50003510096914,0,100,3.0,2,6.950686958976569e-07
3.59,0.0,77.50002017375671,0,100,3.0,2,3.9948033088309094e-07
3.595,0.0,77.5000114581597,0,100,3.0,2,2.2689425157628954e-07
3.6,0.0,77.50000643136833,0,100,3.0,2,1.2735382839390794e-07
3.605,0.0,77.50000356740416,0,100,3.0,2,7.06416666153108e-08
3.61,0.0,77.50000195551733,0,100,3.0,2,3.8723115521591324e-08
3.615,0.001684486749771458,77.50000105933042,0,100,3.0,3,2.097683990865731e-08
3.62,0.00456624331333666,77.50000056710259,0,100,3.0,3,1.1229754235419834e-08
3.625,0.011079731271581421,77.50000030002141,0,100,3.0,3,5.941018062543717e-09
3.63,0.024064571490409,77.50000015685677,0,100,3.0,3,3.106074675790548e-09
3.635,0.046784906529573234,77.50000008104286,0,100,3.0,3,1.6048090293396052e-09
3.64,0.08141644351188804,77.50000004137964,0,100,3.0,3,8.193987270877385e-10
3.645,0.12682276464025305,77.50000002087944,0,100,3.0,3,4.1345426532391476e-10
3.65,0.1768320708657512,77.50000001041145,0,100,3.0,3,2.0616742196832298e-10
3.655,0.22070063230473494,77.50000000513056,0,100,3.0,3,1.0159522947889297e-10
3.66,0.24656126505113576,77.5000000024985,0,100,3.0,3,4.947516104174169e-11
3.665,0.24656126505724016,77.50000000120241,0,100,3.0,3,2.3810076023023207e-11
3.67,0.220700632329898,77.50000000057186,0,100,3.0,3,1.1323940685038491e-11
3.675,0.17683207093748562,77.50000000026877,0,100,3.0,3,5.322176143140901e-12
3.68,0.12682276483597799,77.50000000012483,0,100,3.0,3,2.4718445112541467e-12
3.685,0.08141644409447898,77.5000000000573,0,100,3.0,3,1.1346171527068214e-12
3.69,0.04678490952598309,77.50000000002599,0,100,3.0,3,5.146862034476132e-13
3.695,0.024064605020532023,77.50000000001165,0,100,3.0,3,2.3075051220724046e-13
3.7,0.011080171739334697,77.50000000000516,0,100,3.0,3,1.0214931211125401e-13
3.705,0.004571212771509492,77.50000000000226,0,100,3.0,3,4.474308712311126e-14
3.71,0.0017299316936037438,77.50000000000098,0,100,3.0,3,1.9416811393048284e-14
3.715,0.0008899431850697582,77.50000000000041,0,100,3.0,3,8.160688846353625e-15
3.72,0.002128806368910263,77.50000000000017,0,100,3.0,3,3.3768367640083968e-15
3.725,0.009309664818487698,77.50000000000007,0,100,3.0,3,1.4070153183368321e-15
3.73,0.03503263543368747,77.50000000000003,0,100,3.0,3,5.628061273347328e-16
3.735,0.10606267793605692,77.50000000000001,0,100,3.0,3,2.814030636673664e-16
3.74,0.25734927343160535,77.5,0,100,3.0,3,0.0
3.745,0.5003202479539708,77.5,0,100,3.0,3,0.0
3.75,0.7793067891790435,77.5,0,100,3.0,3,0.0
3.755,0.9720477407234077,77.50000295859651,1,100,3.0,3,5.8586069522645254e-08
3.76,0.967267334488097,77.5000067561685,0,100,3.0,3,1.3378551490841527e-07
3.765,0.7505869905515209,77.50001719779611,0,100,3.0,3,3.405504180523842e-07
3.77,0.4028369574773956,77.5000515647382,0,100,3.0,3,1.0210839247569726e-06
3.775,0.04553881263121314,77.50017905711105,0,100,3.0,3,3.5456853674198706e-06
3.78,-0.189138810908105,77.50066543420391,0,100,3.0,3,1.3176914928907995e-05
3.785,-0.22868072635956738,77.50245623074227,0,100,3.0,3,4.863823252016667e-05
3.79,-0.14104670682394166,77.50861965463233,0,100,3.0,3,0.00017068623034309903
3.795,-0.051158381651102834,77.52816257611583,0,100,3.0,3,0.0005576747745709385
3.8,-0.008206426846427752,77.58486608071702,0,100,3.0,3,0.0016805164498419902
3.805,0.005350271385530505,77.73487888834222,0,100,3.0,3,0.004651067095885605
3.81,0.01084668799215426,78.09587973796046,0,100,3.0,3,0.011799598771494238
3.815,0.016256859896386415,78.88444402686726,0,100,3.0,3,0.02741473320529222
3.82,0.02345021205790711,80.44438680795989,0,100,3.0,3,0.05830468926653242
3.825,0.0330621597308209,83.23080098869458,0,100,3.0,3,0.11348120769692242
3.83,0.04559141319943196,87.70668893967627,0,100,3.0,3,0.2021126522708172
3.835,0.06149084917446989,94.13333093081903,0,100,3.0,3,0.32937288971918866
3.84,0.08111733445924295,102.30231037555089,0,100,3.0,3,0.49113485892179976
3.845,0.1046628598272375,111.34021198838462,0,100,3.0,3,0.6701032076907847
3.85,0.1320831047748631,119.75039744596242,0,100,3.0,3,0.8366415335834143
3.855,0.16303381314489318,125.7775075029916,0,100,3.0,3,0.955990247583992
3.86,0.19682662652900276,128.0,0,100,3.0,3,1.0
3.865,0.23241585813229,125.8837302260334,0,100,3.0,3,0.9580936678422457
3.87,0.26842527782774417,120.00442444611679,0,100,3.0,3,0.8416717712102334
3.875,0.30321927900592993,111.81450952076494,0,100,3.0,3,0.6794952380349494
3.88,0.3350163137995362,103.08448147665294,0,100,3.0,3,0.506623395577286
3.885,0.3620352400956416,95.31267703219518,0,100,3.0,3,0.3527262778652511
3.89,0.3826586036805073,89.3675293197066,0,100,3.0,3,0.2350005805882496
3.895,0.39559233134833227,85.45217753566341,0,100,3.0,3,0.15746886209234473
3.9,0.4,83.3024972126359,0,100,3.0,3,0.11490093490368117
3.905,0.39559233134833227,82.45388413555828,0,100,3.0,3,0.09809671555560957
3.91,0.3826586036805073,82.44762808031379,0,100,3.0,3,0.09797283327354042
3.915,0.3620352400956416,82.93110062408132,0,100,3.0,3,0.10754654701151137
3.92,0.3350163137995362,83.67186230110104,0,100,3.0,3,0.12221509507130779
3.925,0.3032192790059296,84.52902621832729,0,100,3.0,3,0.139188637986679
3.93,0.26842527782774417,85.41685031310809,0,100,3.0,3,0.15676931313085318
3.935,0.23241585813229,86.27738603424606,0,100,3.0,3,0.17380962444051612
3.94,0.19682662652900276,87.06524364772558,0,100,3.0,3,0.18941076530149664
3.945,0.16303381314489318,87.74143830218591,0,100,3.0,3,0.20280075845912698
3.95,0.13208310477486307,88.27236282853896,0,100,3.0,3,0.21331411541661305
3.955,0.10466285982723562,88.63099644233273,0,100,3.0,3,0.22041577113530159
3.96,0.08111733445917907,88.7986725298133,0,100,3.0,3,0.2237360896992733
3.965,0.06149084917398798,88.76653905319374,0,100,3.0,3,0.22309978323155918
3.97,0.04559141333598128,88.53629358627089,0,100,3.0,3,0.21854046705486904
3.975,0.03306217087257399,88.12002543370468,0,100,3.0,3,0.2102975333406868
3.98,0.02345067901074276,87.53916190769036,0,100,3.0,3,0.19879528530079915
3.985,0.016268788896435526,86.82264075718345,0,100,3.0,3,0.184606747666999
3.99,0.011039026374860051,86.00452435542198,0,100,3.0,3,0.16840642287964314
3.995,0.007326255555493689,85.1213287991438,0,100,3.0,3,0.1509174019632435
4.0,0.0047556414315231815,84.20935785951606,0,100,3.0,3,0.13285857147556557
4.005,0.0030193390635632803,83.30230834193938,0,100,3.0,3,0.11489719488988871
4.01,0.001874953127946523,82.42935664000612,0,100,3.0,3,0.0976110225743786
4.015,0.0011387927410965778,81.61385771036055,0,100,3.0,3,0.08146252891803066
4.02,0.0006765107634274089,80.8727013086189,0,100,3.0,3,0.06678616452710694
4.025,0.00039307957404427924,80.21628968940773,0,100,3.0,3,0.05378791464173724
4.03,0.00022338910511776318,79.64903692797822,0,100,3.0,3,0.042555186692637935
4.035,0.00012417073320013317,79.17024915430844,0,100,3.0,3,0.03307424067937498
4.04,6.750753468904987e-05,78.7752291511895,0,100,3.0,3,0.025252062399792212
4.045,3.5897234866245036e-05,78.4564555520702,0,100,3.0,3,0.018939713902380115
4.05,1.8670050400879738e-05,78.20471082421054,0,100,3.0,3,0.013954669786347261
4.055,9.497421874143672e-06,78.0100663591468,0,100,3.0,3,0.010100323943501086
4.06,4.725434140340885e-06,77.86267031462822,0,100,3.0,3,0.007181590388677588
4.065,2.299606063738814e-06,77.75331851077479,0,100,3.0,3,0.005016208134154252
4.07,1.0945633976635486e-06,77.67381667283504,0,100,3.0,3,0.003441914313565247
4.075,5.095703414287532e-07,77.61716166312297,0,100,3.0,3,0.0023200329331281395
4.08,2.3202944964797243e-07,77.57757989946772,0,100,3.0,3,0.001536235633024192
4.085,1.0333746954038608e-07,77.55046409464848,0,100,3.0,3,0.0009992890029401102
4.09,4.501406988770349e-08,77.53224670533048,0,100,3.0,3,0.0006385486204055274
4.095,0.0,77.52024220417289,0,100,3.0,3,0.00040083572619580243
4.1,0.0,77.51248245020372,0,100,3.0,3,0.00024717723175683097
4.105,0.0,77.50756156121719,0,100,3.0,3,0.00014973388548885779
4.11,0.0,77.50449979461789,0,100,3.0,3,8.910484391852079e-05
4.115,0.0,77.50263053146217,0,100,3.0,3,5.208973192423238e-05
4.12,0.0,77.50151065015024,0,100,3.0,3,2.9913864361135146e-05
4.125,0.0,77.50085222424453,0,100,3.0,3,1.6875727614361307e-05
4.13,0.0,77.50047229512309,0,100,3.0,3,9.352378675027403e-06
4.135,0.0,77.50025712400627,0,100,3.0,3,5.091564480551932e-06
4.14,0.0,77.50013751224759,0,100,3.0,3,2.7230148037746727e-06
4.145,0.0,77.50007224532082,0,100,3.0,3,1.4306004123290502e-06
4.15,0.001684486749771458,77.5000372861598,0,100,3.0,3,7.383397979258979e-07
4.155,0.00456624331333666,77.50001890406396,0,100,3.0,3,3.7433790027697083e-07
4.16,0.011079731271581421,77.50000941525938,0,100,3.0,3,1.864407798927126e-07
4.165,0.024064571490409,77.50000460658394,0,100,3.0,3,9.121948401476438e-08
4.17,0.046784906529573234,77.50000221409005,0,100,3.0,3,4.3843367238157884e-08
4.175,0.08141644351188804,77.50000104539677,0,100,3.0,3,2.07009261745529e-08
4.18,0.12682276464025305,77.50000048488262,0,100,3.0,3,9.601636027510532e-09
4.185,0.1768320708657512,77.50000022093356,0,100,3.0,3,4.374921934075894e-09
4.19,0.22070063230473494,77.5000000988909,0,100,3.0,3,1.958235518734252e-09
4.195,0.24656126505113576,77.50000004348311,0,100,3.0,3,8.610517271687184e-10
4.2,0.24656126505724016,77.50000001878254,0,100,3.0,3,3.7193155486141284e-10
4.205,0.220700632329898,77.50000000796999,0,100,3.0,3,1.5782153142107845e-10
4.21,0.17683207093748562,77.50000000332224,0,100,3.0,3,6.578697103028425e-11
4.215,0.12682276483597799,77.50000000136042,0,100,3.0,3,2.6938996687940655e-11
4.22,0.08141644409447898,77.50000000054725,0,100,3.0,3,1.0836550578766614e-11
4.225,0.04678490952598309,77.50000000021626,0,100,3.0,3,4.282391822889982e-12
4.23,0.024064605020532023,77.50000000008394,0,100,3.0,3,1.6622478970831335e-12
4.235,0.011080171739334697,77.50000000003202,0,100,3.0,3,6.340011024425766e-13
4.24,0.004571212771509492,77.500000000012,0,100,3.0,3,2.3750418573525726e-13
4.245,0.0017299316936037438,77.50000000000442,0,100,3.0,3,8.751635280055096e-14
4.25,0.0008899431850697582,77.50000000000159,0,100,3.0,3,3.151714313074504e-14
4.255,0.002128806368910263,77.50000000000057,0,100,3.0,3,1.1256122546694657e-14
4.26,0.009309664818487698,77.5000000000002,0,100,3.0,3,3.93964289134313e-15
4.265,0.03503263543368747,77.50000000000007,0,100,3.0,3,1.4070153183368321e-15
4.27,0.10606267793605692,77.50000000000003,0,100,3.0,3,5.628061273347328e-16
4.275,0.25734927343160535,77.5,0,100,3.0,3,0.0
4.28,0.5003202479539708,77.5,0,100,3.0,3,0.0
4.285,0.7793067891790435,77.5,0,100,3.0,3,0.0
4.29,0.9720477407234077,77.50000295860458,1,100,3.0,3,5.8586229359585414e-08
4.295,0.967267334488097,77.50000607194025,0,100,3.0,3,1.2023644056189188e-07
4.3,0.7505869905515209,77.50001345273148,0,100,3.0,3,2.663907223742883e-07
4.305,0.4028369574773956,77.5000335974731,0,100,3.0,3,6.65296497145121e-07
4.31,0.04553881263121314,77.5000952391376,0,100,3.0,3,1.8859235166978084e-06
4.315,-0.189138810908105,77.50029396174413,0,100,3.0,3,5.821024636320949e-06
4.32,-0.22868072635956738,77.50093256649718,0,100,3.0,3,1.8466663310573943e-05
4.325,-0.14104670682394166,77.5029100232732,0,100,3.0,3,5.762422323172278e-05
4.33,-0.051158381651102834,77.50870714352278,0,100,3.0,3,0.00017241868361948757
4.335,-0.008206426846427752,77.5246562773498,0,100,3.0,3,0.00048824311583773423
4.34,0.005350271385530505,77.56565066778992,0,100,3.0,3,0.0013000132235628605
4.345,0.01084668799215426,77.66383990810884,0,100,3.0,3,0.0032443546160166505
4.35,0.016256859896386415,77.88262038992832,0,100,3.0,3,0.007576641384719209
4.355,0.02345021205790711,78.33545183145863,0,100,3.0,3,0.016543600622943112
4.36,0.0330621597308209,79.20484989603223,0,100,3.0,3,0.03375940388182632
4.365,0.04559141319943196,80.75054676642503,0,100,3.0,3,0.06436726270148578
4.37,0.06149084917446989,83.28992906835192,0,100,3.0,3,0.11465206075944404
4.375,0.08111733445924295,87.13394030962314,0,100,3.0,3,0.19077109524006222
4.38,0.1046628598272375,92.47378991953458,0,100,3.0,3,0.2965106914759323
4.385,0.1320831047748631,99.23955414039685,0,100,3.0,3,0.43048622060191777
4.39,0.16303381314489318,106.98246625036123,0,100,3.0,3,0.5838112128784402
4.395,0.19682662652900276,114.8494723141842,0,100,3.0,3,0.7395935111719643
4.4,0.23241585813229,121.70177762100317,0,100,3.0,3,0.8752827251683797
4.405,0.26842527782774417,126.37413972136399,0,100,3.0,3,0.9678047469577027
4.41,0.30321927900592993,128.0,0,100,3.0,3,1.0
4.415,0.3350163137995362,126.27952255457706,0,100,3.0,3,0.9659311396945952
4.42,0.3620352400956416,121.57753056726469,0,100,3.0,3,0.8728223874705879
4.425,0.3826586036805073,114.80819134861454,0,100,3.0,3,0.7387760663091989
4.43,0.39559233134833227,107.1570555269131,0,100,3.0,3,0.5872684262755069
4.435,0.4,99.75682326894582,0,100,3.0,3,0.44072917364249153
4.44,0.39559233134833227,93.437628290086,0,100,3.0,3,0.3155965998036831
4.445,0.3826586036805073,88.6210265304858,0,100,3.0,3,0.2202183471383328
4.45,0.3620352400956416,85.35521064557099,0,100,3.0,3,0.15554872565487113
4.455,0.3350163137995362,83.43676931776182,0,100,3.0,3,0.11755978847053099
4.46,0.3032192790059296,82.55078966163666,0,100,3.0,3,0.1000156368640922
4.465,0.26842527782774417,82.37990978446584,0,100,3.0,3,0.0966318769201156
4.47,0.23241585813229,82.66385053700031,0,100,3.0,3,0.10225446607921415
4.475,0.19682662652900276,83.21572546574443,0,100,3.0,3,0.11318268248998865
4.48,0.16303381314489318,83.91239791841033,0,100,3.0,3,0.12697817660218486
4.485,0.13208310477486307,84.67546318988141,0,100,3.0,3,0.14208837999765173
4.49,0.10466285982723562,85.45331282711224,0,100,3.0,3,0.1574913431111335
4.495,0.08111733445917907,86.20847512306442,0,100,3.0,3,0.17244505194186965
4.5,0.06149084917398798,86.91043201717129,0,100,3.0,3,0.1863451884588374
4.505,0.04559141333598128,87.53247338289246,0,100,3.0,3,0.19866283926519726
4.51,0.03306217087257399,88.0509704560115,0,100,3.0,3,0.20893010803983164
4.515,0.02345067901074276,88.44584531855038,0,100,3.0,3,0.21674941224852243
4.52,0.016268788896435526,88.70146811501344,0,100,3.0,3,0.22181124980224634
4.525,0.011039026374860051,88.80754517288817,0,100,3.0,3,0.2239117856017459
4.53,0.007326255555493689,88.75976200907462,0,100,3.0,3,0.22296558433811128
4.535,0.0047556414315231815,88.56006114259078,0,100,3.0,3,0.21901111173447094
4.54,0.0030193390635632803,88.21650740561338,0,100,3.0,3,0.2122080674378888
4.545,0.001874953127946523,87.74274663539316,0,100,3.0,3,0.20282666604738933
4.55,0.0011387927410965778,87.15710631316468,0,100,3.0,3,0.19122982798345892
4.555,0.0006765107634274089,86.48142019658886,0,100,3.0,3,0.17784990488294766
4.56,0.00039307957404427924,85.73968176817759,0,100,3.0,3,0.16316201521143742
4.565,0.00022338910511776318,84.95664182706211,0,100,3.0,3,0.14765627380321017
4.57,0.00012417073320013317,84.15646337911748,0,100,3.0,3,0.13181115602212837
4.575,6.750753468904987e-05,83.36153323734182,0,100,3.0,3,0.11606996509587757
4.58,3.5897234866245036e-05,82.59150690834363,0,100,3.0,3,0.10082191897710163
4.585,1.8670050400879738e-05,81.86263483969579,0,100,3.0,3,0.08638880870684726
4.59,9.497421874143672e-06,81.18738775969096,0,100,3.0,3,0.07301757939982106
4.595,4.725434140340885e-06,80.57437030471705,0,100,3.0,3,0.06087861989538713
4.6,2.299606063738814e-06,80.02848839135753,0,100,3.0,3,0.0500690770565847
4.605,1.0945633976635486e-06,79.55131885537037,0,100,3.0,3,0.040620175353868686
4.61,5.095703414287532e-07,79.14162062723075,0,100,3.0,3,0.03250733915308417
4.615,2.3202944964797243e-07,78.79592494440962,0,100,3.0,3,0.025661880087319212
4.62,1.0333746954038608e-07,78.50914673365939,0,100,3.0,3,0.019983103636819648
4.625,4.501406988770349e-08,78.2751686651716,0,100,3.0,3,0.015349874557853577
4.63,0.0,78.08736155817212,0,100,3.0,3,0.01163092194400237
4.635,0.0,77.93901792246764,0,100,3.0,3,0.008693424207280032
4.64,0.0,77.82368785280029,0,100,3.0,3,0.0064096604514908995
4.645,0.0,77.73541708275205,0,100,3.0,3,0.004661724410931694
4.65,0.0,77.66889506741865,0,100,3.0,3,0.0033444567805672436
4.655,0.0,77.61952627338034,0,100,3.0,3,0.0023668568986206853
4.66,0.0,77.583440560487,0,100,3.0,3,0.0016522883264753596
4.665,0.0,77.55745905335685,0,100,3.0,3,0.0011378030367693284
4.67,0.0,77.53903077198105,0,100,3.0,3,0.0007728865738821098
4.675,0.0,77.52615310372167,0,100,3.0,3,0.0005178832420132368
4.68,0.0,77.51728648731061,0,100,3.0,3,0.00034230667941809016
4.685,0.0,77.51127087641395,0,100,3.0,3,0.00022318567156327782
4.69,0.0,77.50724896569103,0,100,3.0,3,0.0001435438750699704
4.695,0.0,77.50459898318086,0,100,3.0,3,9.10689738783267e-05
4.7,0.0,77.50287816056776,0,100,3.0,3,5.699327856952082e-05
4.705,0.0,77.50177678810005,0,100,3.0,3,3.518392277317274e-05
4.71,0.0,77.50108199106754,0,100,3.0,3,2.1425565693793897e-05
4.715,0.0,77.5006499487824,0,100,3.0,3,1.2870272918730328e-05
4.72,0.0,77.50038512526845,0,100,3.0,3,7.626242939628661e-06
4.725,0.0,77.50022510871771,0,100,3.0,3,4.457598370580323e-06
4.73,0.0,77.5001297926306,0,100,3.0,3,2.5701511010358426e-06
4.735,0.0,77.50007382019291,0,100,3.0,3,1.4617859982094934e-06
4.74,0.0,77.50004141596045,0,100,3.0,3,8.201180287752583e-07
4.745,0.0,77.50002292069169,0,100,3.0,3,4.5387508299598373e-07
4.75,0.0,77.50001251281783,0,100,3.0,3,2.477785709414651e-07
4.755,0.0,77.50000673829383,0,100,3.0,3,1.334315610696793e-07
4.76,0.001684486749771458,77.50000357941612,0,100,3.0,3,7.087952705732466e-08
4.765,0.00456624331333666,77.50000187560704,0,100,3.0,3,3.714073347221682e-08
4.77,0.011079731271581421,77.50000096948018,0,100,3.0,3,1.919762739096696e-08
4.775,0.024064571490409,77.5000004943146,0,100,3.0,3,9.788408024718646e-09
4.78,0.046784906529573234,77.5000002486196,0,100,3.0,3,4.923160387610695e-09
4.785,0.08141644351188804,77.50000012334874,0,100,3.0,3,2.442549326714119e-09
4.79,0.12682276464025305,77.50000006036726,0,100,3.0,3,1.1953912095609352e-09
4.795,0.1768320708657512,77.5000000291431,0,100,3.0,3,5.770909910556793e-10
4.8,0.22070063230473494,77.50000001387833,0,100,3.0,3,2.748185133806137e-10
4.805,0.24656126505113576,77.50000000651939,0,100,3.0,3,1.290967508911047e-10
4.81,0.24656126505724016,77.50000000302094,0,100,3.0,3,5.982066327440875e-11
4.815,0.220700632329898,77.50000000138085,0,100,3.0,3,2.7343654293494327e-11
4.82,0.17683207093748562,77.5000000006226,0,100,3.0,4,1.2328831025394658e-11
4.825,0.12682276483597799,77.50000000027693,0,100,3.0,4,5.4837015016859696e-12
4.83,0.08141644409447898,77.50000000012149,0,100,3.0,4,2.4057147912923155e-12
4.835,0.04678490952598309,77.50000000005258,0,100,3.0,4,1.0411913355692557e-12
4.84,0.024064605020532023,77.50000000002245,0,100,3.0,4,4.446168405944389e-13
4.845,0.011080171739334697,77.50000000000945,0,100,3.0,4,1.8713303733879865e-13
4.85,0.004571212771509492,77.50000000000392,0,100,3.0,4,7.766724557219314e-14
4.855,0.0017299316936037438,77.5000000000016,0,100,3.0,4,3.179854619441241e-14
4.86,0.0008899431850697582,77.50000000000065,0,100,3.0,4,1.2944540928698855e-14
4.865,0.002128806368910263,77.50000000000026,0,100,3.0,4,5.065255146012595e-15
4.87,0.009309664818487698,77.5000000000001,0,100,3.0,4,1.969821445671565e-15
4.875,0.03503263543368747,77.50000000000004,0,100,3.0,4,8.442091910020992e-16
4.88,0.10606267793605692,77.50000000000001,0,100,3.0,4,2.814030636673664e-16
4.885,0.25734927343160535,77.5,0,100,3.0,4,0.0
4.89,0.5003202479539708,77.5,0,100,3.0,4,0.0
4.895,0.7793067891790435,77.5,0,100,3.0,4,0.0
4.9,0.9720477407234077,77.500002961856,1,100,3.0,4,5.865061381774638e-08
4.905,0.967267334488097,77.500006041423,0,100,3.0,4,1.1963213873878877e-07
4.91,0.7505869905515209,77.50001328138595,0,100,3.0,4,2.629977415165173e-07
4.915,0.4028369574773956,77.50003283321637,0,100,3.0,4,6.501627003199426e-07
4.92,0.04553881263121314,77.50009198824264,0,100,3.0,4,1.8215493592959877e-06
4.925,-0.189138810908105,77.50028074560149,0,100,3.0,4,5.559318841314602e-06
4.93,-0.22868072635956738,77.50088215537116,0,100,3.0,4,1.7468423191256096e-05
4.935,-0.14104670682394166,77.5027317136506,0,100,3.0,4,5.409333961592487e-05
4.94,-0.051158381651102834,77.50812515206187,0,100,3.0,4,0.00016089410023495125
4.945,-0.008206426846427752,77.52290585167412,0,100,3.0,4,0.0004535812212697967
4.95,0.005350271385530505,77.5607994860294,0,100,3.0,4,0.0012039502184038745
4.955,0.01084668799215426,77.65144697964095,0,100,3.0,4,0.0029989500919000286
4.96,0.016256859896386415,77.85343089561607,0,100,3.0,4,0.00699863159635785
4.965,0.02345021205790711,78.27206809920676,0,100,3.0,4,0.015288477212015105
4.97,0.0330621597308209,79.07802187804528,0,100,3.0,4,0.031247957981094594
4.975,0.04559141319943196,80.51693895137673,0,100,3.0,4,0.05974136537379663
4.98,0.06149084917446989,82.89454088046219,0,100,3.0,4,0.10682259169232054
4.985,0.08111733445924295,86.52074732919208,0,100,3.0,4,0.17862865998400151
4.99,0.1046628598272375,91.60628022891433,0,100,3.0,4,0.2793322817606798
4.995,0.1320831047748631,98.12800786254579,0,100,3.0,4,0.40847540321872844
5.0,0.16303381314489318,105.70840989696592,0,100,3.0,4,0.5585823741973449
5.005,0.19682662652900276,113.57344353324595,0,100,3.0,4,0.7143256145197218
5.01,0.23241585813229,120.64276888442222,0,100,3.0,4,0.8543122551370738
5.015,0.26842527782774417,125.75956336367835,0,100,3.0,4,0.9556349180926407
5.02,0.30321927900592993,128.0,0,100,3.0,4,1.0
5.025,0.3350163137995362,126.95061745029365,0,100,3.0,4,0.9792201475305673
5.03,0.3620352400956416,122.84001560912182,0,100,3.0,4,0.897822091269739
5.035,0.3826586036805073,116.46801010317881,0,100,3.0,4,0.7716437644193824
5.04,0.39559233134833227,108.96296573740314,0,100,3.0,4,0.6230290245030324
5.045,0.4,101.46881286087532,0,100,3.0,4,0.4746299576410954
5.05,0.39559233134833227,94.88053871179497,0,100,3.0,4,0.34416908340188057
5.055,0.3826586036805073,89.70779311233117,0,100,3.0,4,0.24173847747190444
5.06,0.3620352400956416,86.07956026661839,0,100,3.0,4,0.1698922825072948
5.065,0.3350163137995362,83.84687409322002,0,100,3.0,4,0.1256806751132678
5.07,0.3032192790059296,82.7187027867249,0,100,3.0,4,0.10334064924207731
5.075,0.26842527782774417,82.37771688222631,0,100,3.0,4,0.09658845311339226
5.08,0.23241585813229,82.55072048744152,0,100,3.0,4,0.10001426707804997
5.085,0.19682662652900276,83.03453037589074,0,100,3.0,4,0.1095946609087275
5.09,0.16303381314489318,83.69208055632127,0,100,3.0,4,0.12261545656081728
5.095,0.13208310477486307,84.43544696634281,0,100,3.0,4,0.1373355834919368
5.1,0.10466285982723562,85.20760297898806,0,100,3.0,4,0.15262580156412006
5.105,0.08111733445917907,85.96850260217812,0,100,3.0,4,0.1676931208352103
5.11,0.06149084917398798,86.6865931944108,0,100,3.0,4,0.18191273652298623
5.115,0.04559141333598128,87.33469336179016,0,100,3.0,4,0.19474640320376552
5.12,0.03306217087257399,87.88866412777621,0,100,3.0,4,0.20571612134210315
5.125,0.02345067901074276,88.32756689971691,0,100,3.0,4,0.21440726534092897
5.13,0.016268788896435526,88.63444229094094,0,100,3.0,4,0.22048400576120672
5.135,0.011039026374860051,88.7972016808272,0,100,3.0,4,0.22370696397677625
5.14,0.007326255555493689,88.80935150413694,0,100,3.0,4,0.22394755453736517
5.145,0.0047556414315231815,88.67040269484706,0,100,3.0,4,0.22119609296726842
5.15,0.0030193390635632803,88.38589749796584,0,100,3.0,4,0.21556232669239292
5.155,0.001874953127946523,87.96704111602165,0,100,3.0,4,0.20726814091131976
5.16,0.0011387927410965778,87.42996910265714,0,100,3.0,4,0.19663305153776514
5.165,0.0006765107634274089,86.79471636674512,0,100,3.0,4,0.18405378944049744
5.17,0.00039307957404427924,86.08397933237504,0,100,3.0,4,0.16997978875990172
5.175,0.00022338910511776318,85.32177758289465,0,100,3.0,4,0.15488668480979514
5.18,0.00012417073320013317,84.53212429988861,0,100,3.0,4,0.13924998613640807
5.185,6.750753468904987e-05,83.7378064113005,0,100,3.0,4,0.1235209190356534
5.19,3.5897234866245036e-05,82.95935736032456,0,100,3.0,4,0.1081060863430606
5.195,1.8670050400879738e-05,82.21428063285789,0,100,3.0,4,0.09335209173976025
5.2,9.497421874143672e-06,81.51655406697313,0,100,3.0,4,0.0795357240984778
5.205,4.725434140340885e-06,80.8764170164331,0,100,3.0,4,0.06685974289966524
5.21,2.299606063738814e-06,80.30041774319758,0,100,3.0,4,0.05545381669698188
5.215,1.0945633976635486e-06,79.7916792805792,0,100,3.0,4,0.04537978773424164
5.22,5.095703414287532e-07,79.35032975682887,0,100,3.0,4,0.03664019320453208
5.225,2.3202944964797243e-07,78.97403808767992,0,100,3.0,4,0.029188873023364655
5.23,1.0333746954038608e-07,78.65859741440458,0,100,3.0,4,0.022942523057516477
5.235,4.501406988770349e-08,78.39850537991533,0,100,3.0,4,0.01779218574089772
5.24,0.0,78.1875006071592,0,100,3.0,4,0.01361387340909295
5.245,0.0,78.01902678123402,0,100,3.0,4,0.010277758044237983
5.25,0.0,77.8866079019436,0,100,3.0,4,0.007655602018685262
5.255,0.0,77.78412926151917,0,100,3.0,4,0.0056263220102805754
5.26,0.0,77.70602763440992,0,100,3.0,4,0.004079755136830114
5.265,0.0,77.64740060525696,0,100,3.0,4,0.002918823866474497
5.27,0.0,77.604048862077,0,100,3.0,4,0.0020603735064751187
5.275,0.0,77.57246689949535,0,100,3.0,4,0.0014349881088188759
5.28,0.0,77.54979735814472,0,100,3.0,4,0.000986086299895357
5.285,0.0,77.53376270259416,0,100,3.0,4,0.0006685683682011887
5.29,0.0,77.52258563891289,0,100,3.0,4,0.000447240374512603
5.295,0.0,77.51490705436474,0,100,3.0,4,0.0002951891953414091
5.3,0.0,77.50970768257822,0,100,3.0,4,0.00019223133818265054
5.305,0.0,77.50623739972342,0,100,3.0,4,0.000123512865810248
5.31,0.0,77.50395417479393,0,100,3.0,4,7.830049096895945e-05
5.315,0.0,77.50247327511215,0,100,3.0,4,4.8975744795087046e-05
5.32,0.0,77.50152634696913,0,100,3.0,4,3.0224692458002417e-05
5.325,0.0,77.50092939083888,0,100,3.0,4,1.840377898766332e-05
5.33,0.0,77.50055835162344,0,100,3.0,4,1.1056467790881876e-05
5.335,0.0,77.50033096453323,0,100,3.0,4,6.553753133339972e-06
5.34,0.0,77.50019356169078,0,100,3.0,4,3.832904767894361e-06
5.345,0.0,77.50011169188872,0,100,3.0,4,2.2117205686966075e-06
5.35,0.0,77.50006358989972,0,100,3.0,4,1.2592059351395573e-06
5.355,0.0,77.5000357206146,0,100,3.0,4,7.07338903067007e-07
5.36,0.0,77.50001979766552,0,100,3.0,4,3.920329805119349e-07
5.365,0.0,77.50001082613204,0,100,3.0,4,2.1437885228950486e-07
5.37,0.0,77.50000584113084,0,100,3.0,4,1.156659572873173e-07
5.375,0.001684486749771458,77.50000310945893,0,100,3.0,4,6.157344416513495e-08
5.38,0.00456624331333666,77.50000163319106,0,100,3.0,4,3.234041705942254e-08
5.385,0.011079731271581421,77.50000084635671,0,100,3.0,4,1.6759538865618098e-08
5.39,0.024064571490409,77.5000004327471,0,100,3.0,4,8.569249512400364e-09
5.395,0.046784906529573234,77.50000021831278,0,100,3.0,4,4.323025299671295e-09
5.4,0.08141644351188804,77.5000001086647,0,100,3.0,4,2.151776103832757e-09
5.405,0.12682276464025305,77.50000005336567,0,100,3.0,4,1.0567458899134695e-09
5.41,0.1768320708657512,77.50000002585828,0,100,3.0,4,5.120452356950949e-10
5.415,0.22070063230473494,77.50000001236238,0,100,3.0,4,2.447995601608337e-10
5.42,0.24656126505113576,77.50000000583134,0,100,3.0,4,1.154720587575218e-10
5.425,0.24656126505724016,77.50000000271393,0,100,3.0,4,5.374123148693897e-11
5.43,0.220700632329898,77.50000000124622,0,100,3.0,4,2.4677641668309697e-11
5.435,0.17683207093748562,77.50000000056461,0,100,3.0,4,1.1180425122568135e-11
5.44,0.12682276483597799,77.50000000025238,0,100,3.0,4,4.997718410732428e-12
5.445,0.08141644409447898,77.50000000011131,0,100,3.0,4,2.204230197706481e-12
5.45,0.04678490952598309,77.50000000004844,0,100,3.0,4,9.59303044042052e-13
5.455,0.024064605020532023,77.5000000000208,0,100,3.0,4,4.1197408520902444e-13
5.46,0.011080171739334697,77.50000000000881,0,100,3.0,4,1.7446989947376718e-13
5.465,0.004571212771509492,77.50000000000368,0,100,3.0,4,7.28833934898479e-14
5.47,0.0017299316936037438,77.50000000000152,0,100,3.0,4,3.011012781240821e-14
5.475,0.0008899431850697582,77.50000000000061,0,100,3.0,4,1.2100331737696755e-14
5.48,0.002128806368910263,77.50000000000024,0,100,3.0,4,4.783852082345229e-15
5.485,0.009309664818487698,77.5000000000001,0,100,3.0,4,1.969821445671565e-15
5.49,0.03503263543368747,77.50000000000004,0,100,3.0,4,8.442091910020992e-16
5.495,0.10606267793605692,77.50000000000001,0,100,3.0,4,2.814030636673664e-16
5.5,0.25734927343160535,77.5,0,100,3.0,4,0.0
5.505,0.5003202479539708,77.5,0,100,3.0,4,0.0
5.51,0.7793067891790435,77.5,0,100,3.0,4,0.0
5.515,0.9720477407234077,77.5000029632167,1,100,3.0,4,5.867755844249559e-08
5.52,0.967267334488097,77.5000059376048,0,100,3.0,4,1.1757633261719219e-07
5.525,0.7505869905515209,77.50001276355475,0,100,3.0,4,2.5274365841574077e-07
5.53,0.4028369574773956,77.50003064109448,0,100,3.0,4,6.067543461986224e-07
5.535,0.04553881263121314,77.50008298165619,0,100,3.0,4,1.6432011127090117e-06
5.54,-0.189138810908105,77.50024503836143,0,100,3.0,4,4.852244780740965e-06
5.545,-0.22868072635956738,77.50074848054169,0,100,3.0,4,1.4821396865108279e-05
5.55,-0.14104670682394166,77.50226551612232,0,100,3.0,4,4.4861705392500734e-05
5.555,-0.051158381651102834,77.50661940466038,0,100,3.0,4,0.00013107732000760438
5.56,-0.008206426846427752,77.51841054376423,0,100,3.0,4,0.00036456522305411903
5.565,0.005350271385530505,77.54839812828513,0,100,3.0,4,0.0009583787779233446
5.57,0.01084668799215426,77.61982582118479,0,100,3.0,4,0.0023727885383126738
5.575,0.016256859896386415,77.77889256217193,0,100,3.0,4,0.0055226249935036225
5.58,0.02345021205790711,78.10963732186457,0,100,3.0,4,0.012072026175536002
5.585,0.0330621597308209,78.75092151744123,0,100,3.0,4,0.02477072311764807
5.59,0.04559141319943196,79.9087326709927,0,100,3.0,4,0.0476976766533209
5.595,0.06149084917446989,81.85188343427765,0,100,3.0,4,0.0861759095896565
5.6,0.08111733445924295,84.87660047953338,0,100,3.0,4,0.14607129662442336
5.605,0.1046628598272375,89.23015235542505,0,100,3.0,4,0.23228024466188213
5.61,0.1320831047748631,94.99882501874558,0,100,3.0,4,0.3465113865098134
5.615,0.16303381314489318,101.98894029735766,0,100,3.0,4,0.4849295108387655
5.62,0.19682662652900276,109.65089174060849,0,100,3.0,4,0.6366513215962076
5.625,0.23241585813229,117.09986446314402,0,100,3.0,4,0.7841557319434459
5.63,0.26842527782774417,123.26166314833992,0,100,3.0,4,0.9061715474918796
5.635,0.30321927900592993,127.12152069509544,0,100,3.0,4,0.9826043701999098
5.64,0.3350163137995362,128.0,0,100,3.0,4,1.0
5.645,0.3620352400956416,125.753838019447,0,100,3.0,4,0.9555215449395446
5.65,0.3826586036805073,120.82076135998885,0,100,3.0,4,0.8578368586136406
5.655,0.39559233134833227,114.08960455830919,0,100,3.0,4,0.7245466249170137
5.66,0.4,106.64913868340399,0,100,3.0,4,0.5772106669980989
5.665,0.39559233134833227,99.5133886516984,0,100,3.0,4,0.43590868617224565
5.67,0.3826586036805073,93.41762112302557,0,100,3.0,4,0.31520041827773404
5.675,0.3620352400956416,88.73552998548763,0,100,3.0,4,0.22248574228688378
5.68,0.3350163137995362,85.51231074372309,0,100,3.0,4,0.15865961868758596
5.685,0.3032192790059296,83.56875812223683,0,100,3.0,4,0.12017342816310553
5.69,0.26842527782774417,82.62145439320233,0,100,3.0,4,0.10141493847925401
5.695,0.23241585813229,82.37856251014239,0,100,3.0,4,0.09660519822064134
5.7,0.19682662652900276,82.59484163283764,0,100,3.0,4,0.10088795312549786
5.705,0.16303381314489318,83.08955460734782,0,100,3.0,4,0.11068424965045191
5.71,0.13208310477486307,83.74068070754905,0,100,3.0,4,0.12357783579305041
5.715,0.10466285982723562,84.46928792877765,0,100,3.0,4,0.1380057015599534
5.72,0.08111733445917907,85.22350477295976,0,100,3.0,4,0.15294068857346052
5.725,0.06149084917398798,85.96643451289296,0,100,3.0,4,0.16765216857213783
5.73,0.04559141333598128,86.66877212581805,0,100,3.0,4,0.181559844075605
5.735,0.03306217087257399,87.30517905319509,0,100,3.0,4,0.19416196144940773
5.74,0.02345067901074276,87.85308057266846,0,100,3.0,4,0.20501149648848438
5.745,0.016268788896435526,88.29277433001748,0,100,3.0,4,0.21371830356470256
5.75,0.011039026374860051,88.60810467392501,0,100,3.0,4,0.2199624687905943
5.755,0.007326255555493689,88.78725860971063,0,100,3.0,4,0.22351007147941848
5.76,0.0047556414315231815,88.82343447722398,0,100,3.0,4,0.22422642529156403
5.765,0.0030193390635632803,88.71524935893723,0,100,3.0,4,0.22208414572152926
5.77,0.001874953127946523,88.46682050888896,0,100,3.0,4,0.21716476255225658
5.775,0.0011387927410965778,88.08750355955483,0,100,3.0,4,0.20965353583276897
5.78,0.0006765107634274089,87.59130736152696,0,100,3.0,4,0.19982786854508827
5.785,0.00039307957404427924,86.99603550232074,0,100,3.0,4,0.18804030697664825
5.79,0.00022338910511776318,86.32222756000658,0,100,3.0,4,0.17469757544567488
5.795,0.00012417073320013317,85.5919876730514,0,100,3.0,4,0.16023737966438428
5.8,6.750753468904987e-05,84.82779312309145,0,100,3.0,4,0.14510481431864264
5.805,3.5897234866245036e-05,84.05137136185039,0,100,3.0,4,0.12973012597723535
5.81,1.8670050400879738e-05,83.28272136314028,0,100,3.0,4,0.11450933392356996
5.815,9.497421874143672e-06,82.53933634560707,0,100,3.0,4,0.09978883852687265
5.82,4.725434140340885e-06,81.83566237670279,0,100,3.0,4,0.08585470052876804
5.825,2.299606063738814e-06,81.182803916743,0,100,3.0,4,0.07292681023253461
5.83,1.0945633976635486e-06,80.5884655936849,0,100,3.0,4,0.06115773452841389
5.835,5.095703414287532e-07,80.05710151400747,0,100,3.0,4,0.050635673544702386
5.84,2.3202944964797243e-07,79.59023060237372,0,100,3.0,4,0.04139070499749946
5.845,1.0333746954038608e-07,79.18686941841649,0,100,3.0,4,0.03340335482012856
5.85,4.501406988770349e-08,78.8440324631707,0,100,3.0,4,0.026614504221202092
5.855,0.0,78.55725338170798,0,100,3.0,4,0.020935710528870895
5.86,0.0,78.32108749492411,0,100,3.0,4,0.016259158315329
5.865,0.0,78.12956535899671,0,100,3.0,4,0.012466640772212169
5.87,0.0,77.97657717630197,0,100,3.0,4,0.009437171807959858
5.875,0.0,77.8561776684136,0,100,3.0,4,0.007053023136902843
5.88,0.0,77.76280956302601,0,100,3.0,4,0.005204149762891298
5.885,0.0,77.691450573779,0,100,3.0,4,0.0037911004708711636
5.89,0.0,77.63769342762592,0,100,3.0,4,0.0027266025272459243
5.895,0.0,77.59777116282646,0,100,3.0,4,0.00193606263022696
5.9,0.0,77.56854083334795,0,100,3.0,4,0.0013572442247119388
5.905,0.0,77.54743828840738,0,100,3.0,4,0.0009393720476708441
5.91,0.0,77.53241527216751,0,100,3.0,4,0.0006418865775744939
5.915,0.0,77.52186811576739,0,100,3.0,4,0.0004330319953938593
5.92,0.0,77.5145651206646,0,100,3.0,4,0.0002884182309821656
5.925,0.0,77.50957762524908,0,100,3.0,4,0.00018965594552632369
5.93,0.0,77.50621788411807,0,100,3.0,4,0.00012312641817965243
5.935,0.0,77.50398536808234,0,100,3.0,4,7.891817984831379e-05
5.94,0.0,77.50252194309775,0,100,3.0,4,4.993946728212328e-05
5.945,0.0,77.50157558979458,0,100,3.0,4,3.1199797912548924e-05
5.95,0.0,77.50097183394746,0,100,3.0,4,1.9244236583371374e-05
5.955,0.0,77.50059180959549,0,100,3.0,4,1.1719001890912862e-05
5.96,0.0,77.50035580575643,0,100,3.0,4,7.045658543122477e-06
5.965,0.0,77.50021119564977,0,100,3.0,4,4.182092074625142e-06
5.97,0.0,77.50012376504303,0,100,3.0,4,2.4507929312545853e-06
5.975,0.0,77.5000716064357,0,100,3.0,4,1.4179492217124898e-06
5.98,0.0,77.5000409022451,0,100,3.0,4,8.099454475996026e-07
5.985,0.0,77.50002306658317,0,100,3.0,4,4.5676402312820564e-07
5.99,0.0,77.50001284282068,0,100,3.0,4,2.5431328080599943e-07
5.995,0.0,77.50000705957572,0,100,3.0,4,1.3979357865789305e-07
6.0,0.0,77.50000383122638,0,100,3.0,4,7.586586890499915e-08
6.005,0.001684486749771458,77.50000205275943,0,100,3.0,4,4.064870153126664e-08
6.01,0.00456624331333666,77.50000108587373,0,100,3.0,4,2.1502450179036488e-08
6.015,0.011079731271581421,77.50000056710259,0,100,3.0,4,1.1229754235419834e-08
6.02,0.024064571490409,77.50000029240512,0,100,3.0,4,5.790200371974255e-09
6.025,0.046784906529573234,77.50000014885018,0,100,3.0,5,2.947528250077463e-09
6.03,0.08141644351188804,77.50000007480915,0,100,3.0,5,1.4813693242374057e-09
6.035,0.12682276464025305,77.50000003711942,0,100,3.0,5,7.350380282431535e-10
6.04,0.1768320708657512,77.50000001818397,0,100,3.0,5,3.600785764166797e-10
6.045,0.22070063230473494,77.50000000879461,0,100,3.0,5,1.7415078839956838e-10
6.05,0.24656126505113576,77.50000000419939,0,100,3.0,5,8.315629373208878e-11
6.055,0.24656126505724016,77.50000000197969,0,100,3.0,5,3.920169799337348e-11
6.06,0.220700632329898,77.5000000009214,0,100,3.0,5,1.8245611842064705e-11
6.065,0.17683207093748562,77.50000000042338,0,100,3.0,5,8.383841475841848e-12
6.07,0.12682276483597799,77.50000000019207,0,100,3.0,5,3.803443808528125e-12
6.075,0.08141644409447898,77.50000000008603,0,100,3.0,5,1.7036141474422362e-12
6.08,0.04678490952598309,77.50000000003804,0,100,3.0,5,7.533160014375399e-13
6.085,0.024064605020532023,77.50000000001661,0,100,3.0,5,3.2896018142715135e-13
6.09,0.011080171739334697,77.50000000000716,0,100,3.0,5,1.4182714408835267e-13
6.095,0.004571212771509492,77.50000000000304,0,100,3.0,5,6.022025562481641e-14
6.1,0.0017299316936037438,77.50000000000128,0,100,3.0,5,2.5326275730062977e-14
6.105,0.0008899431850697582,77.50000000000053,0,100,3.0,5,1.0411913355692557e-14
6.11,0.002128806368910263,77.50000000000021,0,100,3.0,5,4.221045955010496e-15
6.115,0.009309664818487698,77.50000000000009,0,100,3.0,5,1.6884183820041984e-15
6.12,0.03503263543368747,77.50000000000003,0,100,3.0,5,5.628061273347328e-16
6.125,0.10606267793605692,77.50000000000001,0,100,3.0,5,2.814030636673664e-16
6.13,0.25734927343160535,77.5,0,100,3.0,5,0.0
6.135,0.5003202479539708,77.5,0,100,3.0,5,0.0
6.14,0.7793067891790435,77.5,0,100,3.0,5,0.0
6.145,0.9720477407234077,77.50000298257781,1,100,3.0,5,5.9060946760288096e-08
6.15,0.967267334488097,77.50000698562181,0,100,3.0,5,1.3832914473283328e-07
6.155,0.7505869905515209,77.50001839468638,0,100,3.0,5,3.642512154166782e-07
6.16,0.4028369574773956,77.50005766999934,0,100,3.0,5,1.1419801848709954e-06
6.165,0.04553881263121314,77.50020995712008,0,100,3.0,5,4.157566734204353e-06
6.17,-0.189138810908105,77.50081280880359,0,100,3.0,5,1.6095223833415298e-05
6.175,-0.22868072635956738,77.503097351455,0,100,3.0,5,6.133369217815863e-05
6.18,-0.14104670682394166,77.51113090624347,0,100,3.0,5,0.00022041398501912253
6.185,-0.051158381651102834,77.53698570626372,0,100,3.0,5,0.0007323902230439779
6.19,-0.008206426846427752,77.61265550495322,0,100,3.0,5,0.0022308020782816694
6.195,0.005350271385530505,77.81335454355643,0,100,3.0,5,0.006205040466463934
6.2,0.01084668799215426,78.2945754104132,0,100,3.0,5,0.015734166542835687
6.205,0.016256859896386415,79.33525192393353,0,100,3.0,5,0.036341622256109436
6.21,0.02345021205790711,81.35961530766114,0,100,3.0,5,0.07642802589428009
6.215,0.0330621597308209,84.88912272221204,0,100,3.0,5,0.14631926182598093
6.22,0.04559141319943196,90.37654399373201,0,100,3.0,5,0.25498106918281216
6.225,0.06149084917446989,97.92423792213376,0,100,3.0,5,0.40444035489373775
6.23,0.08111733445924295,106.98718963572514,0,100,3.0,5,0.5839047452618841
6.235,0.1046628598272375,116.25086790845694,0,100,3.0,5,0.7673439189793453
6.24,0.1320831047748631,123.85923787688145,0,100,3.0,5,0.918004710433296
6.245,0.16303381314489318,128.0,0,100,3.0,5,1.0
6.25,0.19682662652900276,127.61098502595775,0,100,3.0,5,0.9922967331872821
6.255,0.23241585813229,122.83587158770212,0,100,3.0,5,0.8977400314396459
6.26,0.26842527782774417,114.96520763494516,0,100,3.0,5,0.7418852997018843
6.265,0.30321927900592993,105.89752443347074,0,100,3.0,5,0.562327216504371
6.27,0.3350163137995362,97.4283723807234,0,100,3.0,5,0.39462123526184956
6.275,0.3620352400956416,90.72827099469485,0,100,3.0,5,0.2619459602909872
6.28,0.3826586036805073,86.19634780611744,0,100,3.0,5,0.17220490705183059
6.285,0.39559233134833227,83.63586300786153,0,100,3.0,5,0.12150223777943625
6.29,0.4,82.56052605964184,0,100,3.0,5,0.10020843682459098
6.295,0.39559233134833227,82.45518590911567,0,100,3.0,5,0.09812249324981524
6.3,0.3826586036805073,82.9135053462967,0,100,3.0,5,0.10719812566924163
6.305,0.3620352400956416,83.66619963054956,0,100,3.0,5,0.12210296298117933
6.31,0.3350163137995362,84.55142388335696,0,100,3.0,5,0.13963215610607843
6.315,0.3032192790059296,85.47238297465216,0,100,3.0,5,0.15786896979509235
6.32,0.26842527782774417,86.36478766196998,0,100,3.0,5,0.17554034974197988
6.325,0.23241585813229,87.17876238495688,0,100,3.0,5,0.1916586610882551
6.33,0.19682662652900276,87.87166435112398,0,100,3.0,5,0.205379492101465
6.335,0.16303381314489318,88.40698222909897,0,100,3.0,5,0.21597984612077173
6.34,0.13208310477486307,88.75580649977894,0,100,3.0,5,0.22288725742136517
6.345,0.10466285982723562,88.89887430140394,0,100,3.0,5,0.22572028319611753
6.35,0.08111733445917907,88.82817993521967,0,100,3.0,5,0.22432039475682505
6.355,0.06149084917398798,88.54767901408137,0,100,3.0,5,0.21876592107091816
6.36,0.04559141333598128,88.07291340431424,0,100,3.0,5,0.20936462186760862
6.365,0.03306217087257399,87.42958320393963,0,100,3.0,5,0.19662540997900255
6.37,0.02345067901074276,86.65124282568554,0,100,3.0,5,0.1812127292214959
6.375,0.016268788896435526,85.77640730681179,0,100,3.0,5,0.1638892536002335
6.38,0.011039026374860051,84.8454151685361,0,100,3.0,5,0.14545376571358629
6.385,0.007326255555493689,83.8974007286156,0,100,3.0,5,0.12668120254684345
6.39,0.0047556414315231815,82.96768491225848,0,100,3.0,5,0.108270988361554
6.395,0.0030193390635632803,82.08581065794073,0,100,3.0,5,0.09080813184041042
6.4,0.001874953127946523,81.27434395854696,0,100,3.0,5,0.07473948432766267
6.405,0.0011387927410965778,80.54845330467741,0,100,3.0,5,0.060365411973810075
6.41,0.0006765107634274089,79.91618583984749,0,100,3.0,5,0.047845264155395764
6.415,0.00039307957404427924,79.37929015460902,0,100,3.0,5,0.03721366642790146
6.42,0.00022338910511776318,78.93439927898388,0,100,3.0,5,0.028403946118492576
6.425,0.00012417073320013317,78.57438266865057,0,100,3.0,5,0.021274904329714284
6.43,6.750753468904987e-05,78.28969728617166,0,100,3.0,5,0.01563757002320117
6.435,3.5897234866245036e-05,78.06960660042824,0,100,3.0,5,0.011279338622341472
6.44,1.8670050400879738e-05,77.90318289291574,0,100,3.0,5,0.007983819661697764
6.445,9.497421874143672e-06,77.78005407488197,0,100,3.0,5,0.005545625245187608
6.45,4.725434140340885e-06,77.69089493772672,0,100,3.0,5,0.0037800977767668284
6.455,2.299606063738814e-06,77.62769081034563,0,100,3.0,5,0.002528530897933197
6.46,1.0945633976635486e-06,77.58381805725054,0,100,3.0,5,0.0016597635099116707
6.465,5.095703414287532e-07,77.55399185562284,0,100,3.0,5,0.0010691456558978225
6.47,2.3202944964797243e-07,77.53412963416547,0,100,3.0,5,0.0006758343399102353
6.475,1.0333746954038608e-07,77.52117130985577,0,100,3.0,5,0.0004192338585301734
6.48,4.501406988770349e-08,77.51288773328321,0,100,3.0,5,0.0002552026392714372
6.485,0.0,77.50769871188156,0,100,3.0,5,0.00015244974022890023
6.49,0.0,77.5045130724965,0,100,3.0,5,8.936777220779138e-05
6.495,0.0,77.50259620671603,0,100,3.0,5,5.141003398089107e-05
6.5,0.0,77.50146561177017,0,100,3.0,5,2.9022015250928793e-05
6.505,0.0,77.50081191643977,0,100,3.0,5,1.6077553262824374e-05
6.51,0.0,77.50044138385367,0,100,3.0,5,8.740274330083333e-06
6.515,0.0,77.500235469285,0,100,3.0,5,4.662758118850587e-06
6.52,0.0,77.5001232721027,0,100,3.0,5,2.4410317365945417e-06
6.525,0.001684486749771458,77.50006332979159,0,100,3.0,5,1.2540552789475738e-06
6.53,0.00456624331333666,77.50003192743502,0,100,3.0,5,6.322264359913797e-07
6.535,0.011079731271581421,77.50001579547595,0,100,3.0,5,3.1278170189859274e-07
6.54,0.024064571490409,77.50000766856529,0,100,3.0,5,1.518527779911766e-07
6.545,0.046784906529573234,77.50000365349266,0,100,3.0,5,7.234638920942082e-08
6.55,0.08141644351188804,77.50000170810699,0,100,3.0,5,3.382390084628034e-08
6.555,0.12682276464025305,77.50000078367253,0,100,3.0,5,1.55182679819599e-08
6.56,0.1768320708657512,77.50000035283112,0,100,3.0,5,6.986754901800391e-09
6.565,0.22070063230473494,77.5000001558877,0,100,3.0,5,3.086885238072943e-09
6.57,0.24656126505113576,77.50000006758799,0,100,3.0,5,1.3383760458532154e-09
6.575,0.24656126505724016,77.50000002875676,0,100,3.0,5,5.694407673668183e-10
6.58,0.220700632329898,77.50000001200668,0,100,3.0,5,2.377560414772395e-10
6.585,0.17683207093748562,77.50000000491947,0,100,3.0,5,9.74152683711779e-11
6.59,0.12682276483597799,77.50000000197801,0,100,3.0,5,3.916849243186073e-11
6.595,0.08141644409447898,77.50000000078046,0,100,3.0,5,1.5454656256611765e-11
6.6,0.04678490952598309,77.5000000003022,0,100,3.0,5,5.9840361488865464e-12
6.605,0.024064605020532023,77.50000000011482,0,100,3.0,5,2.2737367544323206e-12
6.61,0.011080171739334697,77.50000000004282,0,100,3.0,5,8.47867430829775e-13
6.615,0.004571212771509492,77.50000000001566,0,100,3.0,5,3.101061761614378e-13
6.62,0.0017299316936037438,77.50000000000563,0,100,3.0,5,1.114356132122771e-13
6.625,0.0008899431850697582,77.50000000000198,0,100,3.0,5,3.911502584976393e-14
6.63,0.002128806368910263,77.50000000000068,0,100,3.0,5,1.3507347056033587e-14
6.635,0.009309664818487698,77.50000000000023,0,100,3.0,5,4.502449018677863e-15
6.64,0.03503263543368747,77.50000000000007,0,100,3.0,5,1.4070153183368321e-15
6.645,0.10606267793605692,77.50000000000003,0,100,3.0,5,5.628061273347328e-16
6.65,0.25734927343160535,77.50000000000001,0,100,3.0,5,2.814030636673664e-16
6.655,0.5003202479539708,77.5,0,100,3.0,5,0.0
6.66,0.7793067891790435,77.5,0,100,3.0,5,0.0
6.665,0.9720477407234077,77.5000029632167,1,100,3.0,5,5.867755844249559e-08
6.67,0.967267334488097,77.50000632443192,0,100,3.0,5,1.252362756864692e-07
6.675,0.7505869905515209,77.50001473324576,0,100,3.0,5,2.917474408505849e-07
6.68,0.4028369574773956,77.50003930345265,0,100,3.0,5,7.782861911378535e-07
6.685,0.04553881263121314,77.50012007178523,0,100,3.0,5,2.37765911352014e-06
6.69,-0.189138810908105,77.50039768906025,0,100,3.0,5,7.875030896043021e-06
6.695,-0.22868072635956738,77.50133813309903,0,100,3.0,5,2.6497685129220596e-05
6.7,-0.14104670682394166,77.50437429970992,0,100,3.0,5,8.661979623609861e-05
6.705,-0.051158381651102834,77.51356283545961,0,100,3.0,5,0.0002685709992001851
6.71,-0.008206426846427752,77.539423280672,0,100,3.0,5,0.0007806590232078606
6.715,0.005350271385530505,77.60683292766095,0,100,3.0,5,0.0021155035180385365
6.72,0.01084668799215426,77.7691843879838,0,100,3.0,5,0.005330383920471266
6.725,0.016256859896386415,78.1298195737859,0,100,3.0,5,0.012471674728433559
6.73,0.02345021205790711,78.8674564682652,0,100,3.0,5,0.027078345906241648
6.735,0.0330621597308209,80.25416185836706,0,100,3.0,5,0.05453785858152585
6.74,0.04559141319943196,82.64472323642266,0,100,3.0,5,0.10187570765193393
6.745,0.06149084917446989,86.41224109374863,0,100,3.0,5,0.17648002165838877
6.75,0.08111733445924295,91.81665598492147,0,100,3.0,5,0.2834981383152766
6.755,0.1046628598272375,98.826395638257,0,100,3.0,5,0.42230486412390095
6.76,0.1320831047748631,106.95895384922622,0,100,3.0,5,0.5833456207767568
6.765,0.16303381314489318,115.23602411394728,0,100,3.0,5,0.7472480022563818
6.77,0.19682662652900276,122.32971667135199,0,100,3.0,5,0.8877171618089502
6.775,0.23241585813229,126.89775582948093,0,100,3.0,5,0.9781733827619986
6.78,0.26842527782774417,128.0,0,100,3.0,5,1.0
6.785,0.30321927900592993,125.42125272540896,0,100,3.0,5,0.9489356975328508
6.79,0.3350163137995362,119.74965133212939,0,100,3.0,5,0.8366267590520671
6.795,0.3620352400956416,112.17257946470455,0,100,3.0,5,0.6865857319743476
6.8,0.3826586036805073,104.08785511981466,0,100,3.0,5,0.5264921805903894
6.805,0.39559233134833227,96.70488803956961,0,100,3.0,5,0.38029481266474474
6.81,0.4,90.78889417401182,0,100,3.0,5,0.2631464192873627
6.815,0.39559233134833227,86.60772759605685,0,100,3.0,5,0.18035104150607617
6.82,0.3826586036805073,84.04089578195409,0,100,3.0,5,0.12952268875156617
6.825,0.3620352400956416,82.75786879881116,0,100,3.0,5,0.10411621383784475
6.83,0.3350163137995362,82.37959366821764,0,100,3.0,5,0.09662561719242846
6.835,0.3032192790059296,82.57856812118584,0,100,3.0,5,0.1005657053700166
6.84,0.26842527782774417,83.11531036543767,0,100,3.0,5,0.11119426466213198
6.845,0.23241585813229,83.83263983129649,0,100,3.0,5,0.12539880854052454
6.85,0.19682662652900276,84.63250912217958,0,100,3.0,5,0.14123780439959574
6.855,0.16303381314489318,85.45226040314074,0,100,3.0,5,0.1574705030324899
6.86,0.13208310477486307,86.2475629773933,0,100,3.0,5,0.1732190688592733
6.865,0.10466285982723562,86.98281595132833,0,100,3.0,5,0.18777853368966999
6.87,0.08111733445917907,87.62707318852279,0,100,3.0,5,0.20053610274302547
6.875,0.06149084917398798,88.15320332098976,0,100,3.0,5,0.21095452120771804
6.88,0.04559141333598128,88.5385782151131,0,100,3.0,5,0.21858570722996248
6.885,0.03306217087257399,88.76624892522591,0,100,3.0,5,0.22309403812328532
6.89,0.02345067901074276,88.82603771663241,0,100,3.0,5,0.22427797458678045
6.895,0.016268788896435526,88.71524935893723,0,100,3.0,5,0.22208414572152926
6.9,0.011039026374860051,88.43886075670979,0,100,3.0,5,0.2166111040932631
6.905,0.007326255555493689,88.00914720955005,0,100,3.0,5,0.20810192494158516
6.91,0.0047556414315231815,87.44477763798974,0,100,3.0,5,0.19692628986118307
6.915,0.0030193390635632803,86.76946988444872,0,100,3.0,5,0.18355385909799454
6.92,0.001874953127946523,86.0103405328122,0,100,3.0,5,0.16852159470915234
6.925,0.0011387927410965778,85.1961087935566,0,100,3.0,5,0.15239819393181395
6.93,0.0006765107634274089,84.35531914558466,0,100,3.0,5,0.13574889397197343
6.935,0.00039307957404427924,83.51473332893123,0,100,3.0,5,0.11910363027586592
6.94,0.00022338910511776318,82.69801221580293,0,100,3.0,5,0.10293093496639472
6.945,0.00012417073320013317,81.92476728085217,0,100,3.0,5,0.08761915407628051
6.95,6.750753468904987e-05,81.2100160794701,0,100,3.0,5,0.07346566494000187
6.955,3.5897234866245036e-05,80.56403251225963,0,100,3.0,5,0.06067391113385405
6.96,1.8670050400879738e-05,79.99254590939884,0,100,3.0,5,0.04935734474057114
6.965,9.497421874143672e-06,79.49721667177356,0,100,3.0,5,0.039548844985615
6.97,4.725434140340885e-06,79.07630197143015,0,100,3.0,5,0.031213900424359505
6.975,2.299606063738814e-06,78.72542256815419,0,100,3.0,5,0.024265793428795777
6.98,1.0945633976635486e-06,78.43834933264405,0,100,3.0,5,0.018581174903842604
6.985,5.095703414287532e-07,78.20774277436361,0,100,3.0,5,0.01401470840323979
6.99,2.3202944964797243e-07,78.02579755035103,0,100,3.0,5,0.010411832680218405
6.995,1.0333746954038608e-07,77.88476352268945,0,100,3.0,5,0.007619079657216909
7.0,4.501406988770349e-08,77.77733293361308,0,100,3.0,5,0.005491741259664978
7.005,0.0,77.69689796089891,0,100,3.0,5,0.0038989695227506687
7.01,0.0,77.63769342762592,0,100,3.0,5,0.0027266025272459243
7.015,0.0,77.59484565128201,0,100,3.0,5,0.0018781317085547404
7.02,0.0,77.56435078582085,0,100,3.0,5,0.0012742729865514734
7.025,0.0,77.54300535190977,0,100,3.0,5,0.0008515911269261333
7.03,0.0,77.52830892491497,0,100,3.0,5,0.0005605727705934027
7.035,0.0,77.5183550878223,0,100,3.0,5,0.0003634670855901034
7.04,0.0,77.51172254143796,0,100,3.0,5,0.0002321295334249863
7.045,0.0,77.50737427460564,0,100,3.0,5,0.00014602523971560832
7.05,0.0,77.50456929349846,0,100,3.0,5,9.04810593755032e-05
7.055,0.0,77.5027887592473,0,100,3.0,5,5.522295539198113e-05
7.06,0.0,77.50167650638357,0,100,3.0,5,3.319814620940318e-05
7.065,0.0,77.50099273108047,0,100,3.0,5,1.9658041197479378e-05
7.07,0.0,77.50057901557518,0,100,3.0,5,1.1465654954136962e-05
7.075,0.0,77.50033264507117,0,100,3.0,5,6.587031112242738e-06
7.08,0.0,77.50018823663869,0,100,3.0,5,3.727458191926218e-06
7.085,0.0,77.50010492028098,0,100,3.0,5,2.0776293262437016e-06
7.09,0.0,77.50005760324511,0,100,3.0,5,1.1406583190242906e-06
7.095,0.0,77.50003115061858,0,100,3.0,5,6.168439323245015e-07
7.1,0.0,77.50001659275955,0,100,3.0,5,3.285694960465149e-07
7.105,0.001684486749771458,77.5000087056817,0,100,3.0,5,1.7238973650999488e-07
7.11,0.00456624331333666,77.50000449903288,0,100,3.0,5,8.908976006201592e-08
7.115,0.011079731271581421,77.50000229017026,0,100,3.0,5,4.5349906096618887e-08
7.12,0.024064571490409,77.5000011482821,0,100,3.0,5,2.2738259310631967e-08
7.125,0.046784906529573234,77.50000056710259,0,100,3.0,5,1.1229754235419834e-08
7.13,0.08141644351188804,77.50000027587154,0,100,3.0,5,5.4628028217596484e-09
7.135,0.12682276464025305,77.50000013218568,0,100,3.0,5,2.617538133437289e-09
7.14,0.1768320708657512,77.500000062387,0,100,3.0,5,1.235386182790787e-09
7.145,0.22070063230473494,77.50000002900254,0,100,3.0,5,5.743076333529454e-10
7.15,0.24656126505113576,77.50000001328037,0,100,3.0,5,2.629776352676183e-10
7.155,0.24656126505724016,77.50000000598986,0,100,3.0,5,1.1861110993273127e-10
7.16,0.220700632329898,77.50000000266107,0,100,3.0,5,5.2694412090096365e-11
7.165,0.17683207093748562,77.50000000116447,0,100,3.0,5,2.3058729843031337e-11
7.17,0.12682276483597799,77.50000000050191,0,100,3.0,5,9.938874805667714e-12
7.175,0.08141644409447898,77.50000000021309,0,100,3.0,5,4.219638939692159e-12
7.18,0.04678490952598309,77.50000000008912,0,100,3.0,5,1.7646786122580548e-12
7.185,0.024064605020532023,77.5000000000367,0,100,3.0,5,7.268641134528074e-13
7.19,0.011080171739334697,77.5000000000149,0,100,3.0,5,2.949104107234e-13
7.195,0.004571212771509492,77.50000000000595,0,100,3.0,5,1.1790788367662653e-13
7.2,0.0017299316936037438,77.50000000000234,0,100,3.0,5,4.6431505505115455e-14
7.205,0.0008899431850697582,77.50000000000091,0,100,3.0,5,1.800979607471145e-14
7.21,0.002128806368910263,77.50000000000034,0,100,3.0,5,6.7536735280167935e-15
7.215,0.009309664818487698,77.50000000000013,0,100,3.0,5,2.5326275730062976e-15
7.22,0.03503263543368747,77.50000000000004,0,100,3.0,5,8.442091910020992e-16
7.225,0.10606267793605692,77.50000000000001,0,100,3.0,5,2.814030636673664e-16
7.23,0.25734927343160535,77.5,0,100,3.0,6,0.0
7.235,0.5003202479539708,77.5,0,100,3.0,6,0.0
7.24,0.7793067891790435,77.5,0,100,3.0,6,0.0
7.245,0.9720477407234077,77.50000296948818,1,100,3.0,6,5.880174611694102e-08
7.25,0.967267334488097,77.50000569775776,0,100,3.0,6,1.1282688628042625e-07
7.255,0.7505869905515209,77.50001160514543,0,100,3.0,6,2.298048600258169e-07
7.26,0.4028369574773956,77.50002597622895,0,100,3.0,6,5.143807713763392e-07
7.265,0.04553881263121314,77.50006479633647,0,100,3.0,6,1.2830957717655434e-06
7.27,-0.189138810908105,77.50017625577325,0,100,3.0,6,3.4902133317772686e-06
7.275,-0.22868072635956738,77.50050086841989,0,100,3.0,6,9.918186532500516e-06
7.28,-0.14104670682394166,77.50142865589663,0,100,3.0,6,2.829021577488873e-05
7.285,-0.051158381651102834,77.50398157370557,0,100,3.0,6,7.884304367471847e-05
7.29,-0.008206426846427752,77.51067533757195,0,100,3.0,6,0.00021139282320699983
7.295,0.005350271385530505,77.52730884085351,0,100,3.0,6,0.0005407691258120272
7.3,0.01084668799215426,77.56636304281409,0,100,3.0,6,0.0013141196596849329
7.305,0.016256859896386415,77.65284520055016,0,100,3.0,6,0.0030266376346566454
7.31,0.02345021205790711,77.83322987050369,0,100,3.0,6,0.006598611297102698
7.315,0.0330621597308209,78.1872403295472,0,100,3.0,6,0.01360871939697414
7.32,0.04559141319943196,78.84023424224648,0,100,3.0,6,0.026539291925672896
7.325,0.06149084917446989,79.97095670826675,0,100,3.0,6,0.04892983580726247
7.33,0.08111733445924295,81.80632016868279,0,100,3.0,6,0.08527366670658987
7.335,0.1046628598272375,84.59367894710928,0,100,3.0,6,0.14046889004176796
7.34,0.1320831047748631,88.54439663235735,0,100,3.0,6,0.21870092341301678
7.345,0.16303381314489318,93.75204790615024,0,100,3.0,6,0.3218227308148562
7.35,0.19682662652900276,100.10305003439262,0,100,3.0,6,0.44758514919589354
7.355,0.23241585813229,107.21134158829996,0,100,3.0,6,0.588343397788118
7.36,0.26842527782774417,114.41340788288605,0,100,3.0,6,0.7309585719383376
7.365,0.30321927900592993,120.84835205343285,0,100,3.0,6,0.8583832089788682
7.37,0.3350163137995362,125.61961314314837,0,100,3.0,6,0.9528636265969974
7.375,0.3620352400956416,128.0,0,100,3.0,6,1.0
7.38,0.3826586036805073,127.61649189867344,0,100,3.0,6,0.9924057801717514
7.385,0.39559233134833227,124.55056380219376,0,100,3.0,6,0.9316943327167082
7.39,0.4,119.31727660822673,0,100,3.0,6,0.8280648833312224
7.395,0.39559233134833227,112.73085488286033,0,100,3.0,6,0.6976406907497095
7.4,0.3826586036805073,105.70533944720569,0,100,3.0,6,0.5585215732119938
7.405,0.3620352400956416,99.05756588644317,0,100,3.0,6,0.4268824928008549
7.41,0.3350163137995362,93.36977976270926,0,100,3.0,6,0.3142530646081041
7.415,0.3032192790059296,88.93881976923748,0,100,3.0,6,0.2265112825591581
7.42,0.26842527782774417,85.80451228187178,0,100,3.0,6,0.16444578775983723
7.425,0.23241585813229,83.82672655699294,0,100,3.0,6,0.12528171399986016
7.43,0.19682662652900276,82.7748209960611,0,100,3.0,6,0.1044519009121009
7.435,0.16303381314489318,82.40190901663448,0,100,3.0,6,0.09706750527989062
7.44,0.13208310477486307,82.49126872046433,0,100,3.0,6,0.09883700436563037
7.445,0.10466285982723562,82.87544727441968,0,100,3.0,6,0.10644450048355811
7.45,0.08111733445917907,83.4360460880505,0,100,3.0,6,0.11754546709010898
7.455,0.06149084917398798,84.09372294879006,0,100,3.0,6,0.1305687712631695
7.46,0.04559141333598128,84.79583101125908,0,100,3.0,6,0.14447190121305115
7.465,0.03306217087257399,85.5058631950615,0,100,3.0,6,0.15853194445666324
7.47,0.02345067901074276,86.19614522117905,0,100,3.0,6,0.1722008954688921
7.475,0.016268788896435526,86.8436056995559,0,100,3.0,6,0.1850218950407108
7.48,0.011039026374860051,87.42781600360316,0,100,3.0,6,0.19659041591293377
7.485,0.007326255555493689,87.93044648752333,0,100,3.0,6,0.2065434948024421
7.49,0.0047556414315231815,88.33547851565123,0,100,3.0,6,0.2145639310029947
7.495,0.0030193390635632803,88.62973571355158,0,100,3.0,6,0.22039080620894222
7.5,0.001874953127946523,88.80347070164842,0,100,3.0,6,0.22383110300293904
7.505,0.0011387927410965778,88.85085527781466,0,100,3.0,6,0.22476941144187446
7.51,0.0006765107634274089,88.77028929388132,0,100,3.0,6,0.22317404542339245
7.515,0.00039307957404427924,88.56448531910543,0,100,3.0,6,0.21909871919020651
7.52,0.00022338910511776318,88.24031547557608,0,100,3.0,6,0.21267951436784321
7.525,0.00012417073320013317,87.8084299935687,0,100,3.0,6,0.20412732660532068
7.53,6.750753468904987e-05,87.28267622254438,0,100,3.0,6,0.193716360842463
7.535,3.5897234866245036e-05,86.67936206088412,0,100,3.0,6,0.18176954576008153
7.54,1.8670050400879738e-05,86.016418335048,0,100,3.0,6,0.1686419472286733
7.545,9.497421874143672e-06,85.3125199363333,0,100,3.0,6,0.15470336507590698
7.55,4.725434140340885e-06,84.5862253135029,0,100,3.0,6,0.14032129333669097
7.555,2.299606063738814e-06,83.85518857261796,0,100,3.0,6,0.1258453182696626
7.56,1.0945633976635486e-06,83.13548881550771,0,100,3.0,6,0.1115938379308458
7.565,5.095703414287532e-07,82.44110870951447,0,100,3.0,6,0.09784373682206865
7.57,2.3202944964797243e-07,81.78358009436656,0,100,3.0,6,0.08482336820527833
7.575,1.0333746954038608e-07,81.17180019591906,0,100,3.0,6,0.07270891477067448
7.58,4.501406988770349e-08,80.61200908161038,0,100,3.0,6,0.06162394221010656
7.585,0.0,80.10790842175395,0,100,3.0,6,0.05164175092582074
7.59,0.0,79.6608941015899,0,100,3.0,6,0.04278998220970106
7.595,0.0,79.27037104260374,0,100,3.0,6,0.03505685232878697
7.6,0.0,78.93411763673835,0,100,3.0,6,0.028398369044323756
7.605,0.0,78.64866905740534,0,100,3.0,6,0.022745921928818667
7.61,0.0,78.40969275082458,0,100,3.0,6,0.018013717838110406
7.615,0.0,78.21233488198824,0,100,3.0,6,0.01410564122748992
7.62,0.0,78.05152265334826,0,100,3.0,6,0.010921240660361537
7.625,0.0,77.92221354848724,0,100,3.0,6,0.008360664326479908
7.63,0.0,77.81958813058185,0,100,3.0,6,0.006328477833303938
7.635,0.0,77.739187667373,0,100,3.0,6,0.004736389452930742
7.64,0.0,77.67700135526229,0,100,3.0,6,0.0035049773319265607
7.645,0.0,77.62951022741545,0,100,3.0,6,0.002564558958721814
7.65,0.0,77.59369603358714,0,100,3.0,6,0.001855367001725469
7.655,0.0,77.56702364039619,0,100,3.0,6,0.0013272007999244866
7.66,0.0,77.54740503652089,0,100,3.0,6,0.0009387135944729771
7.665,0.0,77.53315206797399,0,100,3.0,6,0.0006564765935442918
7.67,0.0,77.52292379040485,0,100,3.0,6,0.00045393644366031774
7.675,0.0,77.51567299156609,0,100,3.0,6,0.0003103562686354814
7.68,0.0,77.5105951482266,0,100,3.0,6,0.00020980491537820494
7.685,0.0,77.50708193342838,0,100,3.0,6,0.000140236305512498
7.69,0.0,77.50468043597927,0,100,3.0,6,9.268190057955192e-05
7.695,0.0,77.5030585138007,0,100,3.0,6,6.056462971674357e-05
7.7,0.0,77.5019761697444,0,100,3.0,6,3.913207414644369e-05
7.705,0.0,77.5012624893213,0,100,3.0,6,2.4999788540708772e-05
7.71,0.0,77.5007974819221,0,100,3.0,6,1.579172122982491e-05
7.715,0.0,77.5004980852106,0,100,3.0,6,9.863073477118174e-06
7.72,0.0,77.50030759276243,0,100,3.0,6,6.090945790598054e-06
7.725,0.0,77.5001878184466,0,100,3.0,6,3.7191771604968814e-06
7.73,0.0,77.50011339399136,0,100,3.0,6,2.24542557140183e-06
7.735,0.0,77.50006769108984,0,100,3.0,6,1.3404176205776732e-06
7.74,0.0,77.50003995421815,0,100,3.0,6,7.911726366854613e-07
7.745,0.0,77.50002331757771,0,100,3.0,6,4.6173421215862256e-07
7.75,0.0,77.5000134553158,0,100,3.0,6,2.6644189692843153e-07
7.755,0.0,77.5000076770439,0,100,3.0,6,1.5202067121964941e-07
7.76,0.0,77.50000433095647,0,100,3.0,6,8.576151429062322e-08
7.765,0.0,77.5000024158128,0,100,3.0,6,4.7837877254645684e-08
7.77,0.0,77.5000013323932,0,100,3.0,6,2.6384023696286167e-08
7.775,0.001684486749771458,77.50000072659299,0,100,3.0,6,1.4387979933984537e-08
7.78,0.00456624331333666,77.50000039177765,0,100,3.0,6,7.757973203342321e-09
7.785,0.011079731271581421,77.50000020887083,0,100,3.0,6,4.136056038915551e-09
7.79,0.024064571490409,77.50000011010462,0,100,3.0,6,2.180289550661916e-09
7.795,0.046784906529573234,77.50000005738825,0,100,3.0,6,1.1364009667274087e-09
7.8,0.08141644351188804,77.50000002957536,0,100,3.0,6,5.856507094463133e-10
7.805,0.12682276464025305,77.50000001507047,0,100,3.0,6,2.984251349886054e-10
7.81,0.1768320708657512,77.500000007593,0,100,3.0,6,1.5035647094811054e-10
7.815,0.22070063230473494,77.50000000378259,0,100,3.0,6,7.490274187472492e-11
7.82,0.24656126505113576,77.50000000186319,0,100,3.0,6,3.689475567742841e-11
7.825,0.24656126505724016,77.50000000090742,0,100,3.0,6,1.7968711227416016e-11
7.83,0.220700632329898,77.50000000043697,0,100,3.0,6,8.65286280470785e-12
7.835,0.17683207093748562,77.50000000020806,0,100,3.0,6,4.120022255153911e-12
7.84,0.12682276483597799,77.50000000009796,0,100,3.0,6,1.9397113178591565e-12
7.845,0.08141644409447898,77.50000000004559,0,100,3.0,6,9.027410282449114e-13
7.85,0.04678490952598309,77.50000000002099,0,100,3.0,6,4.156323250367002e-13
7.855,0.024064605020532023,77.50000000000955,0,100,3.0,6,1.8910285878447022e-13
7.86,0.011080171739334697,77.50000000000429,0,100,3.0,6,8.498372522754466e-14
7.865,0.004571212771509492,77.5000000000019,0,100,3.0,6,3.77080105314271e-14
7.87,0.0017299316936037438,77.50000000000084,0,100,3.0,6,1.6602780756374617e-14
7.875,0.0008899431850697582,77.50000000000037,0,100,3.0,6,7.316479655351527e-15
7.88,0.002128806368910263,77.50000000000016,0,100,3.0,6,3.0954337003410305e-15
7.885,0.009309664818487698,77.50000000000007,0,100,3.0,6,1.4070153183368321e-15
7.89,0.03503263543368747,77.50000000000003,0,100,3.0,6,5.628061273347328e-16
7.895,0.10606267793605692,77.50000000000001,0,100,3.0,6,2.814030636673664e-16
7.9,0.25734927343160535,77.5,0,100,3.0,6,0.0
7.905,0.5003202479539708,77.5,0,100,3.0,6,0.0
7.91,0.7793067891790435,77.5,0,100,3.0,6,0.0
7.915,0.9720477407234077,77.50000297262514,1,100,3.0,6,5.8863864154827213e-08
7.92,0.967267334488097,77.50000602692357,0,100,3.0,6,1.193450212231075e-07
7.925,0.7505869905515209,77.50001314884915,0,100,3.0,6,2.603732504761829e-07
7.93,0.4028369574773956,77.50003218277465,0,100,3.0,6,6.372826662597374e-07
7.935,0.04553881263121314,77.5000891336331,0,100,3.0,6,1.7650224375563202e-06
7.94,-0.189138810908105,77.5002690214767,0,100,3.0,6,5.32715795439925e-06
7.945,-0.22868072635956738,77.50083732265789,0,100,3.0,6,1.6580646690828313e-05
7.95,-0.14104670682394166,77.50257317183726,0,100,3.0,6,5.09538977674351e-05
7.955,-0.051158381651102834,77.5076082097914,0,100,3.0,6,0.00015065761963167613
7.96,-0.008206426846427752,77.52135258747315,0,100,3.0,6,0.0004228235143197217
7.965,0.005350271385530505,77.55649700924465,0,100,3.0,6,0.0011187526583099309
7.97,0.01084668799215426,77.64045440057028,0,100,3.0,6,0.0027812752588173757
7.975,0.016256859896386415,77.82751617390053,0,100,3.0,6,0.006485468790109587
7.98,0.02345021205790711,78.21569569973141,0,100,3.0,6,0.014172192073889358
7.985,0.0330621597308209,78.96491975294279,0,100,3.0,6,0.029008311939461205
7.99,0.04559141319943196,80.30785299502509,0,100,3.0,6,0.05560104940643736
7.995,0.06149084917446989,82.53901529227541,0,100,3.0,6,0.0997824810351566
8.0,0.08111733445924295,85.96626012174221,0,100,3.0,6,0.16764871528202394
8.005,0.1046628598272375,90.81658192531896,0,100,3.0,6,0.2636946915904744
8.01,0.1320831047748631,97.10833980159956,0,100,3.0,6,0.38828395646731795
8.015,0.16303381314489318,104.52938760793602,0,100,3.0,6,0.5352353981769508
8.02,0.19682662652900276,112.38094101245923,0,100,3.0,6,0.6907117032170145
8.025,0.23241585813229,119.64223165483207,0,100,3.0,6,0.834499636729348
8.03,0.26842527782774417,125.1719099748606,0,100,3.0,6,0.9439982173239723
8.035,0.30321927900592993,128.0,0,100,3.0,6,1.0
8.04,0.3350163137995362,127.6101393237791,0,100,3.0,6,0.992279986609487
8.045,0.3620352400956416,124.10010403781507,0,100,3.0,6,0.9227743373824767
8.05,0.3826586036805073,118.15277378027952,0,100,3.0,6,0.8050054213916736
8.055,0.39559233134833227,110.8299379581053,0,100,3.0,6,0.6599987714476298
8.06,0.4,103.27489006078626,0,100,3.0,6,0.510393862589827
8.065,0.39559233134833227,96.43814350154825,0,100,3.0,6,0.3750127426049159
8.07,0.3826586036805073,90.9137835998359,0,100,3.0,6,0.26561947722447316
8.075,0.3620352400956416,86.9136909261355,0,100,3.0,6,0.1864097213096139
8.08,0.3350163137995362,84.34894125219122,0,100,3.0,6,0.13562259905329158
8.085,0.3032192790059296,82.95851223358169,0,100,3.0,6,0.10808935116003339
8.09,0.26842527782774417,82.42961246934831,0,100,3.0,6,0.09761608850194681
8.095,0.23241585813229,82.47825904809713,0,100,3.0,6,0.09857938709103227
8.1,0.19682662652900276,82.88510695734854,0,100,3.0,6,0.10663578133363447
8.105,0.16303381314489318,83.49817142324218,0,100,3.0,6,0.11877567174736997
8.11,0.13208310477486307,84.218703403949,0,100,3.0,6,0.1330436317613662
8.115,0.10466285982723562,84.98313005843968,0,100,3.0,6,0.14818079323642938
8.12,0.08111733445917907,85.74806308660983,0,100,3.0,6,0.163327981913066
8.125,0.06149084917398798,86.48049615879853,0,100,3.0,6,0.17783160710492138
8.13,0.04559141333598128,87.1526196872008,0,100,3.0,6,0.19114098390496628
8.135,0.03306217087257399,87.73979816955085,0,100,3.0,6,0.20276828058516538
8.14,0.02345067901074276,88.22034613356011,0,100,3.0,6,0.2122840818526755
8.145,0.016268788896435526,88.57613991279077,0,100,3.0,6,0.2193295032235795
8.15,0.011039026374860051,88.79347868239333,0,100,3.0,6,0.22363324123551145
8.155,0.007326255555493689,88.86386439984123,0,100,3.0,6,0.2250270178186383
8.16,0.0047556414315231815,88.78452238775425,0,100,3.0,6,0.22345588886642082
8.165,0.0030193390635632803,88.55857365850133,0,100,3.0,6,0.21898165660398675
8.17,0.001874953127946523,88.19482866332193,0,100,3.0,6,0.2117787854123154
8.175,0.0011387927410965778,87.70721657209255,0,100,3.0,6,0.2021231004374762
8.18,0.0006765107634274089,87.11390019357708,0,100,3.0,6,0.1903742612589521
8.185,0.00039307957404427924,86.43615452975533,0,100,3.0,6,0.17695355504465995
8.19,0.00022338910511776318,85.6971052748557,0,100,3.0,6,0.16231891633377626
8.195,0.00012417073320013317,84.92043109401514,0,100,3.0,6,0.14693922958445826
8.2,6.750753468904987e-05,84.12913009206147,0,100,3.0,6,0.13126990281309847
8.205,3.5897234866245036e-05,83.3444376315581,0,100,3.0,6,0.11573143824867513
8.21,1.8670050400879738e-05,82.58496182074326,0,100,3.0,6,0.10069231328204475
8.215,9.497421874143672e-06,81.86607755524824,0,100,3.0,6,0.08645698129204434
8.22,4.725434140340885e-06,81.1995932352933,0,100,3.0,6,0.07325927198600607
8.225,2.299606063738814e-06,80.59367928154045,0,100,3.0,6,0.061260975872088036
8.23,1.0945633976635486e-06,80.05302685084085,0,100,3.0,6,0.05055498714536339
8.235,5.095703414287532e-07,79.5791903812813,0,100,3.0,6,0.041172086758045415
8.24,2.3202944964797243e-07,79.17105949996414,0,100,3.0,6,0.03309028712800286
8.245,1.0333746954038608e-07,78.82540422739977,0,100,3.0,6,0.026245628265342033
8.25,4.501406988770349e-08,78.53744138964515,0,100,3.0,6,0.02054339385435946
8.255,0.0,78.30137828670698,0,100,3.0,6,0.01586887696449461
8.26,0.0,78.11090032048983,0,100,3.0,6,0.012097036049303622
8.265,0.0,77.95958084176635,0,100,3.0,6,0.009100610728046602
8.27,0.0,77.84120254425764,0,100,3.0,6,0.006756486024903777
8.275,0.0,77.74998928072644,0,100,3.0,6,0.004950282786662154
8.28,0.0,77.68075457337353,0,100,3.0,6,0.0035792984826442343
8.285,0.0,77.62897810246339,0,100,3.0,6,0.0025540218309582667
8.29,0.0,77.59082417329567,0,100,3.0,6,0.0017984984811024256
8.295,0.0,77.56311690651798,0,100,3.0,6,0.0012498397330292315
8.3,0.0,77.54328612787634,0,100,3.0,6,0.0008571510470562883
8.305,0.0,77.52929615012752,0,100,3.0,6,0.0005801217847033963
8.31,0.0,77.51956731102686,0,100,3.0,6,0.00038747150548240573
8.315,0.0,77.51289764815891,0,100,3.0,6,0.00025539897344380267
8.32,0.0,77.5083897435128,0,100,3.0,6,0.00016613353490680706
8.325,0.0,77.5053857429786,0,100,3.0,6,0.00010664837581393074
8.33,0.0,77.50341193968492,0,100,3.0,6,6.756316207769271e-05
8.335,0.0,77.50213312275217,0,100,3.0,6,4.224005449841435e-05
8.34,0.0,77.50131610073626,0,100,3.0,6,2.606140071804367e-05
8.345,0.0,77.5008013480742,0,100,3.0,6,1.586827869713002e-05
8.35,0.0,77.50048151746557,0,100,3.0,6,9.53499931828185e-06
8.355,0.0,77.5002855365269,0,100,3.0,6,5.654188651540086e-06
8.36,0.0,77.50016709755003,0,100,3.0,6,3.3088623768948633e-06
8.365,0.0,77.50009650221315,0,100,3.0,6,1.910934913937153e-06
8.37,0.0,77.50005500007046,0,100,3.0,6,1.0891103061517737e-06
8.375,0.0,77.50003093484894,0,100,3.0,6,6.125712660728949e-07
8.38,0.0,77.50001717083974,0,100,3.0,6,3.400166285205565e-07
8.385,0.0,77.5000094057591,0,100,3.0,6,1.862526554723805e-07
8.39,0.0,77.50000508457842,0,100,3.0,6,1.0068472116328471e-07
8.395,0.001684486749771458,77.50000271253174,0,100,3.0,6,5.371349977782068e-08
8.4,0.00456624331333666,77.50000142808314,0,100,3.0,6,2.8278874019138535e-08
8.405,0.011079731271581421,77.50000074197783,0,100,3.0,6,1.4692630267547591e-08
8.41,0.024064571490409,77.50000038044087,0,100,3.0,6,7.533482502286362e-09
8.415,0.046784906529573234,77.50000019250507,0,100,3.0,6,3.811981577479792e-09
8.42,0.08141644351188804,77.50000009612934,0,100,3.0,6,1.9035513055809637e-09
8.425,0.12682276464025305,77.50000004737274,0,100,3.0,6,9.38073996918986e-10
8.43,0.1768320708657512,77.5000000230388,0,100,3.0,6,4.562137422512348e-10
8.435,0.22070063230473494,77.50000001105732,0,100,3.0,7,2.1895690980894113e-10
8.44,0.24656126505113576,77.5000000052372,0,100,3.0,7,1.0370687806865288e-10
8.445,0.24656126505724016,77.50000000244798,0,100,3.0,7,4.8474773150404206e-11
8.45,0.220700632329898,77.50000000112921,0,100,3.0,7,2.2360568842072603e-11
8.455,0.17683207093748562,77.50000000051404,0,100,3.0,7,1.0178911618975978e-11
8.46,0.12682276483597799,77.50000000023093,0,100,3.0,7,4.5727997845947045e-12
8.465,0.08141644409447898,77.50000000010237,0,100,3.0,7,2.0272276706597077e-12
8.47,0.04678490952598309,77.50000000004479,0,100,3.0,7,8.869824566795389e-13
8.475,0.024064605020532023,77.50000000001934,0,100,3.0,7,3.829895696512857e-13
8.48,0.011080171739334697,77.50000000000824,0,100,3.0,7,1.632137769270725e-13
8.485,0.004571212771509492,77.50000000000347,0,100,3.0,7,6.86623475348374e-14
8.49,0.0017299316936037438,77.50000000000144,0,100,3.0,7,2.842170943040401e-14
8.495,0.0008899431850697582,77.50000000000058,0,100,3.0,7,1.1537525610362024e-14
8.5,0.002128806368910263,77.50000000000024,0,100,3.0,7,4.783852082345229e-15
8.505,0.009309664818487698,77.5000000000001,0,100,3.0,7,1.969821445671565e-15
8.51,0.03503263543368747,77.50000000000004,0,100,3.0,7,8.442091910020992e-16
8.515,0.10606267793605692,77.50000000000001,0,100,3.0,7,2.814030636673664e-16
8.52,0.25734927343160535,77.5,0,100,3.0,7,0.0
8.525,0.5003202479539708,77.5,0,100,3.0,7,0.0
8.53,0.7793067891790435,77.5,0,100,3.0,7,0.0
8.535,0.9720477407234077,77.5000029632167,1,100,3.0,7,5.867755844249559e-08
8.54,0.967267334488097,77.5000059376048,0,100,3.0,7,1.1757633261719219e-07
8.545,0.7505869905515209,77.50001276355475,0,100,3.0,7,2.5274365841574077e-07
8.55,0.4028369574773956,77.50003064109448,0,100,3.0,7,6.067543461986224e-07
8.555,0.04553881263121314,77.50008298165619,0,100,3.0,7,1.6432011127090117e-06
8.56,-0.189138810908105,77.50024503836143,0,100,3.0,7,4.852244780740965e-06
