Time,ECG,Pressure,R_Peaks,mean_hr,hrv_scale,Phase_Bin,Normalized_Pressure
0.0,0.001684486749771458,77.5,0,100,3.0,0,0.0
0.005,0.00456624331333666,77.5,0,100,3.0,0,0.0
0.01,0.011079731271581421,77.5,0,100,3.0,0,0.0
0.015,0.024064571490409,77.5,0,100,3.0,0,0.0
0.02,0.046784906529573234,77.5,0,100,3.0,0,0.0
0.025,0.08141644351188804,77.5,0,100,3.0,0,0.0
0.03,0.12682276464025305,77.5,0,100,3.0,0,0.0
0.035,0.1768320708657512,77.5,0,100,3.0,0,0.0
0.04,0.22070063230473494,77.5,0,100,3.0,0,0.0
0.045,0.24656126505113576,77.5,0,100,3.0,0,0.0
0.05,0.24656126505724016,77.5,0,100,3.0,0,0.0
0.055,0.220700632329898,77.5,0,100,3.0,0,0.0
0.06,0.17683207093748562,77.5,0,100,3.0,0,0.0
0.065,0.12682276483597799,77.5,0,100,3.0,0,0.0
0.07,0.08141644409447898,77.5,0,100,3.0,0,0.0
0.075,0.04678490952598309,77.5,0,100,3.0,0,0.0
0.08,0.024064605020532023,77.5,0,100,3.0,0,0.0
0.085,0.011080171739334697,77.5,0,100,3.0,0,0.0
0.09,0.004571212771509492,77.5,0,100,3.0,0,0.0
0.095,0.0017299316936037438,77.5,0,100,3.0,0,0.0
0.1,0.0008899431850697582,77.5,0,100,3.0,0,0.0
0.105,0.002128806368910263,77.5,0,100,3.0,0,0.0
0.11,0.009309664818487698,77.5,0,100,3.0,0,0.0
0.115,0.03503263543368747,77.5,0,100,3.0,0,0.0
0.12,0.10606267793605692,77.5,0,100,3.0,0,0.0
0.125,0.25734927343160535,77.5,0,100,3.0,0,0.0
0.13,0.5003202479539708,77.5,0,100,3.0,0,0.0
0.135,0.7793067891790435,77.5,0,100,3.0,0,0.0
0.14,0.9720477407234077,77.5,0,100,3.0,0,0.0
0.145,0.967267334488097,77.5,0,100,3.0,0,0.0
0.15,0.7505869905515209,77.5,0,100,3.0,0,0.0
0.155,0.4028369574773956,77.5,0,100,3.0,0,0.0
0.16,0.04553881263121314,77.5,0,100,3.0,0,0.0
0.165,-0.189138810908105,77.5,0,100,3.0,0,0.0
0.17,-0.22868072635956738,77.5,0,100,3.0,0,0.0
0.175,-0.14104670682394166,77.5,0,100,3.0,0,0.0
0.18,-0.051158381651102834,77.5,0,100,3.0,0,0.0
0.185,-0.008206426846427752,77.5,0,100,3.0,0,0.0
0.19,0.005350271385530505,77.5,0,100,3.0,0,0.0
0.195,0.01084668799215426,77.5,0,100,3.0,0,0.0
0.2,0.016256859896386415,77.5,0,100,3.0,0,0.0
0.205,0.02345021205790711,77.5,0,100,3.0,0,0.0
0.21,0.0330621597308209,77.5,0,100,3.0,0,0.0
0.215,0.04559141319943196,77.5,0,100,3.0,0,0.0
0.22,0.06149084917446989,77.5,0,100,3.0,0,0.0
0.225,0.08111733445924295,77.5,0,100,3.0,0,0.0
0.23,0.1046628598272375,77.5,0,100,3.0,0,0.0
0.235,0.1320831047748631,77.5,0,100,3.0,0,0.0
0.24,0.16303381314489318,77.5,0,100,3.0,0,0.0
0.245,0.19682662652900276,77.5,0,100,3.0,0,0.0
0.25,0.23241585813229,77.5,0,100,3.0,0,0.0
0.255,0.26842527782774417,77.5,0,100,3.0,0,0.0
0.26,0.30321927900592993,77.5,0,100,3.0,0,0.0
0.265,0.3350163137995362,77.5,0,100,3.0,0,0.0
0.27,0.3620352400956416,77.5,0,100,3.0,0,0.0
0.275,0.3826586036805073,77.5,0,100,3.0,0,0.0
0.28,0.39559233134833227,77.5,0,100,3.0,0,0.0
0.285,0.4,77.5,0,100,3.0,0,0.0
0.29,0.39559233134833227,77.5,0,100,3.0,0,0.0
0.295,0.3826586036805073,77.5,0,100,3.0,0,0.0
0.3,0.3620352400956416,77.5,0,100,3.0,0,0.0
0.305,0.3350163137995362,77.5,0,100,3.0,0,0.0
0.31,0.3032192790059296,77.5,0,100,3.0,0,0.0
0.315,0.26842527782774417,77.5,0,100,3.0,0,0.0
0.32,0.23241585813229,77.5,0,100,3.0,0,0.0
0.325,0.19682662652900276,77.5,0,100,3.0,0,0.0
0.33,0.16303381314489318,77.5,0,100,3.0,0,0.0
0.335,0.13208310477486307,77.5,0,100,3.0,0,0.0
0.34,0.10466285982723562,77.5,0,100,3.0,0,0.0
0.345,0.08111733445917907,77.5,0,100,3.0,0,0.0
0.35,0.06149084917398798,77.5,0,100,3.0,0,0.0
0.355,0.04559141333598128,77.5,0,100,3.0,0,0.0
0.36,0.03306217087257399,77.5,0,100,3.0,0,0.0
0.365,0.02345067901074276,77.5,0,100,3.0,0,0.0
0.37,0.016268788896435526,77.5,0,100,3.0,0,0.0
0.375,0.011039026374860051,77.5,0,100,3.0,0,0.0
0.38,0.007326255555493689,77.5,0,100,3.0,0,0.0
0.385,0.0047556414315231815,77.5,0,100,3.0,0,0.0
0.39,0.0030193390635632803,77.5,0,100,3.0,0,0.0
0.395,0.001874953127946523,77.5,0,100,3.0,0,0.0
0.4,0.0011387927410965778,77.5,0,100,3.0,0,0.0
0.405,0.0006765107634274089,77.5,0,100,3.0,0,0.0
0.41,0.00039307957404427924,77.5,0,100,3.0,0,0.0
0.415,0.00022338910511776318,77.5,0,100,3.0,0,0.0
0.42,0.00012417073320013317,77.5,0,100,3.0,0,0.0
0.425,6.750753468904987e-05,77.5,0,100,3.0,0,0.0
0.43,3.5897234866245036e-05,77.5,0,100,3.0,0,0.0
0.435,1.8670050400879738e-05,77.5,0,100,3.0,0,0.0
0.44,9.497421874143672e-06,77.5,0,100,3.0,0,0.0
0.445,4.725434140340885e-06,77.5,0,100,3.0,0,0.0
0.45,2.299606063738814e-06,77.5,0,100,3.0,0,0.0
0.455,1.0945633976635486e-06,77.5,0,100,3.0,0,0.0
0.46,0.001684486749771458,77.5,0,100,3.0,0,0.0
0.465,0.00456624331333666,77.5,0,100,3.0,0,0.0
0.47,0.011079731271581421,77.5,0,100,3.0,0,0.0
0.475,0.024064571490409,77.5,0,100,3.0,0,0.0
0.48,0.046784906529573234,77.5,0,100,3.0,0,0.0
0.485,0.08141644351188804,77.5,0,100,3.0,0,0.0
0.49,0.12682276464025305,77.5,0,100,3.0,0,0.0
0.495,0.1768320708657512,77.5,0,100,3.0,0,0.0
0.5,0.22070063230473494,77.5,0,100,3.0,0,0.0
0.505,0.24656126505113576,77.5,0,100,3.0,0,0.0
0.51,0.24656126505724016,77.5,0,100,3.0,0,0.0
0.515,0.220700632329898,77.5,0,100,3.0,0,0.0
0.52,0.17683207093748562,77.5,0,100,3.0,0,0.0
0.525,0.12682276483597799,77.5,0,100,3.0,0,0.0
0.53,0.08141644409447898,77.5,0,100,3.0,0,0.0
0.535,0.04678490952598309,77.5,0,100,3.0,0,0.0
0.54,0.024064605020532023,77.5,0,100,3.0,0,0.0
0.545,0.011080171739334697,77.5,0,100,3.0,0,0.0
0.55,0.004571212771509492,77.5,0,100,3.0,0,0.0
0.555,0.0017299316936037438,77.5,0,100,3.0,0,0.0
0.56,0.0008899431850697582,77.5,0,100,3.0,0,0.0
0.565,0.002128806368910263,77.5,0,100,3.0,0,0.0
0.57,0.009309664818487698,77.5,0,100,3.0,0,0.0
0.575,0.03503263543368747,77.5,0,100,3.0,0,0.0
0.58,0.10606267793605692,77.5,0,100,3.0,0,0.0
0.585,0.25734927343160535,77.5,0,100,3.0,0,0.0
0.59,0.5003202479539708,77.5,0,100,3.0,0,0.0
0.595,0.7793067891790435,77.5,0,100,3.0,0,0.0
0.6,0.9720477407234077,77.5000029761183,1,100,3.0,0,5.8933035560504224e-08
0.605,0.967267334488097,77.50000618532628,0,100,3.0,0,1.2248170861258217e-07
0.61,0.7505869905515209,77.50001392552794,0,100,3.0,0,2.7575302847298647e-07
0.615,0.4028369574773956,77.50003551779191,0,100,3.0,0,7.033226121719882e-07
0.62,0.04553881263121314,77.50010313559092,0,100,3.0,0,2.0422889290915523e-06
0.625,-0.189138810908105,77.50032572609189,0,100,3.0,0,6.450021621528529e-06
0.63,-0.22868072635956738,77.50105352781613,0,100,3.0,0,2.0861936952983477e-05
0.635,-0.14104670682394166,77.50333849843346,0,100,3.0,0,6.610887987058545e-05
0.64,-0.051158381651102834,77.51010867794061,0,100,3.0,0,0.00020017184040806803
0.645,-0.008206426846427752,77.52887923627338,0,100,3.0,0,0.0005718660648194646
0.65,0.005350271385530505,77.57736547743413,0,100,3.0,0,0.0015319896521609532
0.655,0.01084668799215426,77.6937614840257,0,100,3.0,0,0.003836861069815838
0.66,0.016256859896386415,77.95299178483792,0,100,3.0,0,0.008970134353226137
0.665,0.02345021205790711,78.48782060961162,0,100,3.0,0,0.019560804150725097
0.67,0.0330621597308209,79.50840637712494,0,100,3.0,0,0.03977042330940479
0.675,0.04559141319943196,81.30639038119868,0,100,3.0,0,0.07537406695442934
0.68,0.06149084917446989,84.22371682098306,0,100,3.0,0,0.13314290734619916
0.685,0.08111733445924295,88.56905596488694,0,100,3.0,0,0.2191892270274642
0.69,0.1046628598272375,94.48254071967199,0,100,3.0,0,0.3362879350430097
0.695,0.1320831047748631,101.78187771882364,0,100,3.0,0,0.4808292617588839
0.7,0.16303381314489318,109.85607098931862,0,100,3.0,0,0.6407142770162104
0.705,0.19682662652900276,117.68289868067583,0,100,3.0,0,0.7957009639737789
0.71,0.23241585813229,124.01296766753546,0,100,3.0,0,0.9210488647036725
0.715,0.26842527782774417,127.69015041412591,0,100,3.0,0,0.9938643646361566
0.72,0.30321927900592993,128.0,0,100,3.0,0,1.0
0.725,0.3350163137995362,124.90331438199323,0,100,3.0,0,0.9386794927127372
0.73,0.3620352400956416,119.0509908262225,0,100,3.0,0,0.8227918975489604
0.735,0.3826586036805073,111.57334395352093,0,100,3.0,0,0.6747196822479392
0.74,0.39559233134833227,103.73799888891169,0,100,3.0,0,0.5195643344338948
0.745,0.4,96.61848240541384,0,100,3.0,0,0.3785838100081949
0.75,0.39559233134833227,90.88948241854119,0,100,3.0,0,0.265138265713687
0.755,0.3826586036805073,86.7893676493135,0,100,3.0,0,0.18394787424383177
0.76,0.3620352400956416,84.21448228450262,0,100,3.0,0,0.13296004523767568
0.765,0.3350163137995362,82.8706742557033,0,100,3.0,0,0.10634998526145162
0.77,0.3032192790059296,82.41285373443978,0,100,3.0,0,0.09728423236514412
0.775,0.26842527782774417,82.53508919471457,0,100,3.0,0,0.09970473652900144
0.78,0.23241585813229,83.00723630449004,0,100,3.0,0,0.10905418424732743
0.785,0.19682662652900276,83.67399525905368,0,100,3.0,0,0.12225733186244916
0.79,0.16303381314489318,84.43655035035052,0,100,3.0,0,0.13735743268020822
0.795,0.13208310477486307,85.23167363197578,0,100,3.0,0,0.15310244815793625
0.8,0.10466285982723562,86.01556443973125,0,100,3.0,0,0.1686250384105198
0.805,0.08111733445917907,86.75400535564901,0,100,3.0,0,0.18324763080493095
0.81,0.06149084917398798,87.41763420030695,0,100,3.0,0,0.19638879604568216
0.815,0.04559141333598128,87.98046505761806,0,100,3.0,0,0.20753396153699133
0.82,0.03306217087257399,88.42010861624007,0,100,3.0,0,0.2162397745790113
0.825,0.02345067901074276,88.71867720825321,0,100,3.0,0,0.22215202392580616
0.83,0.016268788896435526,88.86378878992376,0,100,3.0,0,0.2250255205925497
0.835,0.011039026374860051,88.84935272165478,0,100,3.0,0,0.22473965785455013
0.84,0.007326255555493689,88.67597412457343,0,100,3.0,0,0.22130641830838474
0.845,0.0047556414315231815,88.3509063891692,0,100,3.0,0,0.21486943344889498
0.85,0.0030193390635632803,87.88754641372572,0,100,3.0,0,0.20569398839060823
0.855,0.001874953127946523,87.30451845386142,0,100,3.0,0,0.19414888027448354
0.86,0.0011387927410965778,86.62443306399382,0,100,3.0,0,0.18068184285136277
0.865,0.0006765107634274089,85.87243609243906,0,100,3.0,0,0.16579081371166454
0.87,0.00039307957404427924,85.07467708397961,0,100,3.0,0,0.1499936056233586
0.875,0.00022338910511776318,84.25682600304509,0,100,3.0,0,0.13379853471376418
0.88,0.00012417073320013317,83.4427529734118,0,100,3.0,0,0.11767827670122376
0.885,6.750753468904987e-05,82.65346049137668,0,100,3.0,0,0.10204872260151836
0.89,3.5897234866245036e-05,81.90632528007868,0,100,3.0,0,0.087253965942152
0.895,1.8670050400879738e-05,81.21467213191562,0,100,3.0,0,0.07355786399832911
0.9,9.497421874143672e-06,80.58766909939999,0,100,3.0,0,0.06114196236435621
0.905,4.725434140340885e-06,80.03050585017243,0,100,3.0,0,0.05010902673608776
0.91,2.299606063738814e-06,79.54479733357823,0,100,3.0,0,0.04049103630847982
0.915,1.0945633976635486e-06,79.12914419384192,0,100,3.0,0,0.03226028106617671
0.92,5.095703414287532e-07,78.77977938473101,0,100,3.0,0,0.025342166034277518
0.925,2.3202944964797243e-07,78.49123590647207,0,100,3.0,0,0.019628433791526147
0.93,1.0333746954038608e-07,78.25698150946495,0,100,3.0,0,0.014989732860692077
0.935,4.501406988770349e-08,78.06998030229119,0,100,3.0,0,0.01128673865923139
0.94,0.0,77.9231562441036,0,100,3.0,0,0.008379331566407817
0.945,0.0,77.80974762879951,0,100,3.0,0,0.006133616411871556
0.95,0.0,77.72355354312545,0,100,3.0,0,0.004426802834167279
0.955,0.0,77.65908215107021,0,100,3.0,0,0.0031501416053506637
0.96,0.0,77.61161631556492,0,100,3.0,0,0.002210224070592399
0.965,0.0,77.5772147447986,0,100,3.0,0,0.0015290048474969466
0.97,0.0,77.55266706642777,0,100,3.0,0,0.001042912206490556
0.975,0.0,77.53541965668042,0,100,3.0,0,0.0007013793402062909
0.98,0.0,77.52348636988228,0,100,3.0,0,0.0004650766313322339
0.985,0.0,77.51535513982303,0,100,3.0,0,0.00030406217471344875
0.99,0.0,77.50989824011825,0,100,3.0,0,0.0001960047548167684
0.995,0.0,77.50629112804937,0,100,3.0,0,0.00012457679305681935
1.0,0.0,77.50394244274653,0,100,3.0,0,7.80681731987105e-05
1.005,0.0,77.50243595126653,0,100,3.0,0,4.8236658743251e-05
1.01,0.0,77.50148401443865,0,100,3.0,0,2.9386424527632303e-05
1.015,0.0,77.50089140278692,0,100,3.0,0,1.7651540335041004e-05
1.02,0.0,77.50052792980212,0,100,3.0,0,1.045405548748337e-05
1.025,0.0,77.50030827953894,0,100,3.0,0,6.104545325579148e-06
1.03,0.0,77.50017749231459,0,100,3.0,0,3.5146992988441947e-06
1.035,0.0,77.5001007582777,0,100,3.0,0,1.995213419730693e-06
1.04,0.0,77.50005639599301,0,100,3.0,0,1.1167523368975266e-06
1.045,0.0,77.50003112304574,0,100,3.0,0,6.162979355277718e-07
1.05,0.0,77.5000169348855,0,100,3.0,0,3.35344267206424e-07
1.055,0.0,77.50000908549865,0,100,3.0,0,1.7991086429217397e-07
1.06,0.001684486749771458,77.50000480597605,0,100,3.0,0,9.516784252179542e-08
1.065,0.00456624331333666,77.50000250657536,0,100,3.0,0,4.963515556762041e-08
1.07,0.011079731271581421,77.50000128898024,0,100,3.0,0,2.5524361256042774e-08
1.075,0.024064571490409,77.5000006535489,0,100,3.0,0,1.2941562277269936e-08
1.08,0.046784906529573234,77.5000003267204,0,100,3.0,0,6.469710822082309e-09
1.085,0.08141644351188804,77.50000016104258,0,100,3.0,0,3.1889619481937712e-09
1.09,0.12682276464025305,77.50000007826571,0,100,3.0,0,1.5498161170254738e-09
1.095,0.1768320708657512,77.50000003750323,0,100,3.0,0,7.426381621866816e-10
1.1,0.22070063230473494,77.50000001771872,0,100,3.0,0,3.508657215152738e-10
1.105,0.24656126505113576,77.50000000825395,0,100,3.0,0,1.6344452743927976e-10
1.11,0.24656126505724016,77.50000000379104,0,100,3.0,0,7.5070176697607e-11
1.115,0.220700632329898,77.5000000017168,0,100,3.0,0,3.399602271859087e-11
1.12,0.17683207093748562,77.50000000076656,0,100,3.0,0,1.517944406034508e-11
1.125,0.12682276483597799,77.50000000033748,0,100,3.0,0,6.682759955972617e-12
1.13,0.08141644409447898,77.50000000014649,0,100,3.0,0,2.900702780283213e-12
1.135,0.04678490952598309,77.5000000000627,0,100,3.0,0,1.2415503169004206e-12
1.14,0.024064605020532023,77.50000000002646,0,100,3.0,0,5.239725045486363e-13
1.145,0.011080171739334697,77.50000000001101,0,100,3.0,0,2.1808737434220896e-13
1.15,0.004571212771509492,77.50000000000452,0,100,3.0,0,8.948617424622252e-14
1.155,0.0017299316936037438,77.50000000000182,0,100,3.0,0,3.60195921494229e-14
1.16,0.0008899431850697582,77.50000000000072,0,100,3.0,0,1.4351556247035687e-14
1.165,0.002128806368910263,77.50000000000028,0,100,3.0,0,5.6280612733473285e-15
1.17,0.009309664818487698,77.50000000000011,0,100,3.0,0,2.2512245093389313e-15
1.175,0.03503263543368747,77.50000000000004,0,100,3.0,0,8.442091910020992e-16
1.18,0.10606267793605692,77.50000000000001,0,100,3.0,0,2.814030636673664e-16
1.185,0.25734927343160535,77.5,0,100,3.0,0,0.0
1.19,0.5003202479539708,77.5,0,100,3.0,0,0.0
1.195,0.7793067891790435,77.5,0,100,3.0,0,0.0
1.2,0.9720477407234077,77.50000297262514,1,100,3.0,0,5.8863864154827213e-08
1.205,0.967267334488097,77.50000602692357,0,100,3.0,1,1.193450212231075e-07
1.21,0.7505869905515209,77.50001314884915,0,100,3.0,1,2.603732504761829e-07
1.215,0.4028369574773956,77.50003218277465,0,100,3.0,1,6.372826662597374e-07
1.22,0.04553881263121314,77.5000891336331,0,100,3.0,1,1.7650224375563202e-06
1.225,-0.189138810908105,77.5002690214767,0,100,3.0,1,5.32715795439925e-06
1.23,-0.22868072635956738,77.50083732265789,0,100,3.0,1,1.6580646690828313e-05
1.235,-0.14104670682394166,77.50257317183726,0,100,3.0,1,5.09538977674351e-05
1.24,-0.051158381651102834,77.5076082097914,0,100,3.0,1,0.00015065761963167613
1.245,-0.008206426846427752,77.52135258747315,0,100,3.0,1,0.0004228235143197217
1.25,0.005350271385530505,77.55649700924465,0,100,3.0,1,0.0011187526583099309
1.255,0.01084668799215426,77.64045440057028,0,100,3.0,1,0.0027812752588173757
1.26,0.016256859896386415,77.82751617390053,0,100,3.0,1,0.006485468790109587
1.265,0.02345021205790711,78.21569569973141,0,100,3.0,1,0.014172192073889358
1.27,0.0330621597308209,78.96491975294279,0,100,3.0,1,0.029008311939461205
1.275,0.04559141319943196,80.30785299502509,0,100,3.0,1,0.05560104940643736
1.28,0.06149084917446989,82.53901529227541,0,100,3.0,1,0.0997824810351566
1.285,0.08111733445924295,85.96626012174221,0,100,3.0,1,0.16764871528202394
1.29,0.1046628598272375,90.81658192531896,0,100,3.0,1,0.2636946915904744
1.295,0.1320831047748631,97.10833980159956,0,100,3.0,1,0.38828395646731795
1.3,0.16303381314489318,104.52938760793602,0,100,3.0,1,0.5352353981769508
1.305,0.19682662652900276,112.38094101245923,0,100,3.0,1,0.6907117032170145
1.31,0.23241585813229,119.64223165483207,0,100,3.0,1,0.834499636729348
1.315,0.26842527782774417,125.1719099748606,0,100,3.0,1,0.9439982173239723
1.32,0.30321927900592993,128.0,0,100,3.0,1,1.0
1.325,0.3350163137995362,127.6101393237791,0,100,3.0,1,0.992279986609487
1.33,0.3620352400956416,124.10010403781507,0,100,3.0,1,0.9227743373824767
1.335,0.3826586036805073,118.15277378027952,0,100,3.0,1,0.8050054213916736
1.34,0.39559233134833227,110.8299379581053,0,100,3.0,1,0.6599987714476298
1.345,0.4,103.27489006078626,0,100,3.0,1,0.510393862589827
1.35,0.39559233134833227,96.43814350154825,0,100,3.0,1,0.3750127426049159
1.355,0.3826586036805073,90.9137835998359,0,100,3.0,1,0.26561947722447316
1.36,0.3620352400956416,86.9136909261355,0,100,3.0,1,0.1864097213096139
1.365,0.3350163137995362,84.34894125219122,0,100,3.0,1,0.13562259905329158
1.37,0.3032192790059296,82.95851223358169,0,100,3.0,1,0.10808935116003339
1.375,0.26842527782774417,82.42961246934831,0,100,3.0,1,0.09761608850194681
1.38,0.23241585813229,82.47825904809713,0,100,3.0,1,0.09857938709103227
1.385,0.19682662652900276,82.88510695734854,0,100,3.0,1,0.10663578133363447
1.39,0.16303381314489318,83.49817142324218,0,100,3.0,1,0.11877567174736997
1.395,0.13208310477486307,84.218703403949,0,100,3.0,1,0.1330436317613662
1.4,0.10466285982723562,84.98313005843968,0,100,3.0,1,0.14818079323642938
1.405,0.08111733445917907,85.74806308660983,0,100,3.0,1,0.163327981913066
1.41,0.06149084917398798,86.48049615879853,0,100,3.0,1,0.17783160710492138
1.415,0.04559141333598128,87.1526196872008,0,100,3.0,1,0.19114098390496628
1.42,0.03306217087257399,87.73979816955085,0,100,3.0,1,0.20276828058516538
1.425,0.02345067901074276,88.22034613356011,0,100,3.0,1,0.2122840818526755
1.43,0.016268788896435526,88.57613991279077,0,100,3.0,1,0.2193295032235795
1.435,0.011039026374860051,88.79347868239333,0,100,3.0,1,0.22363324123551145
1.44,0.007326255555493689,88.86386439984123,0,100,3.0,1,0.2250270178186383
1.445,0.0047556414315231815,88.78452238775425,0,100,3.0,1,0.22345588886642082
1.45,0.0030193390635632803,88.55857365850133,0,100,3.0,1,0.21898165660398675
1.455,0.001874953127946523,88.19482866332193,0,100,3.0,1,0.2117787854123154
1.46,0.0011387927410965778,87.70721657209255,0,100,3.0,1,0.2021231004374762
1.465,0.0006765107634274089,87.11390019357708,0,100,3.0,1,0.1903742612589521
1.47,0.00039307957404427924,86.43615452975533,0,100,3.0,1,0.17695355504465995
1.475,0.00022338910511776318,85.6971052748557,0,100,3.0,1,0.16231891633377626
1.48,0.00012417073320013317,84.92043109401514,0,100,3.0,1,0.14693922958445826
1.485,6.750753468904987e-05,84.12913009206147,0,100,3.0,1,0.13126990281309847
1.49,3.5897234866245036e-05,83.3444376315581,0,100,3.0,1,0.11573143824867513
1.495,1.8670050400879738e-05,82.58496182074326,0,100,3.0,1,0.10069231328204475
1.5,9.497421874143672e-06,81.86607755524824,0,100,3.0,1,0.08645698129204434
1.505,4.725434140340885e-06,81.1995932352933,0,100,3.0,1,0.07325927198600607
1.51,2.299606063738814e-06,80.59367928154045,0,100,3.0,1,0.061260975872088036
1.515,1.0945633976635486e-06,80.05302685084085,0,100,3.0,1,0.05055498714536339
1.52,5.095703414287532e-07,79.5791903812813,0,100,3.0,1,0.041172086758045415
1.525,2.3202944964797243e-07,79.17105949996414,0,100,3.0,1,0.03309028712800286
1.53,1.0333746954038608e-07,78.82540422739977,0,100,3.0,1,0.026245628265342033
1.535,4.501406988770349e-08,78.53744138964515,0,100,3.0,1,0.02054339385435946
1.54,0.0,78.30137828670698,0,100,3.0,1,0.01586887696449461
1.545,0.0,78.11090032048983,0,100,3.0,1,0.012097036049303622
1.55,0.0,77.95958084176635,0,100,3.0,1,0.009100610728046602
1.555,0.0,77.84120254425764,0,100,3.0,1,0.006756486024903777
1.56,0.0,77.74998928072644,0,100,3.0,1,0.004950282786662154
1.565,0.0,77.68075457337353,0,100,3.0,1,0.0035792984826442343
1.57,0.0,77.62897810246339,0,100,3.0,1,0.0025540218309582667
1.575,0.0,77.59082417329567,0,100,3.0,1,0.0017984984811024256
1.58,0.0,77.56311690651798,0,100,3.0,1,0.0012498397330292315
1.585,0.0,77.54328612787634,0,100,3.0,1,0.0008571510470562883
1.59,0.0,77.52929615012752,0,100,3.0,1,0.0005801217847033963
1.595,0.0,77.51956731102686,0,100,3.0,1,0.00038747150548240573
1.6,0.0,77.51289764815891,0,100,3.0,1,0.00025539897344380267
1.605,0.0,77.5083897435128,0,100,3.0,1,0.00016613353490680706
1.61,0.0,77.5053857429786,0,100,3.0,1,0.00010664837581393074
1.615,0.0,77.50341193968492,0,100,3.0,1,6.756316207769271e-05
1.62,0.0,77.50213312275217,0,100,3.0,1,4.224005449841435e-05
1.625,0.0,77.50131610073626,0,100,3.0,1,2.606140071804367e-05
1.63,0.0,77.5008013480742,0,100,3.0,1,1.586827869713002e-05
1.635,0.0,77.50048151746557,0,100,3.0,1,9.53499931828185e-06
1.64,0.0,77.5002855365269,0,100,3.0,1,5.654188651540086e-06
1.645,0.0,77.50016709755003,0,100,3.0,1,3.3088623768948633e-06
1.65,0.0,77.50009650221315,0,100,3.0,1,1.910934913937153e-06
1.655,0.0,77.50005500007046,0,100,3.0,1,1.0891103061517737e-06
1.66,0.0,77.50003093484894,0,100,3.0,1,6.125712660728949e-07
1.665,0.0,77.50001717083974,0,100,3.0,1,3.400166285205565e-07
1.67,0.0,77.5000094057591,0,100,3.0,1,1.862526554723805e-07
1.675,0.0,77.50000508457842,0,100,3.0,1,1.0068472116328471e-07
1.68,0.001684486749771458,77.50000271253174,0,100,3.0,1,5.371349977782068e-08
1.685,0.00456624331333666,77.50000142808314,0,100,3.0,1,2.8278874019138535e-08
1.69,0.011079731271581421,77.50000074197783,0,100,3.0,1,1.4692630267547591e-08
1.695,0.024064571490409,77.50000038044087,0,100,3.0,1,7.533482502286362e-09
1.7,0.046784906529573234,77.50000019250507,0,100,3.0,1,3.811981577479792e-09
1.705,0.08141644351188804,77.50000009612934,0,100,3.0,1,1.9035513055809637e-09
1.71,0.12682276464025305,77.50000004737274,0,100,3.0,1,9.38073996918986e-10
1.715,0.1768320708657512,77.5000000230388,0,100,3.0,1,4.562137422512348e-10
1.72,0.22070063230473494,77.50000001105732,0,100,3.0,1,2.1895690980894113e-10
1.725,0.24656126505113576,77.5000000052372,0,100,3.0,1,1.0370687806865288e-10
1.73,0.24656126505724016,77.50000000244798,0,100,3.0,1,4.8474773150404206e-11
1.735,0.220700632329898,77.50000000112921,0,100,3.0,1,2.2360568842072603e-11
1.74,0.17683207093748562,77.50000000051404,0,100,3.0,1,1.0178911618975978e-11
1.745,0.12682276483597799,77.50000000023093,0,100,3.0,1,4.5727997845947045e-12
1.75,0.08141644409447898,77.50000000010237,0,100,3.0,1,2.0272276706597077e-12
1.755,0.04678490952598309,77.50000000004479,0,100,3.0,1,8.869824566795389e-13
1.76,0.024064605020532023,77.50000000001934,0,100,3.0,1,3.829895696512857e-13
1.765,0.011080171739334697,77.50000000000824,0,100,3.0,1,1.632137769270725e-13
1.77,0.004571212771509492,77.50000000000347,0,100,3.0,1,6.86623475348374e-14
1.775,0.0017299316936037438,77.50000000000144,0,100,3.0,1,2.842170943040401e-14
1.78,0.0008899431850697582,77.50000000000058,0,100,3.0,1,1.1537525610362024e-14
1.785,0.002128806368910263,77.50000000000024,0,100,3.0,1,4.783852082345229e-15
1.79,0.009309664818487698,77.5000000000001,0,100,3.0,1,1.969821445671565e-15
1.795,0.03503263543368747,77.50000000000004,0,100,3.0,1,8.442091910020992e-16
1.8,0.10606267793605692,77.50000000000001,0,100,3.0,1,2.814030636673664e-16
1.805,0.25734927343160535,77.5,0,100,3.0,1,0.0
1.81,0.5003202479539708,77.5,0,100,3.0,1,0.0
1.815,0.7793067891790435,77.5,0,100,3.0,1,0.0
1.82,0.9720477407234077,77.50000297973715,1,100,3.0,1,5.900469597627937e-08
1.825,0.967267334488097,77.50000723708847,0,100,3.0,1,1.4330868253583134e-07
1.83,0.7505869905515209,77.50002001837449,0,100,3.0,1,3.964034551519926e-07
1.835,0.4028369574773956,77.50006694939644,0,100,3.0,1,1.3257306225924449e-06
1.84,0.04553881263121314,77.50026060037405,0,100,3.0,1,5.1604034464986345e-06
1.845,-0.189138810908105,77.50106733889042,0,100,3.0,1,2.1135423572719214e-05
1.85,-0.22868072635956738,77.50424655315163,0,100,3.0,1,8.409016141844278e-05
1.855,-0.14104670682394166,77.51575017941248,0,100,3.0,1,0.00031188474084115563
1.86,-0.051158381651102834,77.5534826418345,0,100,3.0,1,0.001059062214544678
1.865,-0.008206426846427752,77.66501017465679,0,100,3.0,1,0.003267528211025457
1.87,0.005350271385530505,77.96106088555611,0,100,3.0,1,0.009129918525863529
1.875,0.01084668799215426,78.66498840728725,0,100,3.0,1,0.023069077372024828
1.88,0.016256859896386415,80.16014621890889,0,100,3.0,1,0.05267616275067113
1.885,0.02345021205790711,82.98741056454527,0,100,3.0,1,0.10866159533753013
1.89,0.0330621597308209,87.72440181574063,0,100,3.0,1,0.20246340229189375
1.895,0.04559141319943196,94.70622648833643,0,100,3.0,1,0.3407173562046817
1.9,0.06149084917446989,103.65191071702871,0,100,3.0,1,0.5178596181589844
1.905,0.08111733445924295,113.4008677975167,0,100,3.0,1,0.7109082732181524
1.91,0.1046628598272375,122.01749961027157,0,100,3.0,1,0.8815346457479519
1.915,0.1320831047748631,127.37320735406703,0,100,3.0,1,0.987588264436971
1.92,0.16303381314489318,128.0,0,100,3.0,1,1.0
1.925,0.19682662652900276,123.75648734248648,0,100,3.0,1,0.9159700463858709
1.93,0.23241585813229,115.89857246788875,0,100,3.0,1,0.7603677716413615
1.935,0.26842527782774417,106.50969653979104,0,100,3.0,1,0.5744494364315057
1.94,0.30321927900592993,97.64376058073063,0,100,3.0,1,0.3988863481332798
1.945,0.3350163137995362,90.65903813398302,0,100,3.0,1,0.26057501255411913
1.95,0.3620352400956416,86.01506438531412,0,100,3.0,1,0.16861513634285386
1.955,0.3826586036805073,83.47917414217639,0,100,3.0,1,0.11839948796388891
1.96,0.39559233134833227,82.49674207051957,0,100,3.0,1,0.09894538753504106
1.965,0.4,82.49817958352426,0,100,3.0,1,0.0989738531390943
1.97,0.39559233134833227,83.05007239462468,0,100,3.0,1,0.10990242365593422
1.975,0.3826586036805073,83.87578368056731,0,100,3.0,1,0.12625314218945166
1.98,0.3620352400956416,84.81380345069977,0,100,3.0,1,0.14482779110296565
1.985,0.3350163137995362,85.76779658174533,0,100,3.0,1,0.16371874419297683
1.99,0.3032192790059296,86.67184844008766,0,100,3.0,1,0.1816207611898546
1.995,0.26842527782774417,87.47313875135211,0,100,3.0,1,0.19748789606637843
2.0,0.23241585813229,88.12633333869115,0,100,3.0,1,0.21042244235031987
2.005,0.19682662652900276,88.59381423319475,0,100,3.0,1,0.21967948976623264
2.01,0.16303381314489318,88.84795635900169,0,100,3.0,1,0.22471200710894426
2.015,0.13208310477486307,88.87345600150226,0,100,3.0,1,0.22521695052479726
2.02,0.10466285982723562,88.66876217089471,0,100,3.0,1,0.22116360734444968
2.025,0.08111733445917907,88.24621171797565,0,100,3.0,1,0.21279627164308226
2.03,0.06149084917398798,87.63079423786489,0,100,3.0,1,0.20060978688841366
2.035,0.04559141333598128,86.85770496655505,0,100,3.0,1,0.1853010884466346
2.04,0.03306217087257399,85.9690160102425,0,100,3.0,1,0.1677032873315346
2.045,0.02345067901074276,85.00990271197692,0,100,3.0,1,0.1487109447916222
2.05,0.016268788896435526,84.02489338136556,0,100,3.0,1,0.12920580953199126
2.055,0.011039026374860051,83.05456789767435,0,100,3.0,1,0.10999144351830388
2.06,0.007326255555493689,82.13302764628874,0,100,3.0,1,0.09174312170868788
2.065,0.0047556414315231815,81.28631947492305,0,100,3.0,1,0.07497662326580291
2.07,0.0030193390635632803,80.53184762296321,0,100,3.0,1,0.06003658659333094
2.075,0.001874953127946523,79.87867570655591,0,100,3.0,1,0.047102489238730894
2.08,0.0011387927410965778,79.32852480221729,0,100,3.0,1,0.03620841192509481
2.085,0.0006765107634274089,78.87722286861909,0,100,3.0,1,0.02727173997265516
2.09,0.00039307957404427924,78.51635481060477,0,100,3.0,1,0.020125837833757765
2.095,0.00022338910511776318,78.23489318559248,0,100,3.0,1,0.014552340308762042
2.1,0.00012417073320013317,78.02064397281165,0,100,3.0,1,0.010309781639834752
2.105,6.750753468904987e-05,77.86140588623013,0,100,3.0,1,0.007156552202576843
2.11,3.5897234866245036e-05,77.74580309657692,0,100,3.0,1,0.004867388051028141
2.115,1.8670050400879738e-05,77.66380125672026,0,100,3.0,1,0.0032435892419853908
2.12,9.497421874143672e-06,77.60695100274675,0,100,3.0,1,0.002117841638549592
2.125,4.725434140340885e-06,77.56842113020001,0,100,3.0,1,0.001354873865346692
2.13,2.299606063738814e-06,77.54288776141823,0,100,3.0,1,0.0008492626023411557
2.135,1.0945633976635486e-06,77.52633990865071,0,100,3.0,1,0.0005215823495190519
2.14,5.095703414287532e-07,77.51585013268901,0,100,3.0,1,0.0003138640136437696
2.145,2.3202944964797243e-07,77.50934521487694,0,100,3.0,1,0.000185053759939493
2.15,1.0333746954038608e-07,77.50539862837142,0,100,3.0,1,0.00010690353210740193
2.155,4.501406988770349e-08,77.5030557324445,0,100,3.0,1,6.050955335632073e-05
2.16,0.0,77.50169466932981,0,100,3.0,1,3.355780851105163e-05
2.165,0.0,77.50092085736419,0,100,3.0,1,1.8234799290946223e-05
2.17,0.0,77.50049027247658,0,100,3.0,1,9.708365872925377e-06
2.175,0.0,77.5002557528089,0,100,3.0,1,5.0644120573685925e-06
2.18,0.001684486749771458,77.50013071970616,0,100,3.0,1,2.5885090329409486e-06
2.185,0.00456624331333666,77.50006546353681,0,100,3.0,1,1.2963076596748796e-06
2.19,0.011079731271581421,77.50003212148533,0,100,3.0,1,6.360690164937935e-07
2.195,0.024064571490409,77.50001544292367,0,100,3.0,1,3.0580046868770764e-07
2.2,0.046784906529573234,77.50000727446707,0,100,3.0,1,1.4404885279314965e-07
2.205,0.08141644351188804,77.50000335745801,0,100,3.0,1,6.64843170879706e-08
2.21,0.12682276464025305,77.50000151830055,0,100,3.0,1,3.006535742918792e-08
2.215,0.1768320708657512,77.5000006727329,0,100,3.0,1,1.3321443468679952e-08
2.22,0.22070063230473494,77.50000029205546,0,100,3.0,1,5.7832764495927194e-09
2.225,0.24656126505113576,77.50000012422979,0,100,3.0,1,2.4599957538553686e-09
2.23,0.24656126505724016,77.50000005177546,0,100,3.0,1,1.0252566056860275e-09
2.235,0.220700632329898,77.50000002114267,0,100,3.0,1,4.186666942722254e-10
2.24,0.17683207093748562,77.50000000845928,0,100,3.0,1,1.6751052030620953e-10
2.245,0.12682276483597799,77.50000000331623,0,100,3.0,1,6.566793753435296e-11
2.25,0.08141644409447898,77.50000000127378,0,100,3.0,1,2.522328220876072e-11
2.255,0.04678490952598309,77.50000000047937,0,100,3.0,1,9.49256954669127e-12
2.26,0.024064605020532023,77.50000000017677,0,100,3.0,1,3.5003727089583708e-12
2.265,0.011080171739334697,77.50000000006386,0,100,3.0,1,1.2646253681211446e-12
2.27,0.004571212771509492,77.50000000002261,0,100,3.0,1,4.4771227429478e-13
2.275,0.0017299316936037438,77.50000000000784,0,100,3.0,1,1.5533449114438627e-13
2.28,0.0008899431850697582,77.50000000000266,0,100,3.0,1,5.262237290579752e-14
2.285,0.002128806368910263,77.50000000000088,0,100,3.0,1,1.7446989947376717e-14
2.29,0.009309664818487698,77.50000000000028,0,100,3.0,1,5.6280612733473285e-15
2.295,0.03503263543368747,77.50000000000009,0,100,3.0,1,1.6884183820041984e-15
2.3,0.10606267793605692,77.50000000000003,0,100,3.0,1,5.628061273347328e-16
2.305,0.25734927343160535,77.50000000000001,0,100,3.0,1,2.814030636673664e-16
2.31,0.5003202479539708,77.5,0,100,3.0,1,0.0
2.315,0.7793067891790435,77.5,0,100,3.0,1,0.0
2.32,0.9720477407234077,77.5000029632167,1,100,3.0,1,5.867755844249559e-08
2.325,0.967267334488097,77.50000682291645,0,100,3.0,1,1.3510725637496592e-07
2.33,0.7505869905515209,77.50001756024393,0,100,3.0,1,3.4772760262841426e-07
2.335,0.4028369574773956,77.50005342195217,0,100,3.0,1,1.0578604390880938e-06
2.34,0.04553881263121314,77.50018840392086,0,100,3.0,1,3.7307707100803828e-06
2.345,-0.189138810908105,77.50070967490346,0,100,3.0,1,1.4052968385378857e-05
2.35,-0.22868072635956738,77.50264736798302,0,100,3.0,1,5.242312837655692e-05
2.355,-0.14104670682394166,77.50936430658398,0,100,3.0,1,0.00018543181354407307
2.36,-0.051158381651102834,77.53076934741445,0,100,3.0,1,0.0006092940082069027
2.365,-0.008206426846427752,77.59306177469023,0,100,3.0,1,0.0018428074196084581
2.37,0.005350271385530505,77.75802676786665,0,100,3.0,1,0.005109440947854515
2.375,0.01084668799215426,78.15461689924777,0,100,3.0,1,0.012962710876193472
2.38,0.016256859896386415,79.01828265856908,0,100,3.0,1,0.030065003139981734
2.385,0.02345021205790711,80.71788402888605,0,100,3.0,1,0.06372047581952568
2.39,0.0330621597308209,83.73079902637203,0,100,3.0,1,0.12338215893805991
2.395,0.04559141319943196,88.52107119930265,0,100,3.0,1,0.2182390336495575
2.4,0.06149084917446989,95.30690819667116,0,100,3.0,1,0.3526120434984388
2.405,0.08111733445924295,103.7805137153438,0,100,3.0,1,0.5204062121850258
2.41,0.1046628598272375,112.93009024750643,0,100,3.0,2,0.7015859454951768
2.415,0.1320831047748631,121.13525691684497,0,100,3.0,2,0.8640644934028706
2.42,0.16303381314489318,126.6019505798869,0,100,3.0,2,0.9723158530670674
2.425,0.19682662652900276,128.0,0,100,3.0,2,1.0
2.43,0.23241585813229,124.99911850064926,0,100,3.0,2,0.9405766039732527
2.435,0.26842527782774417,118.41082419885984,0,100,3.0,2,0.8101153306704919
2.44,0.30321927900592993,109.85508918464754,0,100,3.0,2,0.6406948353395553
2.445,0.3350163137995362,101.13977923732722,0,100,3.0,2,0.4681144403431132
2.45,0.3620352400956416,93.67740219718712,0,100,3.0,2,0.3203445979641014
2.455,0.3826586036805073,88.18807433450232,0,100,3.0,2,0.21164503632677856
2.46,0.39559233134833227,84.73520644729146,0,100,3.0,2,0.14327141479785072
2.465,0.4,82.96744827784511,0,100,3.0,2,0.1082663025315863
2.47,0.39559233134833227,82.39155633242602,0,100,3.0,2,0.09686250163219842
2.475,0.3826586036805073,82.55988591100417,0,100,3.0,2,0.10019576061394402
2.48,0.3620352400956416,83.1463378415175,0,100,3.0,2,0.11180867012905926
2.485,0.3350163137995362,83.94360114320315,0,100,3.0,2,0.1275960622416466
2.49,0.3032192790059296,84.8277522116186,0,100,3.0,2,0.14510400419046737
2.495,0.26842527782774417,85.72195777553705,0,100,3.0,2,0.1628110450601396
2.5,0.23241585813229,86.57191545419312,0,100,3.0,2,0.17964189018204194
2.505,0.19682662652900276,87.33344446152883,0,100,3.0,2,0.19472167250552133
2.51,0.16303381314489318,87.96825352116706,0,100,3.0,2,0.20729214893400114
2.515,0.13208310477486307,88.44394081009204,0,100,3.0,2,0.21671169920974345
2.52,0.10466285982723562,88.73561558960037,0,100,3.0,2,0.22248743741782914
2.525,0.08111733445917907,88.82770800558913,0,100,3.0,2,0.22431104961562634
2.53,0.06149084917398798,88.71524935893723,0,100,3.0,2,0.22208414572152926
2.535,0.04559141333598128,88.40429210697437,0,100,3.0,2,0.21592657637573004
2.54,0.03306217087257399,87.9113648010271,0,100,3.0,2,0.2061656396242991
2.545,0.02345067901074276,87.26201550499496,0,100,3.0,2,0.19330723772267253
2.55,0.016268788896435526,86.48861883511692,0,100,3.0,2,0.17799245218053314
2.555,0.011039026374860051,85.62770772453368,0,100,3.0,2,0.1609447074165085
2.56,0.007326255555493689,84.71713506982503,0,100,3.0,2,0.14291356573910957
2.565,0.0047556414315231815,83.79336949573046,0,100,3.0,2,0.12462117813327643
2.57,0.0030193390635632803,82.88918720853592,0,100,3.0,2,0.10671657838684981
2.575,0.001874953127946523,82.03194835275565,0,100,3.0,2,0.08974155153971582
2.58,0.0011387927410965778,81.24255572514794,0,100,3.0,2,0.0741100143593651
2.585,0.0006765107634274089,80.53510165291061,0,100,3.0,2,0.06010102282991311
2.59,0.00039307957404427924,79.91712911156813,0,100,3.0,2,0.047863942803329305
2.595,0.00022338910511776318,79.39037558157813,0,100,3.0,2,0.03743317983323023
2.6,0.00012417073320013317,78.95183743607636,0,100,3.0,2,0.028749256159927926
2.605,6.750753468904987e-05,78.59498841544391,0,100,3.0,2,0.021682938919681337
2.61,3.5897234866245036e-05,78.31100344773567,0,100,3.0,2,0.016059474212587566
2.615,1.8670050400879738e-05,78.0898716426395,0,100,3.0,2,0.011680626586920675
2.62,9.497421874143672e-06,77.92132184618897,0,100,3.0,2,0.008343006855227205
2.625,4.725434140340885e-06,77.79552354015783,0,100,3.0,2,0.005851951290254073
2.63,2.299606063738814e-06,77.70355971062563,0,100,3.0,2,0.00403088535892329
2.635,1.0945633976635486e-06,77.63769342762592,0,100,3.0,2,0.0027266025272459243
2.64,5.095703414287532e-07,77.59146527391141,0,100,3.0,2,0.001811193542800205
2.645,2.3202944964797243e-07,77.55966517374333,0,100,3.0,2,0.0011814885889767574
2.65,1.0333746954038608e-07,77.53822145556238,0,100,3.0,2,0.0007568605061857226
2.655,4.501406988770349e-08,77.52404446821832,0,100,3.0,2,0.00047612808353110806
2.66,0.0,77.51485404628625,0,100,3.0,2,0.0002941395304207059
2.665,0.0,77.50901147768072,0,100,3.0,2,0.00017844510258842634
2.67,0.0,77.5053686969771,0,100,3.0,2,0.00010631083122971762
2.675,0.0,77.5031409672966,0,100,3.0,2,6.2197372209942e-05
2.68,0.0,77.50180459429171,0,100,3.0,2,3.57345404299534e-05
2.685,0.0,77.50101816317644,0,100,3.0,2,2.016164705821103e-05
2.69,0.0,77.50056412693317,0,100,3.0,2,1.1170830359810455e-05
2.695,0.0,77.50030694313577,0,100,3.0,2,6.078081896410565e-06
2.7,0.0,77.50016400634816,0,100,3.0,2,3.2476504585621016e-06
2.705,0.0,77.5000860567684,0,100,3.0,2,1.7040944236790586e-06
2.71,0.001684486749771458,77.50004434361045,0,100,3.0,2,8.780912961324562e-07
2.715,0.00456624331333666,77.50002243875255,0,100,3.0,2,4.443317337036476e-07
2.72,0.011079731271581421,77.50001115033744,0,100,3.0,2,2.207987612415885e-07
2.725,0.024064571490409,77.50000544125342,0,100,3.0,2,1.0774759249837342e-07
2.73,0.046784906529573234,77.50000260754337,0,100,3.0,2,5.163452208375254e-08
2.735,0.08141644351188804,77.50000122711641,0,100,3.0,2,2.42993349270409e-08
2.74,0.12682276464025305,77.50000056710259,0,100,3.0,2,1.1229754235419834e-08
2.745,0.1768320708657512,77.50000025737073,0,100,3.0,2,5.096450082635441e-09
2.75,0.22070063230473494,77.50000011470392,0,100,3.0,2,2.271364808008668e-09
2.755,0.24656126505113576,77.50000005020178,0,100,3.0,2,9.940945932216307e-10
2.76,0.24656126505724016,77.50000002157653,0,100,3.0,2,4.2725792980599007e-10
2.765,0.220700632329898,77.5000000091068,0,100,3.0,2,1.8033265090221308e-10
2.77,0.17683207093748562,77.5000000037746,0,100,3.0,2,7.474459335294387e-11
2.775,0.12682276483597799,77.50000000153638,0,100,3.0,2,3.042332942226998e-11
2.78,0.08141644409447898,77.50000000061411,0,100,3.0,2,1.2160551993321572e-11
2.785,0.04678490952598309,77.50000000024106,0,100,3.0,2,4.7734401689895364e-12
2.79,0.024064605020532023,77.50000000009292,0,100,3.0,2,1.840094633320909e-12
2.795,0.011080171739334697,77.50000000003517,0,100,3.0,2,6.964725825767319e-13
2.8,0.004571212771509492,77.50000000001307,0,100,3.0,2,2.588908185739771e-13
2.805,0.0017299316936037438,77.50000000000477,0,100,3.0,2,9.455142939223511e-14
2.81,0.0008899431850697582,77.5000000000017,0,100,3.0,2,3.376836764008397e-14
2.815,0.002128806368910263,77.5000000000006,0,100,3.0,2,1.1818928674029389e-14
2.82,0.009309664818487698,77.50000000000021,0,100,3.0,2,4.221045955010496e-15
2.825,0.03503263543368747,77.50000000000007,0,100,3.0,2,1.4070153183368321e-15
2.83,0.10606267793605692,77.50000000000003,0,100,3.0,2,5.628061273347328e-16
2.835,0.25734927343160535,77.5,0,100,3.0,2,0.0
2.84,0.5003202479539708,77.5,0,100,3.0,2,0.0
2.845,0.7793067891790435,77.5,0,100,3.0,2,0.0
2.85,0.9720477407234077,77.50000295858521,1,100,3.0,2,5.858584580720963e-08
2.855,0.967267334488097,77.50000627158161,0,100,3.0,2,1.2418973487865964e-07
2.86,0.7505869905515209,77.50001448202111,0,100,3.0,2,2.867726953417611e-07
2.865,0.4028369574773956,77.5000381880034,0,100,3.0,2,7.56198087153937e-07
2.87,0.04553881263121314,77.50011515393722,0,100,3.0,2,2.2802759844742666e-06
2.875,-0.189138810908105,77.5003768133724,0,100,3.0,2,7.461650938574905e-06
2.88,-0.22868072635956738,77.50125530195008,0,100,3.0,2,2.4857464358047304e-05
2.885,-0.14104670682394166,77.50407161723201,0,100,3.0,2,8.062608380226824e-05
2.89,-0.051158381651102834,77.5125498908563,0,100,3.0,2,0.00024851269022388076
2.895,-0.008206426846427752,77.53632357375037,0,100,3.0,2,0.0007192786881260548
2.9,0.005350271385530505,77.59816032657108,0,100,3.0,2,0.0019437688429916036
2.905,0.01084668799215426,77.74699421583978,0,100,3.0,2,0.004890974571084695
2.91,0.016256859896386415,78.0778955905149,0,100,3.0,2,0.011443477039898991
2.915,0.02345021205790711,78.75638253739591,0,100,3.0,2,0.024878862126651635
2.92,0.0330621597308209,80.03714578164362,0,100,3.0,2,0.050240510527596365
2.925,0.04559141319943196,82.2581074321164,0,100,3.0,2,0.09421994915081988
2.93,0.06149084917446989,85.78593960996649,0,100,3.0,2,0.16407801207854436
2.935,0.08111733445924295,90.89811556558197,0,100,3.0,2,0.26530921912043515
2.94,0.1046628598272375,97.61546592808551,0,100,3.0,2,0.39832605798189136
2.945,0.1320831047748631,105.5415466537269,0,100,3.0,2,0.5552781515589484
2.95,0.16303381314489318,113.79708988561208,0,100,3.0,2,0.7187542551606353
2.955,0.19682662652900276,121.12822094684294,0,100,3.0,2,0.8639251672642168
2.96,0.23241585813229,126.20143333597863,0,100,3.0,2,0.9643848185342304
2.965,0.26842527782774417,128.0,0,100,3.0,2,1.0
2.97,0.30321927900592993,126.16275066678318,0,100,3.0,2,0.9636188250848154
2.975,0.3350163137995362,121.1116044575634,0,100,3.0,2,0.8635961278725426
2.98,0.3620352400956416,113.90717007869759,0,100,3.0,2,0.7209340609643087
2.985,0.3826586036805073,105.90088318147954,0,100,3.0,2,0.5623937263659315
2.99,0.39559233134833227,98.34046706321053,0,100,3.0,2,0.41268251610317874
2.995,0.4,92.08499814602648,0,100,3.0,2,0.28881184447577185
3.0,0.39559233134833227,87.50864038323002,0,100,3.0,2,0.1981908986778221
3.005,0.3826586036805073,84.57442275691706,0,100,3.0,2,0.14008757934489227
3.01,0.3620352400956416,82.99710802083918,0,100,3.0,2,0.10885362417503323
3.015,0.3350163137995362,82.40804661099806,0,100,3.0,2,0.09718904180194171
3.02,0.3032192790059296,82.46851319639717,0,100,3.0,2,0.0983863999286568
3.025,0.26842527782774417,82.92004890238644,0,100,3.0,2,0.10732770103735526
3.03,0.23241585813229,83.58796849171559,0,100,3.0,2,0.12055383151912051
3.035,0.19682662652900276,84.36197804515345,0,100,3.0,2,0.13588075336937525
3.04,0.16303381314489318,85.17248310799981,0,100,3.0,2,0.15193035857425366
3.045,0.13208310477486307,85.97196310008664,0,100,3.0,2,0.1677616455462701
3.05,0.10466285982723562,86.72363196440325,0,100,3.0,2,0.18264617751293571
3.055,0.08111733445917907,87.39605351764324,0,100,3.0,2,0.1959614557949156
3.06,0.06149084917398798,87.9615095120021,0,100,3.0,2,0.20715860419806129
3.065,0.04559141333598128,88.39629447802281,0,100,3.0,2,0.2157682074856002
3.07,0.03306217087257399,88.6817572080628,0,100,3.0,2,0.22142093481312486
3.075,0.02345067901074276,88.80541912343043,0,100,3.0,2,0.2238696856124837
3.08,0.016268788896435526,88.761813641984,0,100,3.0,2,0.22300621073235655
3.085,0.011039026374860051,88.55286824522712,0,100,3.0,2,0.21886867812330923
3.09,0.007326255555493689,88.18775826412227,0,100,3.0,2,0.2116387775073716
3.095,0.0047556414315231815,87.68223746822366,0,100,3.0,2,0.20162846471730023
3.1,0.0030193390635632803,87.05751062541435,0,100,3.0,2,0.18925763614681884
3.105,0.001874953127946523,86.33875969754904,0,100,3.0,2,0.17502494450592151
3.11,0.0011387927410965778,85.55346606508107,0,100,3.0,2,0.15947457554615976
3.115,0.0006765107634274089,84.72968388537797,0,100,3.0,2,0.14316205713619734
3.12,0.00039307957404427924,83.8944140290608,0,100,3.0,2,0.12662205998140194
3.125,0.00022338910511776318,83.07220603434823,0,100,3.0,2,0.11034071355145003
3.13,0.00012417073320013317,82.2840812711329,0,100,3.0,2,0.09473428259669119
3.135,6.750753468904987e-05,81.54682943609703,0,100,3.0,2,0.08013523635835698
3.14,3.5897234866245036e-05,80.87268841585063,0,100,3.0,2,0.06678590922476499
3.145,1.8670050400879738e-05,80.26937973963246,0,100,3.0,2,0.054839202764999116
3.15,9.497421874143672e-06,79.7404423296401,0,100,3.0,2,0.04436519464633868
3.155,4.725434140340885e-06,79.28578839837682,0,100,3.0,2,0.03536214650251135
3.16,2.299606063738814e-06,78.90239771037702,0,100,3.0,2,0.02777025169063399
3.165,1.0945633976635486e-06,78.58506900977153,0,100,3.0,2,0.021486515044980795
3.17,5.095703414287532e-07,78.32715803895881,0,100,3.0,2,0.016379367108095323
3.175,2.3202944964797243e-07,78.12124742111936,0,100,3.0,2,0.012301929131076509
3.18,1.0333746954038608e-07,77.95971182173484,0,100,3.0,2,0.009103204390788959
3.185,4.501406988770349e-08,77.83515963913185,0,100,3.0,2,0.006636824537264261
3.19,0.0,77.74074802073012,0,100,3.0,2,0.004767287539210363
3.195,0.0,77.67038003596295,0,100,3.0,2,0.003373862098276232
3.2,0.0,77.61880087924757,0,100,3.0,2,0.0023524926583677777
3.205,0.0,77.5816141709287,0,100,3.0,2,0.001616122196607968
3.21,0.0,77.5552403549693,0,100,3.0,2,0.0010938684152336571
3.215,0.0,77.53683768391573,0,100,3.0,2,0.0007294590874402959
3.22,0.0,77.52420321967791,0,100,3.0,2,0.00047927167679039497
3.225,0.0,77.51566747236087,0,100,3.0,2,0.0003102469774430597
3.23,0.0,77.50999239747283,0,100,3.0,2,0.00019786925688769166
3.235,0.0,77.50627892699517,0,100,3.0,2,0.00012433518802307088
3.24,0.0,77.50388728278739,0,100,3.0,2,7.697589677997649e-05
3.245,0.0,77.50237111056772,0,100,3.0,2,4.695268450935074e-05
3.25,0.0,77.50142495925365,0,100,3.0,2,2.8217014923849084e-05
3.255,0.0,77.5008437194384,0,100,3.0,2,1.6707315611742756e-05
3.26,0.0,77.50049219662667,0,100,3.0,2,9.746467854781015e-06
3.265,0.0,77.50028289428887,0,100,3.0,2,5.601867106388634e-06
3.27,0.0,77.500160197117,0,100,3.0,2,3.172220138565373e-06
3.275,0.0,77.50008937790716,0,100,3.0,2,1.769859547701092e-06
3.28,0.0,77.50004913043793,0,100,3.0,2,9.728799590006794e-07
3.285,0.0,77.50002660823445,0,100,3.0,2,5.268957316743446e-07
3.29,0.0,77.50001419797643,0,100,3.0,2,2.811480480503822e-07
3.295,0.001684486749771458,77.50000746417498,0,100,3.0,2,1.4780544524280167e-07
3.3,0.00456624331333666,77.50000386618065,0,100,3.0,2,7.6558032643865e-08
3.305,0.011079731271581421,77.50000197300162,0,100,3.0,2,3.906933893676528e-08
3.31,0.024064571490409,77.5000009920138,0,100,3.0,2,1.9643837535707885e-08
3.315,0.046784906529573234,77.50000049142014,0,100,3.0,2,9.731091848710877e-09
3.32,0.08141644351188804,77.50000023984637,0,100,3.0,2,4.749433110821946e-09
3.325,0.12682276464025305,77.50000011533426,0,100,3.0,2,2.2838467223006982e-09
3.33,0.1768320708657512,77.50000005464224,0,100,3.0,2,1.0820246085257727e-09
3.335,0.22070063230473494,77.50000002550607,0,100,3.0,2,5.050706607620992e-10
3.34,0.24656126505113576,77.50000001173015,0,100,3.0,2,2.3228021926133627e-10
3.345,0.24656126505724016,77.50000000531507,0,100,3.0,2,1.0524896685755005e-10
3.35,0.220700632329898,77.50000000237279,0,100,3.0,2,4.698586954054017e-11
3.355,0.17683207093748562,77.50000000104365,0,100,3.0,2,2.066624099573139e-11
3.36,0.12682276483597799,77.50000000045226,0,100,3.0,2,8.955652501213936e-12
3.365,0.08141644409447898,77.5000000001931,0,100,3.0,2,3.823704829112175e-12
3.37,0.04678490952598309,77.50000000008123,0,100,3.0,2,1.6084999119226663e-12
3.375,0.024064605020532023,77.50000000003367,0,100,3.0,2,6.66643857827991e-13
3.38,0.011080171739334697,77.50000000001374,0,100,3.0,2,2.7211676256634333e-13
3.385,0.004571212771509492,77.50000000000553,0,100,3.0,2,1.0946579176660553e-13
3.39,0.0017299316936037438,77.50000000000219,0,100,3.0,2,4.333607180477443e-14
3.395,0.0008899431850697582,77.50000000000085,0,100,3.0,2,1.6884183820041984e-14
3.4,0.002128806368910263,77.50000000000033,0,100,3.0,2,6.472270464349428e-15
3.405,0.009309664818487698,77.50000000000013,0,100,3.0,2,2.5326275730062976e-15
3.41,0.03503263543368747,77.50000000000004,0,100,3.0,2,8.442091910020992e-16
3.415,0.10606267793605692,77.50000000000001,0,100,3.0,2,2.814030636673664e-16
3.42,0.25734927343160535,77.5,0,100,3.0,2,0.0
3.425,0.5003202479539708,77.5,0,100,3.0,2,0.0
3.43,0.7793067891790435,77.5,0,100,3.0,2,0.0
3.435,0.9720477407234077,77.5000029768749,1,100,3.0,2,5.8948017741016935e-08
3.44,0.967267334488097,77.50000639791868,0,100,3.0,2,1.2669145904861705e-07
3.445,0.7505869905515209,77.50001503914727,0,100,3.0,2,2.978048964657976e-07
3.45,0.4028369574773956,77.5000405977313,0,100,3.0,2,8.039154712749602e-07
3.455,0.04553881263121314,77.50012568133535,0,100,3.0,2,2.488739313818796e-06
3.46,-0.189138810908105,77.50042139469598,0,100,3.0,2,8.344449425278683e-06
3.465,-0.22868072635956738,77.50143220973679,0,100,3.0,2,2.8360588847345023e-05
3.47,-0.14104670682394166,77.5047186192955,0,100,3.0,2,9.343800585153338e-05
3.475,-0.051158381651102834,77.51471703980556,0,100,3.0,2,0.0002914265308031825
3.48,-0.008206426846427752,77.54295938552251,0,100,3.0,2,0.0008506809014357997
3.485,0.005350271385530505,77.6167303530177,0,100,3.0,2,0.002311492138964373
3.49,0.01084668799215426,77.79449447378158,0,100,3.0,2,0.005831573738249171
3.495,0.016256859896386415,78.1889498680611,0,100,3.0,2,0.013642571644774282
3.5,0.02345021205790711,78.9936054602403,0,100,3.0,2,0.029576345747332738
3.505,0.0330621597308209,80.4996856165681,0,100,3.0,2,0.059399715179566354
3.51,0.04559141319943196,83.07993103850617,0,100,3.0,2,0.11049368393081534
3.515,0.06149084917446989,87.11287313371587,0,100,3.0,2,0.19035392343991814
3.52,0.08111733445924295,92.83655963825184,0,100,3.0,2,0.3036942502624127
3.525,0.1046628598272375,100.1592760486476,0,100,3.0,2,0.44869853561678413
3.53,0.1320831047748631,108.50359714416015,0,100,3.0,2,0.6139326167160426
3.535,0.16303381314489318,116.78654847688122,0,100,3.0,2,0.777951454987747
3.54,0.19682662652900276,123.60821001847575,0,100,3.0,2,0.913033861751995
3.545,0.23241585813229,127.62847233815549,0,100,3.0,2,0.9926430165971384
3.55,0.26842527782774417,128.0,0,100,3.0,2,1.0
3.555,0.30321927900592993,124.66760400991004,0,100,3.0,2,0.934011960592278
3.56,0.3350163137995362,118.39038146372059,0,100,3.0,2,0.8097105240340711
3.565,0.3620352400956416,110.47562935409675,0,100,3.0,2,0.6529827594870644
3.57,0.3826586036805073,102.35298204453142,0,100,3.0,2,0.4921382583075528
3.575,0.39559233134833227,95.17874322086946,0,100,3.0,2,0.35007412318553394
3.58,0.4,89.61569511522995,0,100,3.0,2,0.23991475475702878
3.585,0.39559233134833227,85.82517009686714,0,100,3.0,2,0.16485485340330971
3.59,0.3826586036805073,83.6090618349903,0,100,3.0,2,0.12097152148495643
3.595,0.3620352400956416,82.59933730320935,0,100,3.0,2,0.1009769763011753
3.6,0.3350163137995362,82.41268319594003,0,100,3.0,2,0.09728085536514917
3.605,0.3032192790059296,82.73585255051967,0,100,3.0,2,0.10368024852514192
3.61,0.26842527782774417,83.34863649182353,0,100,3.0,2,0.11581458399650547
3.615,0.23241585813229,84.11012510513392,0,100,3.0,3,0.1308935664382954
3.62,0.19682662652900276,84.93289016428321,0,100,3.0,3,0.14718594384719225
3.625,0.16303381314489318,85.75985479737454,0,100,3.0,3,0.1635614811361296
3.63,0.13208310477486307,86.54900938892803,0,100,3.0,3,0.17918830473124805
3.635,0.10466285982723562,87.2655137876512,0,100,3.0,3,0.19337651064655845
3.64,0.08111733445917907,87.87880541393756,0,100,3.0,3,0.2055208992858922
3.645,0.06149084917398798,88.36243221298648,0,100,3.0,3,0.21509766758389062
3.65,0.04559141333598128,88.69504827525046,0,100,3.0,3,0.2216841242623853
3.655,0.03306217087257399,88.86166481029888,0,100,3.0,3,0.22498346159007676
3.66,0.02345067901074276,88.85467214111144,0,100,3.0,3,0.22484499289329576
3.665,0.016268788896435526,88.67438787319062,0,100,3.0,3,0.22127500738991338
3.67,0.011039026374860051,88.32902560186928,0,100,3.0,3,0.21443615053206486
3.675,0.007326255555493689,87.834072636083,0,100,3.0,3,0.20463510170461374
3.68,0.0047556414315231815,87.21113807884366,0,100,3.0,3,0.19229976393749823
3.685,0.0030193390635632803,86.48638950473932,0,100,3.0,3,0.177948307024541
3.69,0.001874953127946523,85.68873539894074,0,100,3.0,3,0.16215317621664824
3.695,0.0011387927410965778,84.84792859716677,0,100,3.0,3,0.14550353657755982
3.7,0.0006765107634274089,83.99276234682259,0,100,3.0,3,0.12856955142222945
3.705,0.00039307957404427924,83.14950732513329,0,100,3.0,3,0.11187143218085714
3.71,0.00022338910511776318,82.34069963296807,0,100,3.0,3,0.0958554382765954
3.715,0.00012417073320013317,81.58434279250736,0,100,3.0,3,0.08087807509915558
3.72,6.750753468904987e-05,80.89353805575186,0,100,3.0,3,0.06719877338122497
3.725,3.5897234866245036e-05,80.27651326693037,0,100,3.0,3,0.05498046073129437
3.73,1.8670050400879738e-05,79.73698603104926,0,100,3.0,3,0.04429675309008427
3.735,9.497421874143672e-06,79.27477491320202,0,100,3.0,3,0.03514405768716877
3.74,4.725434140340885e-06,78.88656355336967,0,100,3.0,3,0.027456704027122157
3.745,2.299606063738814e-06,78.56672572691414,0,100,3.0,3,0.02112328172107214
3.75,1.0945633976635486e-06,78.30813189638289,0,100,3.0,3,0.01600261180956216
3.755,5.095703414287532e-07,78.10287630828009,0,100,3.0,3,0.011938144718417582
3.76,2.3202944964797243e-07,77.94288469900617,0,100,3.0,3,0.008769994039726167
3.765,1.0333746954038608e-07,77.82038311916784,0,100,3.0,3,0.0063442201815414505
3.77,4.501406988770349e-08,77.72822597134211,0,100,3.0,3,0.004519326165190349
3.775,0.0,77.66009471412842,0,100,3.0,3,0.0031701923589786034
3.78,0.0,77.61058733996865,0,100,3.0,3,0.0021898483162108096
3.785,0.0,77.57522294299544,0,100,3.0,3,0.0014895632276324417
3.79,0.0,77.55038621312866,0,100,3.0,3,0.0009977467946269503
3.795,0.0,77.53323453510313,0,100,3.0,3,0.0006581096060026449
3.8,0.0,77.52158658720883,0,100,3.0,3,0.0004274571724520814
3.805,0.0,77.51380685790998,0,100,3.0,3,0.0002734031269303704
3.81,0.0,77.5086960537223,0,100,3.0,3,0.0001721990836099709
3.815,0.0,77.50539344261945,0,100,3.0,3,0.00010680084394950859
3.82,0.0,77.50329402128571,0,100,3.0,3,6.522814427151136e-05
3.825,0.0,77.50198108554771,0,100,3.0,3,3.922941678637255e-05
3.83,0.0,77.50117326616962,0,100,3.0,3,2.323299345773806e-05
3.835,0.0,77.50068423668777,0,100,3.0,3,1.3549241342076076e-05
3.84,0.0,77.5003929458036,0,100,3.0,3,7.781105021721677e-06
3.845,0.0,77.50022221606024,0,100,3.0,3,4.400318024499038e-06
3.85,0.0,77.5001237470122,0,100,3.0,3,2.4504358850775826e-06
3.855,0.0,77.5000678594742,0,100,3.0,3,1.3437519643534554e-06
3.86,0.0,77.50003664398938,0,100,3.0,3,7.256235519862727e-07
3.865,0.0,77.50001948549742,0,100,3.0,3,3.858514340249307e-07
3.87,0.001684486749771458,77.50001020320788,0,100,3.0,3,2.0204372036811162e-07
3.875,0.00456624331333666,77.50000526112309,0,100,3.0,3,1.0418065530171985e-07
3.88,0.011079731271581421,77.50000267138621,0,100,3.0,3,5.289873688480379e-08
3.885,0.024064571490409,77.50000133570758,0,100,3.0,3,2.6449655051422243e-08
3.89,0.046784906529573234,77.50000065766176,0,100,3.0,3,1.3023005107747354e-08
3.895,0.08141644351188804,77.5000003188675,0,100,3.0,3,6.3142080519058494e-09
3.9,0.12682276464025305,77.500000152242,0,100,3.0,3,3.0146929705074623e-09
3.905,0.1768320708657512,77.50000007157726,0,100,3.0,3,1.4173715138859185e-09
3.91,0.22070063230473494,77.50000003313846,0,100,3.0,3,6.562071810026957e-10
3.915,0.24656126505113576,77.50000001510796,0,100,3.0,3,2.991674762705599e-10
3.92,0.24656126505724016,77.5000000067826,0,100,3.0,3,1.3430889843635165e-10
3.925,0.220700632329898,77.50000000299849,0,100,3.0,3,5.937604643381431e-11
3.93,0.17683207093748562,77.50000000130535,0,100,3.0,3,2.584855981622961e-11
3.935,0.12682276483597799,77.50000000055958,0,100,3.0,3,1.1080808438029887e-11
3.94,0.08141644409447898,77.50000000023623,0,100,3.0,3,4.677763127342632e-12
3.945,0.04678490952598309,77.5000000000982,0,100,3.0,3,1.944495169941502e-12
3.95,0.024064605020532023,77.50000000004019,0,100,3.0,3,7.958078640513122e-13
3.955,0.011080171739334697,77.5000000000162,0,100,3.0,3,3.207994925807977e-13
3.96,0.004571212771509492,77.50000000000644,0,100,3.0,3,1.27475587841317e-13
3.965,0.0017299316936037438,77.50000000000252,0,100,3.0,3,4.9808342269123855e-14
3.97,0.0008899431850697582,77.50000000000097,0,100,3.0,3,1.9135408329380917e-14
3.975,0.002128806368910263,77.50000000000037,0,100,3.0,3,7.316479655351527e-15
3.98,0.009309664818487698,77.50000000000014,0,100,3.0,3,2.8140306366736642e-15
3.985,0.03503263543368747,77.50000000000004,0,100,3.0,3,8.442091910020992e-16
3.99,0.10606267793605692,77.50000000000001,0,100,3.0,3,2.814030636673664e-16
3.995,0.25734927343160535,77.5,0,100,3.0,3,0.0
4.0,0.5003202479539708,77.5,0,100,3.0,3,0.0
4.005,0.7793067891790435,77.5,0,100,3.0,3,0.0
4.01,0.9720477407234077,77.500002958773,1,100,3.0,3,5.858956426729294e-08
4.015,0.967267334488097,77.50000546428119,0,100,3.0,3,1.0820358787184725e-07
4.02,0.7505869905515209,77.50001062202656,0,100,3.0,3,2.1033715970273502e-07
4.025,0.4028369574773956,77.50002239224668,0,100,3.0,3,4.4341082529361227e-07
4.03,0.04553881263121314,77.50005200199026,0,100,3.0,3,1.02974238129178e-06
4.035,-0.189138810908105,77.50013136979197,0,100,3.0,3,2.6013820192614243e-06
4.04,-0.22868072635956738,77.500348976995,0,100,3.0,3,6.910435544541812e-06
4.045,-0.14104670682394166,77.50094026919814,0,100,3.0,3,1.8619192042361908e-05
4.05,-0.051158381651102834,77.50250156884175,0,100,3.0,3,4.953601666833907e-05
4.055,-0.008206426846427752,77.50646349798603,0,100,3.0,3,0.0001279900591293656
4.06,0.005350271385530505,77.51606687857341,0,100,3.0,3,0.0003181560113546874
4.065,0.01084668799215426,77.53822670841546,0,100,3.0,3,0.0007569645230785114
4.07,0.016256859896386415,77.58680716105046,0,100,3.0,3,0.001718953684167497
4.075,0.02345021205790711,77.68785709154544,0,100,3.0,3,0.003719942406840375
4.08,0.0330621597308209,77.887086691764,0,100,3.0,3,0.007665083005227668
4.085,0.04559141319943196,78.2590727582843,0,100,3.0,3,0.015031143728402068
4.09,0.06149084917446989,78.91621161051839,0,100,3.0,3,0.02804379426769086
4.095,0.08111733445924295,80.01343757456958,0,100,3.0,3,0.04977104108058573
4.1,0.1046628598272375,81.74285634130786,0,100,3.0,3,0.08401695725362092
4.105,0.1320831047748631,84.31195179429643,0,100,3.0,3,0.13489013454052343
4.11,0.16303381314489318,87.901396401456,0,100,3.0,3,0.20596824557338608
4.115,0.19682662652900276,92.60462093409878,0,100,3.0,3,0.29910140463561935
4.12,0.23241585813229,98.36041410535273,0,100,3.0,3,0.4130775070366878
4.125,0.26842527782774417,104.89886875963668,0,100,3.0,3,0.542551856626469
4.13,0.30321927900592993,111.72519191704913,0,100,3.0,3,0.6777265726148343
4.135,0.3350163137995362,118.16084139169179,0,100,3.0,3,0.8051651760731048
4.14,0.3620352400956416,123.44597190058819,0,100,3.0,3,0.9098212257542216
4.145,0.3826586036805073,126.8853149889204,0,100,3.0,3,0.9779270294835722
4.15,0.39559233134833227,128.0,0,100,3.0,3,1.0
4.155,0.4,126.63996232829166,0,100,3.0,3,0.9730685609562705
4.16,0.39559233134833227,123.02080083428294,0,100,3.0,3,0.901401996718474
4.165,0.3826586036805073,117.67285691971338,0,100,3.0,3,0.7955021172220472
4.17,0.3620352400956416,111.31932295360359,0,100,3.0,3,0.6696895634376948
4.175,0.3350163137995362,104.72219297741232,0,100,3.0,3,0.5390533262853925
4.18,0.3032192790059296,98.54122587220695,0,100,3.0,3,0.416657938063504
4.185,0.26842527782774417,93.24077000881171,0,100,3.0,3,0.31169841601607345
4.19,0.23241585813229,89.05862778667502,0,100,3.0,3,0.22888371854802017
4.195,0.19682662652900276,86.02983062093439,0,100,3.0,3,0.16890753704820574
4.2,0.16303381314489318,84.04430011310514,0,100,3.0,3,0.12959010124960668
4.205,0.13208310477486307,82.91403914295742,0,100,3.0,3,0.10720869590014695
4.21,0.10466285982723562,82.43084219355964,0,100,3.0,3,0.09764043947642854
4.215,0.08111733445917907,82.40487403519835,0,100,3.0,3,0.09712621851877914
4.22,0.06149084917398798,82.6832394412119,0,100,3.0,3,0.10263840477647318
4.225,0.04559141333598128,83.1531724022942,0,100,3.0,3,0.11194400796622184
4.23,0.03306217087257399,83.73628303404763,0,100,3.0,3,0.12349075314945804
4.235,0.02345067901074276,84.3794760785732,0,100,3.0,3,0.13622724908065753
4.24,0.016268788896435526,85.04618667950153,0,100,3.0,3,0.14942943919805013
4.245,0.011039026374860051,85.70962794829856,0,100,3.0,3,0.16256689006531805
4.25,0.007326255555493689,86.34837941821235,0,100,3.0,3,0.17521543402400686
4.255,0.0047556414315231815,86.9439438761245,0,100,3.0,3,0.18700878962622758
4.26,0.0030193390635632803,87.47968669983455,0,100,3.0,3,0.19761755841256526
4.265,0.001874953127946523,87.94062017392422,0,100,3.0,3,0.2067449539390934
4.27,0.0011387927410965778,88.31363393334613,0,100,3.0,3,0.21413136501675495
4.275,0.0006765107634274089,88.58790904639335,0,100,3.0,3,0.21956255537412572
4.28,0.00039307957404427924,88.75535462171156,0,100,3.0,3,0.22287830934082298
4.285,0.00022338910511776318,88.81097155676089,0,100,3.0,3,0.22397963478734437
4.29,0.00012417073320013317,88.75308856210596,0,100,3.0,3,0.2228334368733853
4.295,6.750753468904987e-05,88.58344151123836,0,100,3.0,3,0.2194740893314527
4.3,3.5897234866245036e-05,88.30708565167193,0,100,3.0,3,0.2140016960727114
4.305,1.8670050400879738e-05,87.9321449759833,0,100,3.0,3,0.20657712823729318
4.31,9.497421874143672e-06,87.46941544648372,0,100,3.0,3,0.19741416725710342
4.315,4.725434140340885e-06,86.93184890432175,0,100,3.0,3,0.18676928523409414
4.32,2.299606063738814e-06,86.3339520046189,0,100,3.0,3,0.17492974266572067
4.325,1.0945633976635486e-06,85.69113900207235,0,100,3.0,3,0.1622007723182643
4.33,5.095703414287532e-07,85.01907845595186,0,100,3.0,3,0.14889264269211597
4.335,2.3202944964797243e-07,84.33307199951354,0,100,3.0,3,0.1353083564260106
4.34,1.0333746954038608e-07,83.64749858354884,0,100,3.0,3,0.12173264521878888
4.345,4.501406988770349e-08,82.9753506563806,0,100,3.0,3,0.10842278527486333
4.35,0.0,82.32788034858761,0,100,3.0,3,0.09560159106114084
4.355,0.0,81.71436473001928,0,100,3.0,3,0.08345276693107492
4.36,0.0,81.1419904202965,0,100,3.0,3,0.072118622184089
4.365,0.0,80.6158499811668,0,100,3.0,3,0.06169999962706542
4.37,0.0,80.13903615377343,0,100,3.0,3,0.05225814165887985
4.375,0.0,79.71281547685754,0,100,3.0,3,0.04381812825460481
4.38,0.0,79.3368602696585,0,100,3.0,3,0.03637347068630696
4.385,0.0,79.00951732219087,0,100,3.0,3,0.02989143212259156
4.39,0.0,78.72809267612408,0,100,3.0,3,0.024318666853942135
4.395,0.0,78.48913425373082,0,100,3.0,3,0.019586816905560887
4.4,0.0,78.28869738715993,0,100,3.0,3,0.015617770042770854
4.405,0.0,78.12258208905189,0,100,3.0,3,0.012328358199047306
4.41,0.0,77.98653479275193,0,100,3.0,3,0.009634352331721292
4.415,0.0,77.87641094495675,0,100,3.0,3,0.007453682078351399
4.42,0.0,77.78829800908163,0,100,3.0,3,0.005708871466962949
4.425,0.0,77.71860097946956,0,100,3.0,3,0.0043287322667238904
4.43,0.0,77.66409434843045,0,100,3.0,3,0.00324939303822679
4.435,0.0,77.62194561942003,0,100,3.0,3,0.002414764740990731
4.44,0.0,77.58971598801718,0,100,3.0,3,0.0017765542181618933
4.445,0.0,77.56534382372206,0,100,3.0,3,0.0012939371034071253
4.45,0.0,77.54711620521454,0,100,3.0,3,0.0009329941626640785
4.455,0.0,77.53363311752659,0,100,3.0,3,0.0006660023272592307
4.46,0.0,77.5237681295009,0,100,3.0,3,0.00047065602972067364
4.465,0.0,77.5166285333287,0,100,3.0,3,0.00032927788769701567
4.47,0.0,77.51151712141865,0,100,3.0,3,0.0002280618102702755
4.475,0.0,77.50789705214179,0,100,3.0,3,0.00015637727013437269
4.48,0.0,77.505360645962,0,100,3.0,3,0.00010615140518811725
4.485,0.0,77.50360246944363,0,100,3.0,3,7.133602858683087e-05
4.49,0.0,77.50239670480131,0,100,3.0,3,4.745950101610646e-05
4.495,0.0,77.50157855546459,0,100,3.0,3,3.1258524051290716e-05
4.5,0.0,77.50102928633274,0,100,3.0,3,2.0381907578968532e-05
4.505,0.0,77.5006644214217,0,100,3.0,3,1.31568598357091e-05
4.51,0.0,77.50042460206915,0,100,3.0,3,8.407961765255599e-06
4.515,0.0,77.50026862822737,0,100,3.0,3,5.319370839094635e-06
4.52,0.0,77.50016824890496,0,100,3.0,3,3.3316614842713553e-06
4.525,0.0,77.50010432392213,0,100,3.0,3,2.06582024020463e-06
4.53,0.0,77.5000640393074,0,100,3.0,3,1.2681050971013523e-06
4.535,0.0,77.50003891709427,0,100,3.0,3,7.706355301486315e-07
4.54,0.0,77.50002341344106,0,100,3.0,3,4.636324961616578e-07
4.545,0.0,77.50001394508438,0,100,3.0,3,2.761402846758891e-07
4.55,0.0,77.50000822257998,0,100,3.0,3,1.6282336591442313e-07
4.555,0.0,77.500004799833,0,100,3.0,3,9.504619788683635e-08
4.56,0.0,77.5000027738004,0,100,3.0,3,5.4926740665113096e-08
4.565,0.0,77.50000158692114,0,100,3.0,3,3.1424181065856394e-08
4.57,0.0,77.5000008988072,0,100,3.0,3,1.779816239823139e-08
4.575,0.0,77.50000050397477,0,100,3.0,3,9.979698510920067e-09
4.58,0.001684486749771458,77.50000027975774,0,100,3.0,3,5.539757273371572e-09
4.585,0.00456624331333666,77.50000015373986,0,100,3.0,3,3.044353697627194e-09
4.59,0.011079731271581421,77.50000008364152,0,100,3.0,3,1.6562678005771382e-09
4.595,0.024064571490409,77.50000004504935,0,100,3.0,3,8.920662844277536e-10
4.6,0.046784906529573234,77.50000002402072,0,100,3.0,3,4.756578497414588e-10
4.605,0.08141644351188804,77.50000001267986,0,100,3.0,3,2.5108638600622637e-10
4.61,0.12682276464025305,77.50000000662635,0,100,3.0,3,1.3121487175132896e-10
4.615,0.1768320708657512,77.50000000342818,0,100,3.0,3,6.788483086992447e-11
4.62,0.22070063230473494,77.50000000175585,0,100,3.0,3,3.476931833754879e-11
4.625,0.24656126505113576,77.50000000089031,0,100,3.0,3,1.7629901938760507e-11
4.63,0.24656126505724016,77.50000000044692,0,100,3.0,3,8.849844949275007e-12
4.635,0.220700632329898,77.50000000022209,0,100,3.0,3,4.397767078993602e-12
4.64,0.17683207093748562,77.50000000010927,0,100,3.0,3,2.1637081565383805e-12
4.645,0.12682276483597799,77.50000000005322,0,100,3.0,3,1.0538544734342872e-12
4.65,0.08141644409447898,77.50000000002566,0,100,3.0,3,5.082139329832637e-13
4.655,0.04678490952598309,77.50000000001225,0,100,3.0,3,2.4256944088126986e-13
4.66,0.024064605020532023,77.50000000000578,0,100,3.0,3,1.1453104691261813e-13
4.665,0.011080171739334697,77.50000000000271,0,100,3.0,3,5.374798516046698e-14
4.67,0.004571212771509492,77.50000000000125,0,100,3.0,3,2.4763469602728244e-14
4.675,0.0017299316936037438,77.50000000000057,0,100,3.0,3,1.1256122546694657e-14
4.68,0.0008899431850697582,77.50000000000026,0,100,3.0,3,5.065255146012595e-15
4.685,0.002128806368910263,77.50000000000011,0,100,3.0,3,2.2512245093389313e-15
4.69,0.009309664818487698,77.50000000000006,0,100,3.0,3,1.1256122546694657e-15
4.695,0.03503263543368747,77.50000000000003,0,100,3.0,3,5.628061273347328e-16
4.7,0.10606267793605692,77.50000000000001,0,100,3.0,3,2.814030636673664e-16
4.705,0.25734927343160535,77.5,0,100,3.0,3,0.0
4.71,0.5003202479539708,77.5,0,100,3.0,3,0.0
4.715,0.7793067891790435,77.5,0,100,3.0,3,0.0
4.72,0.9720477407234077,77.50000295860458,1,100,3.0,3,5.8586229359585414e-08
4.725,0.967267334488097,77.50000607194025,0,100,3.0,3,1.2023644056189188e-07
4.73,0.7505869905515209,77.50001345273148,0,100,3.0,3,2.663907223742883e-07
4.735,0.4028369574773956,77.5000335974731,0,100,3.0,3,6.65296497145121e-07
4.74,0.04553881263121314,77.5000952391376,0,100,3.0,3,1.8859235166978084e-06
4.745,-0.189138810908105,77.50029396174413,0,100,3.0,3,5.821024636320949e-06
4.75,-0.22868072635956738,77.50093256649718,0,100,3.0,3,1.8466663310573943e-05
4.755,-0.14104670682394166,77.5029100232732,0,100,3.0,3,5.762422323172278e-05
4.76,-0.051158381651102834,77.50870714352278,0,100,3.0,3,0.00017241868361948757
4.765,-0.008206426846427752,77.5246562773498,0,100,3.0,3,0.00048824311583773423
4.77,0.005350271385530505,77.56565066778992,0,100,3.0,3,0.0013000132235628605
4.775,0.01084668799215426,77.66383990810884,0,100,3.0,3,0.0032443546160166505
4.78,0.016256859896386415,77.88262038992832,0,100,3.0,3,0.007576641384719209
4.785,0.02345021205790711,78.33545183145863,0,100,3.0,3,0.016543600622943112
4.79,0.0330621597308209,79.20484989603223,0,100,3.0,3,0.03375940388182632
4.795,0.04559141319943196,80.75054676642503,0,100,3.0,3,0.06436726270148578
4.8,0.06149084917446989,83.28992906835192,0,100,3.0,3,0.11465206075944404
4.805,0.08111733445924295,87.13394030962314,0,100,3.0,3,0.19077109524006222
4.81,0.1046628598272375,92.47378991953458,0,100,3.0,3,0.2965106914759323
4.815,0.1320831047748631,99.23955414039685,0,100,3.0,3,0.43048622060191777
4.82,0.16303381314489318,106.98246625036123,0,100,3.0,4,0.5838112128784402
4.825,0.19682662652900276,114.8494723141842,0,100,3.0,4,0.7395935111719643
4.83,0.23241585813229,121.70177762100317,0,100,3.0,4,0.8752827251683797
4.835,0.26842527782774417,126.37413972136399,0,100,3.0,4,0.9678047469577027
4.84,0.30321927900592993,128.0,0,100,3.0,4,1.0
4.845,0.3350163137995362,126.27952255457706,0,100,3.0,4,0.9659311396945952
4.85,0.3620352400956416,121.57753056726469,0,100,3.0,4,0.8728223874705879
4.855,0.3826586036805073,114.80819134861454,0,100,3.0,4,0.7387760663091989
4.86,0.39559233134833227,107.1570555269131,0,100,3.0,4,0.5872684262755069
4.865,0.4,99.75682326894582,0,100,3.0,4,0.44072917364249153
4.87,0.39559233134833227,93.437628290086,0,100,3.0,4,0.3155965998036831
4.875,0.3826586036805073,88.6210265304858,0,100,3.0,4,0.2202183471383328
4.88,0.3620352400956416,85.35521064557099,0,100,3.0,4,0.15554872565487113
4.885,0.3350163137995362,83.43676931776182,0,100,3.0,4,0.11755978847053099
4.89,0.3032192790059296,82.55078966163666,0,100,3.0,4,0.1000156368640922
4.895,0.26842527782774417,82.37990978446584,0,100,3.0,4,0.0966318769201156
4.9,0.23241585813229,82.66385053700031,0,100,3.0,4,0.10225446607921415
4.905,0.19682662652900276,83.21572546574443,0,100,3.0,4,0.11318268248998865
4.91,0.16303381314489318,83.91239791841033,0,100,3.0,4,0.12697817660218486
4.915,0.13208310477486307,84.67546318988141,0,100,3.0,4,0.14208837999765173
4.92,0.10466285982723562,85.45331282711224,0,100,3.0,4,0.1574913431111335
4.925,0.08111733445917907,86.20847512306442,0,100,3.0,4,0.17244505194186965
4.93,0.06149084917398798,86.91043201717129,0,100,3.0,4,0.1863451884588374
4.935,0.04559141333598128,87.53247338289246,0,100,3.0,4,0.19866283926519726
4.94,0.03306217087257399,88.0509704560115,0,100,3.0,4,0.20893010803983164
4.945,0.02345067901074276,88.44584531855038,0,100,3.0,4,0.21674941224852243
4.95,0.016268788896435526,88.70146811501344,0,100,3.0,4,0.22181124980224634
4.955,0.011039026374860051,88.80754517288817,0,100,3.0,4,0.2239117856017459
4.96,0.007326255555493689,88.75976200907462,0,100,3.0,4,0.22296558433811128
4.965,0.0047556414315231815,88.56006114259078,0,100,3.0,4,0.21901111173447094
4.97,0.0030193390635632803,88.21650740561338,0,100,3.0,4,0.2122080674378888
4.975,0.001874953127946523,87.74274663539316,0,100,3.0,4,0.20282666604738933
4.98,0.0011387927410965778,87.15710631316468,0,100,3.0,4,0.19122982798345892
4.985,0.0006765107634274089,86.48142019658886,0,100,3.0,4,0.17784990488294766
4.99,0.00039307957404427924,85.73968176817759,0,100,3.0,4,0.16316201521143742
4.995,0.00022338910511776318,84.95664182706211,0,100,3.0,4,0.14765627380321017
5.0,0.00012417073320013317,84.15646337911748,0,100,3.0,4,0.13181115602212837
5.005,6.750753468904987e-05,83.36153323734182,0,100,3.0,4,0.11606996509587757
5.01,3.5897234866245036e-05,82.59150690834363,0,100,3.0,4,0.10082191897710163
5.015,1.8670050400879738e-05,81.86263483969579,0,100,3.0,4,0.08638880870684726
5.02,9.497421874143672e-06,81.18738775969096,0,100,3.0,4,0.07301757939982106
5.025,4.725434140340885e-06,80.57437030471705,0,100,3.0,4,0.06087861989538713
5.03,2.299606063738814e-06,80.02848839135753,0,100,3.0,4,0.0500690770565847
5.035,1.0945633976635486e-06,79.55131885537037,0,100,3.0,4,0.040620175353868686
5.04,5.095703414287532e-07,79.14162062723075,0,100,3.0,4,0.03250733915308417
5.045,2.3202944964797243e-07,78.79592494440962,0,100,3.0,4,0.025661880087319212
5.05,1.0333746954038608e-07,78.50914673365939,0,100,3.0,4,0.019983103636819648
5.055,4.501406988770349e-08,78.2751686651716,0,100,3.0,4,0.015349874557853577
5.06,0.0,78.08736155817212,0,100,3.0,4,0.01163092194400237
5.065,0.0,77.93901792246764,0,100,3.0,4,0.008693424207280032
5.07,0.0,77.82368785280029,0,100,3.0,4,0.0064096604514908995
5.075,0.0,77.73541708275205,0,100,3.0,4,0.004661724410931694
5.08,0.0,77.66889506741865,0,100,3.0,4,0.0033444567805672436
5.085,0.0,77.61952627338034,0,100,3.0,4,0.0023668568986206853
5.09,0.0,77.583440560487,0,100,3.0,4,0.0016522883264753596
5.095,0.0,77.55745905335685,0,100,3.0,4,0.0011378030367693284
5.1,0.0,77.53903077198105,0,100,3.0,4,0.0007728865738821098
5.105,0.0,77.52615310372167,0,100,3.0,4,0.0005178832420132368
5.11,0.0,77.51728648731061,0,100,3.0,4,0.00034230667941809016
5.115,0.0,77.51127087641395,0,100,3.0,4,0.00022318567156327782
5.12,0.0,77.50724896569103,0,100,3.0,4,0.0001435438750699704
5.125,0.0,77.50459898318086,0,100,3.0,4,9.10689738783267e-05
5.13,0.0,77.50287816056776,0,100,3.0,4,5.699327856952082e-05
5.135,0.0,77.50177678810005,0,100,3.0,4,3.518392277317274e-05
5.14,0.0,77.50108199106754,0,100,3.0,4,2.1425565693793897e-05
5.145,0.0,77.5006499487824,0,100,3.0,4,1.2870272918730328e-05
5.15,0.0,77.50038512526845,0,100,3.0,4,7.626242939628661e-06
5.155,0.0,77.50022510871771,0,100,3.0,4,4.457598370580323e-06
5.16,0.0,77.5001297926306,0,100,3.0,4,2.5701511010358426e-06
5.165,0.0,77.50007382019291,0,100,3.0,4,1.4617859982094934e-06
5.17,0.0,77.50004141596045,0,100,3.0,4,8.201180287752583e-07
5.175,0.0,77.50002292069169,0,100,3.0,4,4.5387508299598373e-07
5.18,0.0,77.50001251281783,0,100,3.0,4,2.477785709414651e-07
5.185,0.0,77.50000673829383,0,100,3.0,4,1.334315610696793e-07
5.19,0.001684486749771458,77.50000357941612,0,100,3.0,4,7.087952705732466e-08
5.195,0.00456624331333666,77.50000187560704,0,100,3.0,4,3.714073347221682e-08
5.2,0.011079731271581421,77.50000096948018,0,100,3.0,4,1.919762739096696e-08
5.205,0.024064571490409,77.5000004943146,0,100,3.0,4,9.788408024718646e-09
5.21,0.046784906529573234,77.5000002486196,0,100,3.0,4,4.923160387610695e-09
5.215,0.08141644351188804,77.50000012334874,0,100,3.0,4,2.442549326714119e-09
5.22,0.12682276464025305,77.50000006036726,0,100,3.0,4,1.1953912095609352e-09
5.225,0.1768320708657512,77.5000000291431,0,100,3.0,4,5.770909910556793e-10
5.23,0.22070063230473494,77.50000001387833,0,100,3.0,4,2.748185133806137e-10
5.235,0.24656126505113576,77.50000000651939,0,100,3.0,4,1.290967508911047e-10
5.24,0.24656126505724016,77.50000000302094,0,100,3.0,4,5.982066327440875e-11
5.245,0.220700632329898,77.50000000138085,0,100,3.0,4,2.7343654293494327e-11
5.25,0.17683207093748562,77.5000000006226,0,100,3.0,4,1.2328831025394658e-11
5.255,0.12682276483597799,77.50000000027693,0,100,3.0,4,5.4837015016859696e-12
5.26,0.08141644409447898,77.50000000012149,0,100,3.0,4,2.4057147912923155e-12
5.265,0.04678490952598309,77.50000000005258,0,100,3.0,4,1.0411913355692557e-12
5.27,0.024064605020532023,77.50000000002245,0,100,3.0,4,4.446168405944389e-13
5.275,0.011080171739334697,77.50000000000945,0,100,3.0,4,1.8713303733879865e-13
5.28,0.004571212771509492,77.50000000000392,0,100,3.0,4,7.766724557219314e-14
5.285,0.0017299316936037438,77.5000000000016,0,100,3.0,4,3.179854619441241e-14
5.29,0.0008899431850697582,77.50000000000065,0,100,3.0,4,1.2944540928698855e-14
5.295,0.002128806368910263,77.50000000000026,0,100,3.0,4,5.065255146012595e-15
5.3,0.009309664818487698,77.5000000000001,0,100,3.0,4,1.969821445671565e-15
5.305,0.03503263543368747,77.50000000000004,0,100,3.0,4,8.442091910020992e-16
5.31,0.10606267793605692,77.50000000000001,0,100,3.0,4,2.814030636673664e-16
5.315,0.25734927343160535,77.5,0,100,3.0,4,0.0
5.32,0.5003202479539708,77.5,0,100,3.0,4,0.0
5.325,0.7793067891790435,77.5,0,100,3.0,4,0.0
5.33,0.9720477407234077,77.50000295858521,1,100,3.0,4,5.858584580720963e-08
5.335,0.967267334488097,77.50000627158161,0,100,3.0,4,1.2418973487865964e-07
5.34,0.7505869905515209,77.50001448202111,0,100,3.0,4,2.867726953417611e-07
5.345,0.4028369574773956,77.5000381880034,0,100,3.0,4,7.56198087153937e-07
5.35,0.04553881263121314,77.50011515393722,0,100,3.0,4,2.2802759844742666e-06
5.355,-0.189138810908105,77.5003768133724,0,100,3.0,4,7.461650938574905e-06
5.36,-0.22868072635956738,77.50125530195008,0,100,3.0,4,2.4857464358047304e-05
5.365,-0.14104670682394166,77.50407161723201,0,100,3.0,4,8.062608380226824e-05
5.37,-0.051158381651102834,77.5125498908563,0,100,3.0,4,0.00024851269022388076
5.375,-0.008206426846427752,77.53632357375037,0,100,3.0,4,0.0007192786881260548
5.38,0.005350271385530505,77.59816032657108,0,100,3.0,4,0.0019437688429916036
5.385,0.01084668799215426,77.74699421583978,0,100,3.0,4,0.004890974571084695
5.39,0.016256859896386415,78.0778955905149,0,100,3.0,4,0.011443477039898991
5.395,0.02345021205790711,78.75638253739591,0,100,3.0,4,0.024878862126651635
5.4,0.0330621597308209,80.03714578164362,0,100,3.0,4,0.050240510527596365
5.405,0.04559141319943196,82.2581074321164,0,100,3.0,4,0.09421994915081988
5.41,0.06149084917446989,85.78593960996649,0,100,3.0,4,0.16407801207854436
5.415,0.08111733445924295,90.89811556558197,0,100,3.0,4,0.26530921912043515
5.42,0.1046628598272375,97.61546592808551,0,100,3.0,4,0.39832605798189136
5.425,0.1320831047748631,105.5415466537269,0,100,3.0,4,0.5552781515589484
5.43,0.16303381314489318,113.79708988561208,0,100,3.0,4,0.7187542551606353
5.435,0.19682662652900276,121.12822094684294,0,100,3.0,4,0.8639251672642168
5.44,0.23241585813229,126.20143333597863,0,100,3.0,4,0.9643848185342304
5.445,0.26842527782774417,128.0,0,100,3.0,4,1.0
5.45,0.30321927900592993,126.16275066678318,0,100,3.0,4,0.9636188250848154
5.455,0.3350163137995362,121.1116044575634,0,100,3.0,4,0.8635961278725426
5.46,0.3620352400956416,113.90717007869759,0,100,3.0,4,0.7209340609643087
5.465,0.3826586036805073,105.90088318147954,0,100,3.0,4,0.5623937263659315
5.47,0.39559233134833227,98.34046706321053,0,100,3.0,4,0.41268251610317874
5.475,0.4,92.08499814602648,0,100,3.0,4,0.28881184447577185
5.48,0.39559233134833227,87.50864038323002,0,100,3.0,4,0.1981908986778221
5.485,0.3826586036805073,84.57442275691706,0,100,3.0,4,0.14008757934489227
5.49,0.3620352400956416,82.99710802083918,0,100,3.0,4,0.10885362417503323
5.495,0.3350163137995362,82.40804661099806,0,100,3.0,4,0.09718904180194171
5.5,0.3032192790059296,82.46851319639717,0,100,3.0,4,0.0983863999286568
5.505,0.26842527782774417,82.92004890238644,0,100,3.0,4,0.10732770103735526
5.51,0.23241585813229,83.58796849171559,0,100,3.0,4,0.12055383151912051
5.515,0.19682662652900276,84.36197804515345,0,100,3.0,4,0.13588075336937525
5.52,0.16303381314489318,85.17248310799981,0,100,3.0,4,0.15193035857425366
5.525,0.13208310477486307,85.97196310008664,0,100,3.0,4,0.1677616455462701
5.53,0.10466285982723562,86.72363196440325,0,100,3.0,4,0.18264617751293571
5.535,0.08111733445917907,87.39605351764324,0,100,3.0,4,0.1959614557949156
5.54,0.06149084917398798,87.9615095120021,0,100,3.0,4,0.20715860419806129
5.545,0.04559141333598128,88.39629447802281,0,100,3.0,4,0.2157682074856002
5.55,0.03306217087257399,88.6817572080628,0,100,3.0,4,0.22142093481312486
5.555,0.02345067901074276,88.80541912343043,0,100,3.0,4,0.2238696856124837
5.56,0.016268788896435526,88.761813641984,0,100,3.0,4,0.22300621073235655
5.565,0.011039026374860051,88.55286824522712,0,100,3.0,4,0.21886867812330923
5.57,0.007326255555493689,88.18775826412227,0,100,3.0,4,0.2116387775073716
5.575,0.0047556414315231815,87.68223746822366,0,100,3.0,4,0.20162846471730023
5.58,0.0030193390635632803,87.05751062541435,0,100,3.0,4,0.18925763614681884
5.585,0.001874953127946523,86.33875969754904,0,100,3.0,4,0.17502494450592151
5.59,0.0011387927410965778,85.55346606508107,0,100,3.0,4,0.15947457554615976
5.595,0.0006765107634274089,84.72968388537797,0,100,3.0,4,0.14316205713619734
5.6,0.00039307957404427924,83.8944140290608,0,100,3.0,4,0.12662205998140194
5.605,0.00022338910511776318,83.07220603434823,0,100,3.0,4,0.11034071355145003
5.61,0.00012417073320013317,82.2840812711329,0,100,3.0,4,0.09473428259669119
5.615,6.750753468904987e-05,81.54682943609703,0,100,3.0,4,0.08013523635835698
5.62,3.5897234866245036e-05,80.87268841585063,0,100,3.0,4,0.06678590922476499
5.625,1.8670050400879738e-05,80.26937973963246,0,100,3.0,4,0.054839202764999116
5.63,9.497421874143672e-06,79.7404423296401,0,100,3.0,4,0.04436519464633868
5.635,4.725434140340885e-06,79.28578839837682,0,100,3.0,4,0.03536214650251135
5.64,2.299606063738814e-06,78.90239771037702,0,100,3.0,4,0.02777025169063399
5.645,1.0945633976635486e-06,78.58506900977153,0,100,3.0,4,0.021486515044980795
5.65,5.095703414287532e-07,78.32715803895881,0,100,3.0,4,0.016379367108095323
5.655,2.3202944964797243e-07,78.12124742111936,0,100,3.0,4,0.012301929131076509
5.66,1.0333746954038608e-07,77.95971182173484,0,100,3.0,4,0.009103204390788959
5.665,4.501406988770349e-08,77.83515963913185,0,100,3.0,4,0.006636824537264261
5.67,0.0,77.74074802073012,0,100,3.0,4,0.004767287539210363
5.675,0.0,77.67038003596295,0,100,3.0,4,0.003373862098276232
5.68,0.0,77.61880087924757,0,100,3.0,4,0.0023524926583677777
5.685,0.0,77.5816141709287,0,100,3.0,4,0.001616122196607968
5.69,0.0,77.5552403549693,0,100,3.0,4,0.0010938684152336571
5.695,0.0,77.53683768391573,0,100,3.0,4,0.0007294590874402959
5.7,0.0,77.52420321967791,0,100,3.0,4,0.00047927167679039497
5.705,0.0,77.51566747236087,0,100,3.0,4,0.0003102469774430597
5.71,0.0,77.50999239747283,0,100,3.0,4,0.00019786925688769166
5.715,0.0,77.50627892699517,0,100,3.0,4,0.00012433518802307088
5.72,0.0,77.50388728278739,0,100,3.0,4,7.697589677997649e-05
5.725,0.0,77.50237111056772,0,100,3.0,4,4.695268450935074e-05
5.73,0.0,77.50142495925365,0,100,3.0,4,2.8217014923849084e-05
5.735,0.0,77.5008437194384,0,100,3.0,4,1.6707315611742756e-05
5.74,0.0,77.50049219662667,0,100,3.0,4,9.746467854781015e-06
5.745,0.0,77.50028289428887,0,100,3.0,4,5.601867106388634e-06
5.75,0.0,77.500160197117,0,100,3.0,4,3.172220138565373e-06
5.755,0.0,77.50008937790716,0,100,3.0,4,1.769859547701092e-06
5.76,0.0,77.50004913043793,0,100,3.0,4,9.728799590006794e-07
5.765,0.0,77.50002660823445,0,100,3.0,4,5.268957316743446e-07
5.77,0.0,77.50001419797643,0,100,3.0,4,2.811480480503822e-07
5.775,0.001684486749771458,77.50000746417498,0,100,3.0,4,1.4780544524280167e-07
5.78,0.00456624331333666,77.50000386618065,0,100,3.0,4,7.6558032643865e-08
5.785,0.011079731271581421,77.50000197300162,0,100,3.0,4,3.906933893676528e-08
5.79,0.024064571490409,77.5000009920138,0,100,3.0,4,1.9643837535707885e-08
5.795,0.046784906529573234,77.50000049142014,0,100,3.0,4,9.731091848710877e-09
5.8,0.08141644351188804,77.50000023984637,0,100,3.0,4,4.749433110821946e-09
5.805,0.12682276464025305,77.50000011533426,0,100,3.0,4,2.2838467223006982e-09
5.81,0.1768320708657512,77.50000005464224,0,100,3.0,4,1.0820246085257727e-09
5.815,0.22070063230473494,77.50000002550607,0,100,3.0,4,5.050706607620992e-10
5.82,0.24656126505113576,77.50000001173015,0,100,3.0,4,2.3228021926133627e-10
5.825,0.24656126505724016,77.50000000531507,0,100,3.0,4,1.0524896685755005e-10
5.83,0.220700632329898,77.50000000237279,0,100,3.0,4,4.698586954054017e-11
5.835,0.17683207093748562,77.50000000104365,0,100,3.0,4,2.066624099573139e-11
5.84,0.12682276483597799,77.50000000045226,0,100,3.0,4,8.955652501213936e-12
5.845,0.08141644409447898,77.5000000001931,0,100,3.0,4,3.823704829112175e-12
5.85,0.04678490952598309,77.50000000008123,0,100,3.0,4,1.6084999119226663e-12
5.855,0.024064605020532023,77.50000000003367,0,100,3.0,4,6.66643857827991e-13
5.86,0.011080171739334697,77.50000000001374,0,100,3.0,4,2.7211676256634333e-13
5.865,0.004571212771509492,77.50000000000553,0,100,3.0,4,1.0946579176660553e-13
5.87,0.0017299316936037438,77.50000000000219,0,100,3.0,4,4.333607180477443e-14
5.875,0.0008899431850697582,77.50000000000085,0,100,3.0,4,1.6884183820041984e-14
5.88,0.002128806368910263,77.50000000000033,0,100,3.0,4,6.472270464349428e-15
5.885,0.009309664818487698,77.50000000000013,0,100,3.0,4,2.5326275730062976e-15
5.89,0.03503263543368747,77.50000000000004,0,100,3.0,4,8.442091910020992e-16
5.895,0.10606267793605692,77.50000000000001,0,100,3.0,4,2.814030636673664e-16
5.9,0.25734927343160535,77.5,0,100,3.0,4,0.0
5.905,0.5003202479539708,77.5,0,100,3.0,4,0.0
5.91,0.7793067891790435,77.5,0,100,3.0,4,0.0
5.915,0.9720477407234077,77.5000029632167,1,100,3.0,4,5.867755844249559e-08
5.92,0.967267334488097,77.50000632443192,0,100,3.0,4,1.252362756864692e-07
5.925,0.7505869905515209,77.50001473324576,0,100,3.0,4,2.917474408505849e-07
5.93,0.4028369574773956,77.50003930345265,0,100,3.0,4,7.782861911378535e-07
5.935,0.04553881263121314,77.50012007178523,0,100,3.0,4,2.37765911352014e-06
5.94,-0.189138810908105,77.50039768906025,0,100,3.0,4,7.875030896043021e-06
5.945,-0.22868072635956738,77.50133813309903,0,100,3.0,4,2.6497685129220596e-05
5.95,-0.14104670682394166,77.50437429970992,0,100,3.0,4,8.661979623609861e-05
5.955,-0.051158381651102834,77.51356283545961,0,100,3.0,4,0.0002685709992001851
5.96,-0.008206426846427752,77.539423280672,0,100,3.0,4,0.0007806590232078606
5.965,0.005350271385530505,77.60683292766095,0,100,3.0,4,0.0021155035180385365
5.97,0.01084668799215426,77.7691843879838,0,100,3.0,4,0.005330383920471266
5.975,0.016256859896386415,78.1298195737859,0,100,3.0,4,0.012471674728433559
5.98,0.02345021205790711,78.8674564682652,0,100,3.0,4,0.027078345906241648
5.985,0.0330621597308209,80.25416185836706,0,100,3.0,4,0.05453785858152585
5.99,0.04559141319943196,82.64472323642266,0,100,3.0,4,0.10187570765193393
5.995,0.06149084917446989,86.41224109374863,0,100,3.0,4,0.17648002165838877
6.0,0.08111733445924295,91.81665598492147,0,100,3.0,4,0.2834981383152766
6.005,0.1046628598272375,98.826395638257,0,100,3.0,4,0.42230486412390095
6.01,0.1320831047748631,106.95895384922622,0,100,3.0,4,0.5833456207767568
6.015,0.16303381314489318,115.23602411394728,0,100,3.0,4,0.7472480022563818
6.02,0.19682662652900276,122.32971667135199,0,100,3.0,4,0.8877171618089502
6.025,0.23241585813229,126.89775582948093,0,100,3.0,5,0.9781733827619986
6.03,0.26842527782774417,128.0,0,100,3.0,5,1.0
6.035,0.30321927900592993,125.42125272540896,0,100,3.0,5,0.9489356975328508
6.04,0.3350163137995362,119.74965133212939,0,100,3.0,5,0.8366267590520671
6.045,0.3620352400956416,112.17257946470455,0,100,3.0,5,0.6865857319743476
6.05,0.3826586036805073,104.08785511981466,0,100,3.0,5,0.5264921805903894
6.055,0.39559233134833227,96.70488803956961,0,100,3.0,5,0.38029481266474474
6.06,0.4,90.78889417401182,0,100,3.0,5,0.2631464192873627
6.065,0.39559233134833227,86.60772759605685,0,100,3.0,5,0.18035104150607617
6.07,0.3826586036805073,84.04089578195409,0,100,3.0,5,0.12952268875156617
6.075,0.3620352400956416,82.75786879881116,0,100,3.0,5,0.10411621383784475
6.08,0.3350163137995362,82.37959366821764,0,100,3.0,5,0.09662561719242846
6.085,0.3032192790059296,82.57856812118584,0,100,3.0,5,0.1005657053700166
6.09,0.26842527782774417,83.11531036543767,0,100,3.0,5,0.11119426466213198
6.095,0.23241585813229,83.83263983129649,0,100,3.0,5,0.12539880854052454
6.1,0.19682662652900276,84.63250912217958,0,100,3.0,5,0.14123780439959574
6.105,0.16303381314489318,85.45226040314074,0,100,3.0,5,0.1574705030324899
6.11,0.13208310477486307,86.2475629773933,0,100,3.0,5,0.1732190688592733
6.115,0.10466285982723562,86.98281595132833,0,100,3.0,5,0.18777853368966999
6.12,0.08111733445917907,87.62707318852279,0,100,3.0,5,0.20053610274302547
6.125,0.06149084917398798,88.15320332098976,0,100,3.0,5,0.21095452120771804
6.13,0.04559141333598128,88.5385782151131,0,100,3.0,5,0.21858570722996248
6.135,0.03306217087257399,88.76624892522591,0,100,3.0,5,0.22309403812328532
6.14,0.02345067901074276,88.82603771663241,0,100,3.0,5,0.22427797458678045
6.145,0.016268788896435526,88.71524935893723,0,100,3.0,5,0.22208414572152926
6.15,0.011039026374860051,88.43886075670979,0,100,3.0,5,0.2166111040932631
6.155,0.007326255555493689,88.00914720955005,0,100,3.0,5,0.20810192494158516
6.16,0.0047556414315231815,87.44477763798974,0,100,3.0,5,0.19692628986118307
6.165,0.0030193390635632803,86.76946988444872,0,100,3.0,5,0.18355385909799454
6.17,0.001874953127946523,86.0103405328122,0,100,3.0,5,0.16852159470915234
6.175,0.0011387927410965778,85.1961087935566,0,100,3.0,5,0.15239819393181395
6.18,0.0006765107634274089,84.35531914558466,0,100,3.0,5,0.13574889397197343
6.185,0.00039307957404427924,83.51473332893123,0,100,3.0,5,0.11910363027586592
6.19,0.00022338910511776318,82.69801221580293,0,100,3.0,5,0.10293093496639472
6.195,0.00012417073320013317,81.92476728085217,0,100,3.0,5,0.08761915407628051
6.2,6.750753468904987e-05,81.2100160794701,0,100,3.0,5,0.07346566494000187
6.205,3.5897234866245036e-05,80.56403251225963,0,100,3.0,5,0.06067391113385405
6.21,1.8670050400879738e-05,79.99254590939884,0,100,3.0,5,0.04935734474057114
6.215,9.497421874143672e-06,79.49721667177356,0,100,3.0,5,0.039548844985615
6.22,4.725434140340885e-06,79.07630197143015,0,100,3.0,5,0.031213900424359505
6.225,2.299606063738814e-06,78.72542256815419,0,100,3.0,5,0.024265793428795777
6.23,1.0945633976635486e-06,78.43834933264405,0,100,3.0,5,0.018581174903842604
6.235,5.095703414287532e-07,78.20774277436361,0,100,3.0,5,0.01401470840323979
6.24,2.3202944964797243e-07,78.02579755035103,0,100,3.0,5,0.010411832680218405
6.245,1.0333746954038608e-07,77.88476352268945,0,100,3.0,5,0.007619079657216909
6.25,4.501406988770349e-08,77.77733293361308,0,100,3.0,5,0.005491741259664978
6.255,0.0,77.69689796089891,0,100,3.0,5,0.0038989695227506687
6.26,0.0,77.63769342762592,0,100,3.0,5,0.0027266025272459243
6.265,0.0,77.59484565128201,0,100,3.0,5,0.0018781317085547404
6.27,0.0,77.56435078582085,0,100,3.0,5,0.0012742729865514734
6.275,0.0,77.54300535190977,0,100,3.0,5,0.0008515911269261333
6.28,0.0,77.52830892491497,0,100,3.0,5,0.0005605727705934027
6.285,0.0,77.5183550878223,0,100,3.0,5,0.0003634670855901034
6.29,0.0,77.51172254143796,0,100,3.0,5,0.0002321295334249863
6.295,0.0,77.50737427460564,0,100,3.0,5,0.00014602523971560832
6.3,0.0,77.50456929349846,0,100,3.0,5,9.04810593755032e-05
6.305,0.0,77.5027887592473,0,100,3.0,5,5.522295539198113e-05
6.31,0.0,77.50167650638357,0,100,3.0,5,3.319814620940318e-05
6.315,0.0,77.50099273108047,0,100,3.0,5,1.9658041197479378e-05
6.32,0.0,77.50057901557518,0,100,3.0,5,1.1465654954136962e-05
6.325,0.0,77.50033264507117,0,100,3.0,5,6.587031112242738e-06
6.33,0.0,77.50018823663869,0,100,3.0,5,3.727458191926218e-06
6.335,0.0,77.50010492028098,0,100,3.0,5,2.0776293262437016e-06
6.34,0.0,77.50005760324511,0,100,3.0,5,1.1406583190242906e-06
6.345,0.0,77.50003115061858,0,100,3.0,5,6.168439323245015e-07
6.35,0.0,77.50001659275955,0,100,3.0,5,3.285694960465149e-07
6.355,0.001684486749771458,77.5000087056817,0,100,3.0,5,1.7238973650999488e-07
6.36,0.00456624331333666,77.50000449903288,0,100,3.0,5,8.908976006201592e-08
6.365,0.011079731271581421,77.50000229017026,0,100,3.0,5,4.5349906096618887e-08
6.37,0.024064571490409,77.5000011482821,0,100,3.0,5,2.2738259310631967e-08
6.375,0.046784906529573234,77.50000056710259,0,100,3.0,5,1.1229754235419834e-08
6.38,0.08141644351188804,77.50000027587154,0,100,3.0,5,5.4628028217596484e-09
6.385,0.12682276464025305,77.50000013218568,0,100,3.0,5,2.617538133437289e-09
6.39,0.1768320708657512,77.500000062387,0,100,3.0,5,1.235386182790787e-09
6.395,0.22070063230473494,77.50000002900254,0,100,3.0,5,5.743076333529454e-10
6.4,0.24656126505113576,77.50000001328037,0,100,3.0,5,2.629776352676183e-10
6.405,0.24656126505724016,77.50000000598986,0,100,3.0,5,1.1861110993273127e-10
6.41,0.220700632329898,77.50000000266107,0,100,3.0,5,5.2694412090096365e-11
6.415,0.17683207093748562,77.50000000116447,0,100,3.0,5,2.3058729843031337e-11
6.42,0.12682276483597799,77.50000000050191,0,100,3.0,5,9.938874805667714e-12
6.425,0.08141644409447898,77.50000000021309,0,100,3.0,5,4.219638939692159e-12
6.43,0.04678490952598309,77.50000000008912,0,100,3.0,5,1.7646786122580548e-12
6.435,0.024064605020532023,77.5000000000367,0,100,3.0,5,7.268641134528074e-13
6.44,0.011080171739334697,77.5000000000149,0,100,3.0,5,2.949104107234e-13
6.445,0.004571212771509492,77.50000000000595,0,100,3.0,5,1.1790788367662653e-13
6.45,0.0017299316936037438,77.50000000000234,0,100,3.0,5,4.6431505505115455e-14
6.455,0.0008899431850697582,77.50000000000091,0,100,3.0,5,1.800979607471145e-14
6.46,0.002128806368910263,77.50000000000034,0,100,3.0,5,6.7536735280167935e-15
6.465,0.009309664818487698,77.50000000000013,0,100,3.0,5,2.5326275730062976e-15
6.47,0.03503263543368747,77.50000000000004,0,100,3.0,5,8.442091910020992e-16
6.475,0.10606267793605692,77.50000000000001,0,100,3.0,5,2.814030636673664e-16
6.48,0.25734927343160535,77.5,0,100,3.0,5,0.0
6.485,0.5003202479539708,77.5,0,100,3.0,5,0.0
6.49,0.7793067891790435,77.5,0,100,3.0,5,0.0
6.495,0.9720477407234077,77.50000295858096,1,100,3.0,5,5.85857616676936e-08
6.5,0.967267334488097,77.50000649780915,0,100,3.0,5,1.2866948817744662e-07
6.505,0.7505869905515209,77.50001571079831,0,100,3.0,5,3.111049170006436e-07
6.51,0.4028369574773956,77.50004401685699,0,100,3.0,5,8.716209304854448e-07
6.515,0.04553881263121314,77.50014199796655,0,100,3.0,5,2.8118409218087877e-06
6.52,-0.189138810908105,77.50049432191162,0,100,3.0,5,9.7885527052898e-06
6.525,-0.22868072635956738,77.50173211644027,0,100,3.0,5,3.42993354508107e-05
6.53,-0.14104670682394166,77.50584288582245,0,100,3.0,5,0.00011570070935536563
6.535,-0.051158381651102834,77.51854730297484,0,100,3.0,5,0.00036727332623441534
6.54,-0.008206426846427752,77.55481496280055,0,100,3.0,5,0.001085444807931663
6.545,0.005350271385530505,77.65008419708057,0,100,3.0,5,0.0029719642986252228
6.55,0.01084668799215426,77.87981851286148,0,100,3.0,5,0.00752115867052428
6.555,0.016256859896386415,78.38742298606793,0,100,3.0,5,0.017572732397384796
6.56,0.02345021205790711,79.41315942805718,0,100,3.0,5,0.03788434511004326
6.565,0.0330621597308209,81.30460163111171,0,100,3.0,5,0.0753386461606279
6.57,0.04559141319943196,84.47809489490693,0,100,3.0,5,0.1381800969288501
6.575,0.06149084917446989,89.30317826768169,0,100,3.0,5,0.23372630233033045
6.58,0.08111733445924295,95.91109716494718,0,100,3.0,5,0.36457618148410254
6.585,0.1046628598272375,103.98360250134391,0,100,3.0,5,0.5244277723038397
6.59,0.1320831047748631,112.63196549089727,0,100,3.0,5,0.6956824849682628
6.595,0.16303381314489318,120.48176915990015,0,100,3.0,5,0.851124141780201
6.6,0.19682662652900276,126.00411814452141,0,100,3.0,5,0.960477587020226
6.605,0.23241585813229,128.0,0,100,3.0,5,1.0
6.61,0.26842527782774417,126.03166825490115,0,100,3.0,5,0.9610231337604188
6.615,0.30321927900592993,120.59024835370354,0,100,3.0,5,0.8532722446277929
6.62,0.3350163137995362,112.91318697147013,0,100,3.0,5,0.7012512271578243
6.625,0.3620352400956416,104.54533238728061,0,100,3.0,5,0.5355511363817943
6.63,0.3826586036805073,96.85710937740994,0,100,3.0,5,0.38330909658237505
6.635,0.39559233134833227,90.72270386050883,0,100,3.0,5,0.2618357200100758
6.64,0.4,86.44535081746378,0,100,3.0,5,0.17713565975175793
6.645,0.39559233134833227,83.88417312505604,0,100,3.0,5,0.12641926980308985
6.65,0.3826586036805073,82.66571321886003,0,100,3.0,5,0.10229135086851553
6.655,0.3620352400956416,82.37202450792604,0,100,3.0,5,0.09647573283021865
6.66,0.3350163137995362,82.65192834843367,0,100,3.0,5,0.10201838313730041
6.665,0.3032192790059296,83.25634189984378,0,100,3.0,5,0.11398696831373813
6.67,0.26842527782774417,84.0264242558057,0,100,3.0,5,0.12923612387734046
6.675,0.23241585813229,84.86484526486245,0,100,3.0,5,0.1458385200962862
6.68,0.19682662652900276,85.70909511705845,0,100,3.0,5,0.16255633895165253
6.685,0.16303381314489318,86.51374059129739,0,100,3.0,5,0.17848991269895825
6.69,0.13208310477486307,87.24132622835091,0,100,3.0,5,0.19289754907625573
6.695,0.10466285982723562,87.85911768203138,0,100,3.0,5,0.20513104320854222
6.7,0.08111733445917907,88.33897458047528,0,100,3.0,5,0.2146331600094115
6.705,0.06149084917398798,88.65851542478347,0,100,3.0,5,0.22096070148086086
6.71,0.04559141333598128,88.80252600599808,0,100,3.0,5,0.22381239615837772
6.715,0.03306217087257399,88.76406271594287,0,100,3.0,5,0.22305074685035386
6.72,0.02345067901074276,88.5449807473852,0,100,3.0,5,0.21871249004723162
6.725,0.016268788896435526,88.15577906783629,0,100,3.0,5,0.21100552609576817
6.73,0.011039026374860051,87.61476482243962,0,100,3.0,5,0.20029237272157674
6.735,0.007326255555493689,86.94662571979583,0,100,3.0,5,0.18706189544150165
6.74,0.0047556414315231815,86.18056443389439,0,100,3.0,5,0.17189236502761168
6.745,0.0030193390635632803,85.34819090517139,0,100,3.0,5,0.15540972089448302
6.75,0.001874953127946523,84.48138340308783,0,100,3.0,5,0.13824521590272937
6.755,0.0011387927410965778,83.61031721315373,0,100,3.0,5,0.1209963804584898
6.76,0.0006765107634274089,82.7618245365926,0,100,3.0,5,0.10419454527906136
6.765,0.00039307957404427924,81.9581974975489,0,100,3.0,5,0.08828113856532464
6.77,0.00022338910511776318,81.21648669901883,0,100,3.0,5,0.07359379602017485
6.775,0.00012417073320013317,80.54828942211552,0,100,3.0,5,0.06036216677456468
6.78,6.750753468904987e-05,79.95997193468784,0,100,3.0,5,0.04871231553837313
6.785,3.5897234866245036e-05,79.45323475258576,0,100,3.0,5,0.038677915892787275
6.79,1.8670050400879738e-05,79.02591053115628,0,100,3.0,5,0.030216050121906632
6.795,9.497421874143672e-06,78.67288122682059,0,100,3.0,5,0.023225370828130552
6.8,4.725434140340885e-06,78.38701167635604,0,100,3.0,5,0.01756458765061463
6.805,2.299606063738814e-06,78.16001677799984,0,100,3.0,5,0.013069639168313722
6.81,1.0945633976635486e-06,77.98320447949557,0,100,3.0,5,0.009568405534565727
6.815,5.095703414287532e-07,77.84806252373428,0,100,3.0,5,0.0068923272026591076
6.82,2.3202944964797243e-07,77.74667998599702,0,100,3.0,5,0.0048847521979607815
6.825,1.0333746954038608e-07,77.6720128543322,0,100,3.0,5,0.0034061951352909866
6.83,4.501406988770349e-08,77.61801527615162,0,100,3.0,5,0.002336936161418297
6.835,0.0,77.5796646933126,0,100,3.0,5,0.0015775186794573105
6.84,0.0,77.5529107463042,0,100,3.0,5,0.0010477375505783498
6.845,0.0,77.53457579886194,0,100,3.0,5,0.000684669284394789
6.85,0.0,77.52223058524193,0,100,3.0,5,0.00044020960875105396
6.855,0.0,77.51406306247611,0,100,3.0,5,0.00027847648467547634
6.86,0.0,77.50875304685681,0,100,3.0,5,0.00017332766053089986
6.865,0.0,77.50536029803884,0,100,3.0,5,0.00010614451562054735
6.87,0.0,77.50322975038792,0,100,3.0,5,6.395545322606727e-05
6.875,0.0,77.501914693741,0,100,3.0,5,3.791472754455348e-05
6.88,0.0,77.50111681184963,0,100,3.0,5,2.211508613123163e-05
6.885,0.0,77.50064093065815,0,100,3.0,5,1.2691696200995961e-05
6.89,0.0,77.50036190319393,0,100,3.0,5,7.166399879875231e-06
6.895,0.0,77.50020105927997,0,100,3.0,5,3.981371880663213e-06
6.9,0.0,77.50010990214456,0,100,3.0,5,2.1762800902634618e-06
6.905,0.0,77.5000591069498,0,100,3.0,5,1.1704346496180103e-06
6.91,0.0,77.50003127672464,0,100,3.0,5,6.193410820062559e-07
6.915,0.001684486749771458,77.5000162837461,0,100,3.0,5,3.2245041794421114e-07
6.92,0.00456624331333666,77.50000834137632,0,100,3.0,5,1.651757686139006e-07
6.925,0.011079731271581421,77.50000420408458,0,100,3.0,5,8.324919951636469e-08
6.93,0.024064571490409,77.50000208475734,0,100,3.0,5,4.128232358378245e-08
6.935,0.046784906529573234,77.50000101716151,0,100,3.0,5,2.0141812055413483e-08
6.94,0.08141644351188804,77.50000048828643,0,100,3.0,5,9.669038252126268e-09
6.945,0.12682276464025305,77.50000023062678,0,100,3.0,5,4.5668669638034055e-09
6.95,0.1768320708657512,77.50000010717541,0,100,3.0,5,2.1222853441634805e-09
6.955,0.22070063230473494,77.50000004900393,0,100,3.0,5,9.703748475820447e-10
6.96,0.24656126505113576,77.50000002204536,0,100,3.0,5,4.365416982794402e-10
6.965,0.24656126505724016,77.50000000975783,0,100,3.0,5,1.9322428805494247e-10
6.97,0.220700632329898,77.50000000424953,0,100,3.0,5,8.414908374070725e-11
6.975,0.17683207093748562,77.50000000182087,0,100,3.0,5,3.605673735382699e-11
6.98,0.12682276483597799,77.50000000076766,0,100,3.0,5,1.5201112096247465e-11
6.985,0.08141644409447898,77.50000000031842,0,100,3.0,5,6.305398447594679e-12
6.99,0.04678490952598309,77.50000000012996,0,100,3.0,5,2.573431017238066e-12
6.995,0.024064605020532023,77.50000000005218,0,100,3.0,5,1.0333120497865694e-12
7.0,0.011080171739334697,77.50000000002062,0,100,3.0,5,4.0831584538134865e-13
7.005,0.004571212771509492,77.50000000000801,0,100,3.0,5,1.5871132790839464e-13
7.01,0.0017299316936037438,77.50000000000307,0,100,3.0,5,6.078306175215115e-14
7.015,0.0008899431850697582,77.50000000000115,0,100,3.0,5,2.279364815705668e-14
7.02,0.002128806368910263,77.50000000000043,0,100,3.0,5,8.442091910020992e-15
7.025,0.009309664818487698,77.50000000000016,0,100,3.0,5,3.0954337003410305e-15
7.03,0.03503263543368747,77.50000000000006,0,100,3.0,5,1.1256122546694657e-15
7.035,0.10606267793605692,77.50000000000001,0,100,3.0,5,2.814030636673664e-16
7.04,0.25734927343160535,77.5,0,100,3.0,5,0.0
7.045,0.5003202479539708,77.5,0,100,3.0,5,0.0
7.05,0.7793067891790435,77.5,0,100,3.0,5,0.0
7.055,0.9720477407234077,77.50000296249844,1,100,3.0,5,5.866333548744865e-08
7.06,0.967267334488097,77.50000623791465,0,100,3.0,5,1.2352306231771917e-07
7.065,0.7505869905515209,77.50001428061503,0,100,3.0,5,2.827844561111441e-07
7.07,0.4028369574773956,77.50003723221408,0,100,3.0,5,7.372715660071348e-07
7.075,0.04553881263121314,77.5001108437001,0,100,3.0,5,2.194924754443455e-06
7.08,-0.189138810908105,77.5003583964972,0,100,3.0,5,7.096960340696019e-06
7.085,-0.22868072635956738,77.501182171344,0,100,3.0,5,2.340933354452597e-05
7.09,-0.14104670682394166,77.50380467824786,0,100,3.0,5,7.534016332396512e-05
7.095,-0.051158381651102834,77.51165782593294,0,100,3.0,5,0.00023084803827609813
7.1,-0.008206426846427752,77.5335966224769,0,100,3.0,5,0.0006652796530080524
7.105,0.005350271385530505,77.59053331272185,0,100,3.0,5,0.0017927388657791189
7.11,0.01084668799215426,77.72746904695667,0,100,3.0,5,0.00450433756349843
7.115,0.016256859896386415,78.03213843050357,0,100,3.0,5,0.01053739466343693
7.12,0.02345021205790711,78.65824858789371,0,100,3.0,5,0.022935615601855627
7.125,0.0330621597308209,79.8447054890364,0,100,3.0,5,0.04642981166408713
7.13,0.04559141319943196,81.91361678160214,0,100,3.0,5,0.08739835211093355
7.135,0.06149084917446989,85.22452481350312,0,100,3.0,5,0.15296088739610145
7.14,0.08111733445924295,90.06880030306164,0,100,3.0,5,0.2488871347140918
7.145,0.1046628598272375,96.51294300837715,0,100,3.0,5,0.37649392095796336
7.15,0.1320831047748631,104.23854785834601,0,100,3.0,5,0.5294761952147725
7.155,0.16303381314489318,112.45984400219734,0,100,3.0,5,0.6922741386573731
7.16,0.19682662652900276,119.9980053094794,0,100,3.0,5,0.8415446595936514
7.165,0.23241585813229,125.53757473601254,0,100,3.0,5,0.9512391036834167
7.17,0.26842527782774417,128.0,0,100,3.0,5,1.0
7.175,0.30321927900592993,126.89180836635488,0,100,3.0,5,0.9780556112149481
7.18,0.3350163137995362,122.4744115695857,0,100,3.0,5,0.8905824073185287
7.185,0.3620352400956416,115.6764248123543,0,100,3.0,5,0.7559688081654317
7.19,0.3826586036805073,107.78956631187174,0,100,3.0,5,0.5997933923142919
7.195,0.39559233134833227,100.08516728784107,0,100,3.0,5,0.4472310354027935
7.2,0.4,93.50661991231735,0,100,3.0,5,0.3169627705409376
7.205,0.39559233134833227,88.53287890241118,0,100,3.0,5,0.21847284955269672
7.21,0.3826586036805073,85.21553134284277,0,100,3.0,5,0.15278279886817359
7.215,0.3620352400956416,83.32232502267858,0,100,3.0,5,0.1152935648055165
7.22,0.3350163137995362,82.50166604103804,0,100,3.0,5,0.09904289190174327
7.225,0.3032192790059296,82.40734321991523,0,100,3.0,5,0.09717511326564819
7.23,0.26842527782774417,82.76277175392498,0,100,3.0,6,0.1042133020579204
7.235,0.23241585813229,83.37479852576797,0,100,3.0,6,0.1163326440746133
7.24,0.19682662652900276,84.11928489680142,0,100,3.0,6,0.1310749484515132
7.245,0.16303381314489318,84.91824422362451,0,100,3.0,6,0.14689592522028738
7.25,0.13208310477486307,85.71996481329595,0,100,3.0,6,0.16277158046130585
7.255,0.10466285982723562,86.48593626724252,0,100,3.0,6,0.1779393320246044
7.26,0.08111733445917907,87.18404127410177,0,100,3.0,6,0.19176319354656976
7.265,0.06149084917398798,87.78600746918313,0,100,3.0,6,0.20368331622144817
7.27,0.04559141333598128,88.26721388243585,0,100,3.0,6,0.2132121560878387
7.275,0.03306217087257399,88.60753321720543,0,100,3.0,6,0.2199511528159491
7.28,0.02345067901074276,88.79243107822423,0,100,3.0,6,0.22361249659849952
7.285,0.016268788896435526,88.81389846101516,0,100,3.0,6,0.22403759328742884
7.29,0.011039026374860051,88.67099812814219,0,100,3.0,6,0.22120788372558786
7.295,0.007326255555493689,88.36992451308627,0,100,3.0,6,0.21524602996210446
7.3,0.0047556414315231815,87.92355634630057,0,100,3.0,6,0.20640705636238757
7.305,0.0030193390635632803,87.35054249369495,0,100,3.0,6,0.1950602473998999
7.31,0.001874953127946523,86.67401021165833,0,100,3.0,6,0.18166356854768964
7.315,0.0011387927410965778,85.92002012496754,0,100,3.0,6,0.16673307178153537
7.32,0.0006765107634274089,85.11591134258094,0,100,3.0,6,0.15081012559566226
7.325,0.00039307957404427924,84.28868206654177,0,100,3.0,6,0.13442934785231223
7.33,0.00022338910511776318,83.46353675053035,0,100,3.0,6,0.11808983664416539
7.335,0.00012417073320013317,82.66270333596,0,100,3.0,6,0.10223174922693076
7.34,6.750753468904987e-05,81.90458788413636,0,100,3.0,6,0.08721956206210617
7.345,3.5897234866245036e-05,81.20329432496659,0,100,3.0,6,0.07333256089042757
7.35,1.8670050400879738e-05,80.5684992351286,0,100,3.0,6,0.06076236109165541
7.355,9.497421874143672e-06,80.00563985868109,0,100,3.0,6,0.04961663086497214
7.36,4.725434140340885e-06,79.51635092389155,0,100,3.0,6,0.03992774106715943
7.365,2.299606063738814e-06,79.0990735069262,0,100,3.0,6,0.03166482191933075
7.37,1.0945633976635486e-06,78.74975699852942,0,100,3.0,6,0.024747663337216248
7.375,5.095703414287532e-07,78.46258162434901,0,100,3.0,6,0.0190610222643369
7.38,2.3202944964797243e-07,78.23064160050076,0,100,3.0,6,0.014468150504965555
7.385,1.0333746954038608e-07,78.0465451756297,0,100,3.0,6,0.01082267674514263
7.39,4.501406988770349e-08,77.9029049232077,0,100,3.0,6,0.007978315311043564
7.395,0.0,77.792707549016,0,100,3.0,6,0.005796189089425757
7.4,0.0,77.70956565642611,0,100,3.0,6,0.004149814978734806
7.405,0.0,77.64786355410972,0,100,3.0,6,0.0029279911704894867
7.41,0.0,77.60281512541162,0,100,3.0,6,0.0020359430774578983
7.415,0.0,77.57045433470391,0,100,3.0,6,0.0013951353406714971
7.42,0.0,77.54757877616558,0,100,3.0,6,0.0009421539834768215
7.425,0.0,77.5316645744132,0,100,3.0,6,0.0006270212755088895
7.43,0.0,77.5207677230544,0,100,3.0,6,0.00041124204068128704
7.435,0.0,77.51342328935382,0,100,3.0,6,0.00026580770997671236
7.44,0.0,77.50855034936433,0,100,3.0,6,0.00016931384879856045
7.445,0.0,77.50536739563128,0,100,3.0,6,0.00010628506200558573
7.45,0.0,77.50332045956841,0,100,3.0,6,6.575167462205902e-05
7.455,0.0,77.50202435942687,0,100,3.0,6,4.008632528453826e-05
7.46,0.0,77.50121627531419,0,100,3.0,6,2.4084659686974587e-05
7.465,0.0,77.50072016332395,0,100,3.0,6,1.4260659880149135e-05
7.47,0.0,77.50042022796278,0,100,3.0,6,8.321345797576844e-06
7.475,0.0,77.50024165385936,0,100,3.0,6,4.785224937864264e-06
7.48,0.0,77.50013694852625,0,100,3.0,6,2.7118520048958036e-06
7.485,0.0,77.50007648492242,0,100,3.0,6,1.5145529191456019e-06
7.49,0.0,77.50004209680522,0,100,3.0,6,8.336001033035471e-07
7.495,0.0,77.50002283375228,0,100,3.0,6,4.5215351054922745e-07
7.5,0.0,77.50001220563202,0,100,3.0,6,2.416956835243735e-07
7.505,0.001684486749771458,77.5000064298094,0,100,3.0,6,1.2732295847782363e-07
7.51,0.00456624331333666,77.50000333803408,0,100,3.0,6,6.609968468723364e-08
7.515,0.011079731271581421,77.50000170780497,0,100,3.0,6,3.381792018696822e-08
7.52,0.024064571490409,77.50000086107428,0,100,3.0,6,1.7050975918326652e-08
7.525,0.046784906529573234,77.50000042785618,0,100,3.0,6,8.472399582784095e-09
7.53,0.08141644351188804,77.50000020951245,0,100,3.0,6,4.148761387240132e-09
7.535,0.12682276464025305,77.50000010110594,0,100,3.0,6,2.0020978142680844e-09
7.54,0.1768320708657512,77.50000004808376,0,100,3.0,6,9.52153717806519e-10
7.545,0.22070063230473494,77.5000000225359,0,100,3.0,6,4.46255450634174e-10
7.55,0.24656126505113576,77.50000001040894,0,100,3.0,6,2.0611761362605386e-10
7.555,0.24656126505724016,77.50000000473797,0,100,3.0,6,9.38211884420183e-11
7.56,0.220700632329898,77.50000000212536,0,100,3.0,6,4.2086360799027655e-11
7.565,0.17683207093748562,77.50000000093956,0,100,3.0,6,1.8605244957431598e-11
7.57,0.12682276483597799,77.50000000040933,0,100,3.0,6,8.105533845874822e-12
7.575,0.08141644409447898,77.50000000017575,0,100,3.0,6,3.4801116883743206e-12
7.58,0.04678490952598309,77.50000000007437,0,100,3.0,6,1.4725822321713284e-12
7.585,0.024064605020532023,77.50000000003101,0,100,3.0,6,6.140214849221935e-13
7.59,0.011080171739334697,77.50000000001275,0,100,3.0,6,2.5241854810962767e-13
7.595,0.004571212771509492,77.50000000000516,0,100,3.0,6,1.0214931211125401e-13
7.6,0.0017299316936037438,77.50000000000206,0,100,3.0,6,4.080344423176813e-14
7.605,0.0008899431850697582,77.50000000000081,0,100,3.0,6,1.6039974629039884e-14
7.61,0.002128806368910263,77.50000000000031,0,100,3.0,6,6.190867400682061e-15
7.615,0.009309664818487698,77.50000000000011,0,100,3.0,6,2.2512245093389313e-15
7.62,0.03503263543368747,77.50000000000004,0,100,3.0,6,8.442091910020992e-16
7.625,0.10606267793605692,77.50000000000001,0,100,3.0,6,2.814030636673664e-16
7.63,0.25734927343160535,77.5,0,100,3.0,6,0.0
7.635,0.5003202479539708,77.5,0,100,3.0,6,0.0
7.64,0.7793067891790435,77.5,0,100,3.0,6,0.0
7.645,0.9720477407234077,77.50000296417907,1,100,3.0,6,5.8696615339370215e-08
7.65,0.967267334488097,77.50000671426626,0,100,3.0,6,1.3295576758366115e-07
7.655,0.7505869905515209,77.50001690807775,0,100,3.0,6,3.3481342086923917e-07
7.66,0.4028369574773956,77.50004998152149,0,100,3.0,6,9.897330987161408e-07
7.665,0.04553881263121314,77.50017093493624,0,100,3.0,6,3.3848502224904368e-06
7.67,-0.189138810908105,77.50062682696246,0,100,3.0,6,1.2412415098215026e-05
7.675,-0.22868072635956738,77.50228951654114,0,100,3.0,6,4.533696121069003e-05
7.68,-0.14104670682394166,77.50797121731352,0,100,3.0,6,0.00015784588739653274
7.685,-0.051158381651102834,77.52589581734757,0,100,3.0,6,0.0005127884623282125
7.69,-0.008206426846427752,77.57774358530986,0,100,3.0,6,0.001539476936828929
7.695,0.005350271385530505,77.7147515715821,0,100,3.0,6,0.00425250636796235
7.7,0.01084668799215426,78.04471478880228,0,100,3.0,6,0.01078643146143131
7.705,0.016256859896386415,78.76748649806238,0,100,3.0,6,0.02509874253588876
7.71,0.02345021205790711,80.20427167320135,0,100,3.0,6,0.05354993412279896
7.715,0.0330621597308209,82.78911922275384,0,100,3.0,6,0.10473503411393742
7.72,0.04559141319943196,86.98172744251318,0,100,3.0,6,0.18775697905966685
7.725,0.06149084917446989,93.07887730032347,0,100,3.0,6,0.30849261980838555
7.73,0.08111733445924295,100.95962721250167,0,100,3.0,6,0.4645470735148846
7.735,0.1046628598272375,109.87793025058434,0,100,3.0,6,0.6411471336749375
7.74,0.1320831047748631,118.45853789884562,0,100,3.0,6,0.8110601564127845
7.745,0.16303381314489318,124.99616767138359,0,100,3.0,6,0.9405181717105661
7.75,0.19682662652900276,128.0,0,100,3.0,6,1.0
7.755,0.23241585813229,126.75356838385197,0,100,3.0,6,0.9753181858188509
7.76,0.26842527782774417,121.60504184108623,0,100,3.0,6,0.8733671651700244
7.765,0.30321927900592993,113.82915829348634,0,100,3.0,6,0.7193892731383434
7.77,0.3350163137995362,105.1368956240279,0,100,3.0,6,0.5472652598817406
7.775,0.3620352400956416,97.09121900543379,0,100,3.0,6,0.387944930800669
7.78,0.3826586036805073,90.69899581482312,0,100,3.0,6,0.2613662537588737
7.785,0.39559233134833227,86.30643547151764,0,100,3.0,6,0.1743848608221316
7.79,0.4,83.74771204094193,0,100,3.0,6,0.12371707011766206
7.795,0.39559233134833227,82.59820551494997,0,100,3.0,6,0.1009545646524746
7.8,0.3826586036805073,82.39507218456649,0,100,3.0,6,0.09693212246666312
7.805,0.3620352400956416,82.76100457002498,0,100,3.0,6,0.10417830831732633
7.81,0.3350163137995362,83.43701275683196,0,100,3.0,6,0.11756460904617747
7.815,0.3032192790059296,84.26274473002995,0,100,3.0,6,0.13391573722831585
7.82,0.26842527782774417,85.14136714527861,0,100,3.0,6,0.1513142008966061
7.825,0.23241585813229,86.00990517918865,0,100,3.0,6,0.1685129738453198
7.83,0.19682662652900276,86.82112236316677,0,100,3.0,6,0.1845766804587478
7.835,0.16303381314489318,87.53521333823748,0,100,3.0,6,0.19871709580668284
7.84,0.13208310477486307,88.11753774701205,0,100,3.0,6,0.21024827221806042
7.845,0.10466285982723562,88.53926927071664,0,100,3.0,6,0.2185993914993395
7.85,0.08111733445917907,88.77902403173812,0,100,3.0,6,0.22334701052946768
7.855,0.06149084917398798,88.82443075630417,0,100,3.0,6,0.22424615359018152
7.86,0.04559141333598128,88.67312595457363,0,100,3.0,6,0.22125001890244822
7.865,0.03306217087257399,88.33294216334119,0,100,3.0,6,0.21451370620477597
7.87,0.02345067901074276,87.8212325486588,0,100,3.0,6,0.20438084254769898
7.875,0.016268788896435526,87.16340340705206,0,100,3.0,6,0.19135452291192195
7.88,0.011039026374860051,86.39082504390485,0,100,3.0,6,0.17605594146346246
7.885,0.007326255555493689,85.53835951391795,0,100,3.0,6,0.15917543591916739
7.89,0.0047556414315231815,84.64177552213825,0,100,3.0,6,0.1414212974680841
7.895,0.0030193390635632803,83.73531462915751,0,100,3.0,6,0.12347157681500029
7.9,0.001874953127946523,82.8496326055666,0,100,3.0,6,0.10593331892211084
7.905,0.0011387927410965778,82.01027424192745,0,100,3.0,6,0.0893123612262861
7.91,0.0006765107634274089,81.23676123804874,0,100,3.0,6,0.07399527204056917
7.915,0.00039307957404427924,80.54229383076677,0,100,3.0,6,0.06024344219340132
7.92,0.00022338910511776318,79.93399886750076,0,100,3.0,6,0.04819799737625271
7.925,0.00012417073320013317,79.41360807300065,0,100,3.0,6,0.037893229168329615
7.93,6.750753468904987e-05,78.97842407043797,0,100,3.0,6,0.029275724167088454
7.935,3.5897234866245036e-05,78.62242792395355,0,100,3.0,6,0.022226295523832713
7.94,1.8670050400879738e-05,78.33739682142036,0,100,3.0,6,0.016582115275650608
7.945,9.497421874143672e-06,78.11392816965889,0,100,3.0,6,0.0121569934585919
7.95,4.725434140340885e-06,77.9423002876319,0,100,3.0,6,0.008758421537265242
7.955,2.299606063738814e-06,77.81313404636992,0,100,3.0,6,0.006200674185543062
7.96,1.0945633976635486e-06,77.7178495995346,0,100,3.0,6,0.004313853456130745
7.965,5.095703414287532e-07,77.64893495872354,0,100,3.0,6,0.002949207103436511
7.97,2.3202944964797243e-07,77.60005756748029,0,100,3.0,6,0.0019813379699067666
7.975,1.0333746954038608e-07,77.56605666430328,0,100,3.0,6,0.0013080527584806965
7.98,4.501406988770349e-08,77.54285453088583,0,100,3.0,6,0.0008486045719966978
7.985,0.0,77.5273206016611,0,100,3.0,6,0.0005410020130911431
7.99,0.0,77.51711579911962,0,100,3.0,6,0.0003389267152400488
7.995,0.0,77.5105370128528,0,100,3.0,6,0.00020865371985730172
8.0,0.0,77.50637457516568,0,100,3.0,6,0.00012622921120157684
8.005,0.0,77.50378964379554,0,100,3.0,6,7.504245139688068e-05
8.01,0.0,77.50221390480374,0,100,3.0,6,4.3839699083937465e-05
8.015,0.0,77.50127096298368,0,100,3.0,6,2.5167583835287354e-05
8.02,0.0,77.5007170018383,0,100,3.0,6,1.4198056203890746e-05
8.025,0.0,77.5003974852742,0,100,3.0,6,7.870995528834317e-06
8.03,0.0,77.50021653855089,0,100,3.0,6,4.287892096780893e-06
8.035,0.0,77.50011592118605,0,100,3.0,6,2.2954690307145002e-06
8.04,0.0,77.50006098230187,0,100,3.0,6,1.2075703341564587e-06
8.045,0.001684486749771458,77.50003152522672,0,100,3.0,6,6.2426191519053e-07
8.05,0.00456624331333666,77.50001601496638,0,100,3.0,6,3.1712804707015015e-07
8.055,0.011079731271581421,77.5000079947935,0,100,3.0,6,1.5831274269955187e-07
8.06,0.024064571490409,77.50000392194843,0,100,3.0,6,7.766234521924243e-08
8.065,0.046784906529573234,77.50000189064467,0,100,3.0,6,3.743850828472529e-08
8.07,0.08141644351188804,77.50000089563562,0,100,3.0,6,1.7735358862482105e-08
8.075,0.12682276464025305,77.50000041693293,0,100,3.0,6,8.256097710880856e-09
8.08,0.1768320708657512,77.500000190728,0,100,3.0,6,3.776792124368188e-09
8.085,0.22070063230473494,77.50000008573855,0,100,3.0,6,1.697793043667213e-09
8.09,0.24656126505113576,77.50000003787487,0,100,3.0,6,7.499974151077107e-10
8.095,0.24656126505724016,77.50000001644143,0,100,3.0,6,3.255729327497872e-10
8.1,0.220700632329898,77.50000000701361,0,100,3.0,6,1.3888338663932835e-10
8.105,0.17683207093748562,77.50000000294007,0,100,3.0,6,5.821919843907777e-11
8.11,0.12682276483597799,77.50000000121112,0,100,3.0,6,2.3982576101051303e-11
8.115,0.08141644409447898,77.50000000049026,0,100,3.0,6,9.708124293460474e-12
8.12,0.04678490952598309,77.50000000019502,0,100,3.0,6,3.8616942427072695e-12
8.125,0.024064605020532023,77.50000000007623,0,100,3.0,6,1.5094460335117535e-12
8.13,0.011080171739334697,77.50000000002929,0,100,3.0,6,5.799717142184422e-13
8.135,0.004571212771509492,77.50000000001106,0,100,3.0,6,2.1893158353321106e-13
8.14,0.0017299316936037438,77.50000000000409,0,100,3.0,6,8.104408233620152e-14
8.145,0.0008899431850697582,77.50000000000149,0,100,3.0,6,2.9547321685073474e-14
8.15,0.002128806368910263,77.50000000000054,0,100,3.0,6,1.0693316419359924e-14
8.155,0.009309664818487698,77.50000000000018,0,100,3.0,6,3.6582398276757634e-15
8.16,0.03503263543368747,77.50000000000007,0,100,3.0,6,1.4070153183368321e-15
8.165,0.10606267793605692,77.50000000000003,0,100,3.0,6,5.628061273347328e-16
8.17,0.25734927343160535,77.5,0,100,3.0,6,0.0
8.175,0.5003202479539708,77.5,0,100,3.0,6,0.0
8.18,0.7793067891790435,77.5,0,100,3.0,6,0.0
8.185,0.9720477407234077,77.50000296821848,1,100,3.0,6,5.877660359741154e-08
8.19,0.967267334488097,77.50000774523619,0,100,3.0,6,1.5337101364938202e-07
8.195,0.7505869905515209,77.50002366221294,0,100,3.0,6,4.6855867206449876e-07
8.2,0.4028369574773956,77.5000900438735,0,100,3.0,6,1.7830469999753945e-06
8.205,0.04553881263121314,77.5003983603415,0,100,3.0,6,7.888323594188747e-06
8.21,-0.189138810908105,77.5018094349621,0,100,3.0,6,3.583039528907062e-05
8.215,-0.22868072635956738,77.5077738529244,0,100,3.0,6,0.00015393768167131845
8.22,-0.14104670682394166,77.53043854997873,0,100,3.0,6,0.0006027435639351656
8.225,-0.051158381651102834,77.60701325684117,0,100,3.0,6,0.002119074392894471
8.23,-0.008206426846427752,77.83581901684016,0,100,3.0,6,0.006649881521587367
8.235,0.005350271385530505,78.43835600603057,0,100,3.0,6,0.018581307050110376
8.24,0.01084668799215426,79.83220371560535,0,100,3.0,6,0.046182251794165255
8.245,0.016256859896386415,82.6534072980135,0,100,3.0,6,0.10204766926759416
8.25,0.02345021205790711,87.62175436537191,0,100,3.0,6,0.2004307795123151
8.255,0.0330621597308209,95.16889586372828,0,100,3.0,6,0.3498791260144214
8.26,0.04559141319943196,104.91239474627415,0,100,3.0,6,0.5428196979460227
8.265,0.06149084917446989,115.2997208265866,0,100,3.0,6,0.7485093232987444
8.27,0.08111733445924295,123.83329658741911,0,100,3.0,6,0.9174910215330517
8.275,0.1046628598272375,128.0,0,100,3.0,6,1.0
8.28,0.1320831047748631,126.47410979138105,0,100,3.0,6,0.9697843523045753
8.285,0.16303381314489318,119.82096684464568,0,100,3.0,6,0.8380389474187264
8.29,0.19682662652900276,110.2009779536412,0,100,3.0,6,0.6475441178938851
8.295,0.23241585813229,100.28721043873878,0,100,3.0,6,0.4512318898760155
8.3,0.26842527782774417,92.13248750667549,0,100,3.0,6,0.2897522278549602
8.305,0.30321927900592993,86.62310103088748,0,100,3.0,6,0.18065546595816798
8.31,0.3350163137995362,83.62509851188335,0,100,3.0,6,0.12128907944323468
8.315,0.3620352400956416,82.4864154909746,0,100,3.0,6,0.09874090081137808
8.32,0.3826586036805073,82.49777442142185,0,100,3.0,6,0.09896583012716538
8.325,0.39559233134833227,83.1247887569515,0,100,3.0,6,0.11138195558319808
8.33,0.4,84.03878048497286,0,100,3.0,6,0.1294808016826309
8.335,0.39559233134833227,85.05568648493842,0,100,3.0,6,0.14961755415719644
8.34,0.3826586036805073,86.06750957962458,0,100,3.0,6,0.16965365504207097
8.345,0.3620352400956416,86.99882251844413,0,100,3.0,6,0.18809549541473522
8.35,0.3350163137995362,87.78798594156314,0,100,3.0,6,0.20372249389233932
8.355,0.3032192790059296,88.38303084192793,0,100,3.0,6,0.21550556122629572
8.36,0.26842527782774417,88.74374366383778,0,100,3.0,6,0.22264838938292625
8.365,0.23241585813229,88.8451555592435,0,100,3.0,6,0.22465654572759394
8.37,0.19682662652900276,88.68015706225131,0,100,3.0,6,0.2213892487574517
8.375,0.16303381314489318,88.26027099045443,0,100,3.0,6,0.21307467307830555
8.38,0.13208310477486307,87.61431226042194,0,100,3.0,6,0.20028341109746417
8.385,0.10466285982723562,86.78511633299259,0,100,3.0,6,0.18386368976222944
8.39,0.08111733445917907,85.82484553957084,0,100,3.0,6,0.16484842652615533
8.395,0.06149084917398798,84.78958597109914,0,100,3.0,6,0.14434823705146818
8.4,0.04559141333598128,83.73400840220722,0,100,3.0,6,0.1234457109347965
8.405,0.03306217087257399,82.70678622679587,0,100,3.0,6,0.10310467775833407
8.41,0.02345067901074276,81.74727082565468,0,100,3.0,6,0.0841043727852412
8.415,0.016268788896435526,80.88367002962482,0,100,3.0,6,0.06700336692326384
8.42,0.011039026374860051,80.13271530361357,0,100,3.0,6,0.05213297630917951
8.425,0.007326255555493689,79.50058788374957,0,100,3.0,6,0.03961560165840741
8.43,0.0047556414315231815,78.98473591355804,0,100,3.0,6,0.02940071115956516
8.435,0.0030193390635632803,78.57616443646707,0,100,3.0,7,0.021310186860734007
8.44,0.001874953127946523,78.2618086533356,0,100,3.0,7,0.015085319868031808
