Time,ECG,Pressure,R_Peaks,mean_hr,hrv_scale,Phase_Bin,Normalized_Pressure
0.0,0.001684486749771458,77.5,0,100,3.0,0,0.0
0.005,0.00456624331333666,77.5,0,100,3.0,0,0.0
0.01,0.011079731271581421,77.5,0,100,3.0,0,0.0
0.015,0.024064571490409,77.5,0,100,3.0,0,0.0
0.02,0.046784906529573234,77.5,0,100,3.0,0,0.0
0.025,0.08141644351188804,77.5,0,100,3.0,0,0.0
0.03,0.12682276464025305,77.5,0,100,3.0,0,0.0
0.035,0.1768320708657512,77.5,0,100,3.0,0,0.0
0.04,0.22070063230473494,77.5,0,100,3.0,0,0.0
0.045,0.24656126505113576,77.5,0,100,3.0,0,0.0
0.05,0.24656126505724016,77.5,0,100,3.0,0,0.0
0.055,0.220700632329898,77.5,0,100,3.0,0,0.0
0.06,0.17683207093748562,77.5,0,100,3.0,0,0.0
0.065,0.12682276483597799,77.5,0,100,3.0,0,0.0
0.07,0.08141644409447898,77.5,0,100,3.0,0,0.0
0.075,0.04678490952598309,77.5,0,100,3.0,0,0.0
0.08,0.024064605020532023,77.5,0,100,3.0,0,0.0
0.085,0.011080171739334697,77.5,0,100,3.0,0,0.0
0.09,0.004571212771509492,77.5,0,100,3.0,0,0.0
0.095,0.0017299316936037438,77.5,0,100,3.0,0,0.0
0.1,0.0008899431850697582,77.5,0,100,3.0,0,0.0
0.105,0.002128806368910263,77.5,0,100,3.0,0,0.0
0.11,0.009309664818487698,77.5,0,100,3.0,0,0.0
0.115,0.03503263543368747,77.5,0,100,3.0,0,0.0
0.12,0.10606267793605692,77.5,0,100,3.0,0,0.0
0.125,0.25734927343160535,77.5,0,100,3.0,0,0.0
0.13,0.5003202479539708,77.5,0,100,3.0,0,0.0
0.135,0.7793067891790435,77.5,0,100,3.0,0,0.0
0.14,0.9720477407234077,77.5,0,100,3.0,0,0.0
0.145,0.967267334488097,77.5,0,100,3.0,0,0.0
0.15,0.7505869905515209,77.5,0,100,3.0,0,0.0
0.155,0.4028369574773956,77.5,0,100,3.0,0,0.0
0.16,0.04553881263121314,77.5,0,100,3.0,0,0.0
0.165,-0.189138810908105,77.5,0,100,3.0,0,0.0
0.17,-0.22868072635956738,77.5,0,100,3.0,0,0.0
0.175,-0.14104670682394166,77.5,0,100,3.0,0,0.0
0.18,-0.051158381651102834,77.5,0,100,3.0,0,0.0
0.185,-0.008206426846427752,77.5,0,100,3.0,0,0.0
0.19,0.005350271385530505,77.5,0,100,3.0,0,0.0
0.195,0.01084668799215426,77.5,0,100,3.0,0,0.0
0.2,0.016256859896386415,77.5,0,100,3.0,0,0.0
0.205,0.02345021205790711,77.5,0,100,3.0,0,0.0
0.21,0.0330621597308209,77.5,0,100,3.0,0,0.0
0.215,0.04559141319943196,77.5,0,100,3.0,0,0.0
0.22,0.06149084917446989,77.5,0,100,3.0,0,0.0
0.225,0.08111733445924295,77.5,0,100,3.0,0,0.0
0.23,0.1046628598272375,77.5,0,100,3.0,0,0.0
0.235,0.1320831047748631,77.5,0,100,3.0,0,0.0
0.24,0.16303381314489318,77.5,0,100,3.0,0,0.0
0.245,0.19682662652900276,77.5,0,100,3.0,0,0.0
0.25,0.23241585813229,77.5,0,100,3.0,0,0.0
0.255,0.26842527782774417,77.5,0,100,3.0,0,0.0
0.26,0.30321927900592993,77.5,0,100,3.0,0,0.0
0.265,0.3350163137995362,77.5,0,100,3.0,0,0.0
0.27,0.3620352400956416,77.5,0,100,3.0,0,0.0
0.275,0.3826586036805073,77.5,0,100,3.0,0,0.0
0.28,0.39559233134833227,77.5,0,100,3.0,0,0.0
0.285,0.4,77.5,0,100,3.0,0,0.0
0.29,0.39559233134833227,77.5,0,100,3.0,0,0.0
0.295,0.3826586036805073,77.5,0,100,3.0,0,0.0
0.3,0.3620352400956416,77.5,0,100,3.0,0,0.0
0.305,0.3350163137995362,77.5,0,100,3.0,0,0.0
0.31,0.3032192790059296,77.5,0,100,3.0,0,0.0
0.315,0.26842527782774417,77.5,0,100,3.0,0,0.0
0.32,0.23241585813229,77.5,0,100,3.0,0,0.0
0.325,0.19682662652900276,77.5,0,100,3.0,0,0.0
0.33,0.16303381314489318,77.5,0,100,3.0,0,0.0
0.335,0.13208310477486307,77.5,0,100,3.0,0,0.0
0.34,0.10466285982723562,77.5,0,100,3.0,0,0.0
0.345,0.08111733445917907,77.5,0,100,3.0,0,0.0
0.35,0.06149084917398798,77.5,0,100,3.0,0,0.0
0.355,0.04559141333598128,77.5,0,100,3.0,0,0.0
0.36,0.03306217087257399,77.5,0,100,3.0,0,0.0
0.365,0.02345067901074276,77.5,0,100,3.0,0,0.0
0.37,0.016268788896435526,77.5,0,100,3.0,0,0.0
0.375,0.011039026374860051,77.5,0,100,3.0,0,0.0
0.38,0.007326255555493689,77.5,0,100,3.0,0,0.0
0.385,0.0047556414315231815,77.5,0,100,3.0,0,0.0
0.39,0.0030193390635632803,77.5,0,100,3.0,0,0.0
0.395,0.001874953127946523,77.5,0,100,3.0,0,0.0
0.4,0.0011387927410965778,77.5,0,100,3.0,0,0.0
0.405,0.0006765107634274089,77.5,0,100,3.0,0,0.0
0.41,0.00039307957404427924,77.5,0,100,3.0,0,0.0
0.415,0.00022338910511776318,77.5,0,100,3.0,0,0.0
0.42,0.00012417073320013317,77.5,0,100,3.0,0,0.0
0.425,6.750753468904987e-05,77.5,0,100,3.0,0,0.0
0.43,3.5897234866245036e-05,77.5,0,100,3.0,0,0.0
0.435,1.8670050400879738e-05,77.5,0,100,3.0,0,0.0
0.44,9.497421874143672e-06,77.5,0,100,3.0,0,0.0
0.445,4.725434140340885e-06,77.5,0,100,3.0,0,0.0
0.45,2.299606063738814e-06,77.5,0,100,3.0,0,0.0
0.455,1.0945633976635486e-06,77.5,0,100,3.0,0,0.0
0.46,5.095703414287532e-07,77.5,0,100,3.0,0,0.0
0.465,2.3202944964797243e-07,77.5,0,100,3.0,0,0.0
0.47,1.0333746954038608e-07,77.5,0,100,3.0,0,0.0
0.475,4.501406988770349e-08,77.5,0,100,3.0,0,0.0
0.48,0.0,77.5,0,100,3.0,0,0.0
0.485,0.0,77.5,0,100,3.0,0,0.0
0.49,0.0,77.5,0,100,3.0,0,0.0
0.495,0.0,77.5,0,100,3.0,0,0.0
0.5,0.0,77.5,0,100,3.0,0,0.0
0.505,0.0,77.5,0,100,3.0,0,0.0
0.51,0.0,77.5,0,100,3.0,0,0.0
0.515,0.0,77.5,0,100,3.0,0,0.0
0.52,0.0,77.5,0,100,3.0,0,0.0
0.525,0.0,77.5,0,100,3.0,0,0.0
0.53,0.0,77.5,0,100,3.0,0,0.0
0.535,0.0,77.5,0,100,3.0,0,0.0
0.54,0.0,77.5,0,100,3.0,0,0.0
0.545,0.0,77.5,0,100,3.0,0,0.0
0.55,0.0,77.5,0,100,3.0,0,0.0
0.555,0.0,77.5,0,100,3.0,0,0.0
0.56,0.0,77.5,0,100,3.0,0,0.0
0.565,0.0,77.5,0,100,3.0,0,0.0
0.57,0.0,77.5,0,100,3.0,0,0.0
0.575,0.0,77.5,0,100,3.0,0,0.0
0.58,0.0,77.5,0,100,3.0,0,0.0
0.585,0.0,77.5,0,100,3.0,0,0.0
0.59,0.0,77.5,0,100,3.0,0,0.0
0.595,0.0,77.5,0,100,3.0,0,0.0
0.6,0.0,77.5,0,100,3.0,0,0.0
0.605,0.0,77.5,0,100,3.0,0,0.0
0.61,0.0,77.5,0,100,3.0,0,0.0
0.615,0.0,77.5,0,100,3.0,0,0.0
0.62,0.0,77.5,0,100,3.0,0,0.0
0.625,0.0,77.5,0,100,3.0,0,0.0
0.63,0.0,77.5,0,100,3.0,0,0.0
0.635,0.0,77.5,0,100,3.0,0,0.0
0.64,0.0,77.5,0,100,3.0,0,0.0
0.645,0.0,77.5,0,100,3.0,0,0.0
0.65,0.0,77.5,0,100,3.0,0,0.0
0.655,0.0,77.5,0,100,3.0,0,0.0
0.66,0.0,77.5,0,100,3.0,0,0.0
0.665,0.001684486749771458,77.5,0,100,3.0,0,0.0
0.67,0.00456624331333666,77.5,0,100,3.0,0,0.0
0.675,0.011079731271581421,77.5,0,100,3.0,0,0.0
0.68,0.024064571490409,77.5,0,100,3.0,0,0.0
0.685,0.046784906529573234,77.5,0,100,3.0,0,0.0
0.69,0.08141644351188804,77.5,0,100,3.0,0,0.0
0.695,0.12682276464025305,77.5,0,100,3.0,0,0.0
0.7,0.1768320708657512,77.5,0,100,3.0,0,0.0
0.705,0.22070063230473494,77.5,0,100,3.0,0,0.0
0.71,0.24656126505113576,77.5,0,100,3.0,0,0.0
0.715,0.24656126505724016,77.5,0,100,3.0,0,0.0
0.72,0.220700632329898,77.5,0,100,3.0,0,0.0
0.725,0.17683207093748562,77.5,0,100,3.0,0,0.0
0.73,0.12682276483597799,77.5,0,100,3.0,0,0.0
0.735,0.08141644409447898,77.5,0,100,3.0,0,0.0
0.74,0.04678490952598309,77.5,0,100,3.0,0,0.0
0.745,0.024064605020532023,77.5,0,100,3.0,0,0.0
0.75,0.011080171739334697,77.5,0,100,3.0,0,0.0
0.755,0.004571212771509492,77.5,0,100,3.0,0,0.0
0.76,0.0017299316936037438,77.5,0,100,3.0,0,0.0
0.765,0.0008899431850697582,77.5,0,100,3.0,0,0.0
0.77,0.002128806368910263,77.5,0,100,3.0,0,0.0
0.775,0.009309664818487698,77.5,0,100,3.0,0,0.0
0.78,0.03503263543368747,77.5,0,100,3.0,0,0.0
0.785,0.10606267793605692,77.5,0,100,3.0,0,0.0
0.79,0.25734927343160535,77.5,0,100,3.0,0,0.0
0.795,0.5003202479539708,77.5,0,100,3.0,0,0.0
0.8,0.7793067891790435,77.5,0,100,3.0,0,0.0
0.805,0.9720477407234077,77.5000029632167,1,100,3.0,0,5.867755844249559e-08
0.81,0.967267334488097,77.50000611949993,0,100,3.0,0,1.2117821641611342e-07
0.815,0.7505869905515209,77.5000136661605,0,100,3.0,0,2.706170395714874e-07
0.82,0.4028369574773956,77.50003448761683,0,100,3.0,0,6.829231055424244e-07
0.825,0.04553881263121314,77.50009893563154,0,100,3.0,0,1.9591214166635243e-06
0.83,-0.189138810908105,77.50030887479707,0,100,3.0,0,6.1163326152625205e-06
0.835,-0.22868072635956738,77.50098936987865,0,100,3.0,0,1.9591482745598493e-05
0.84,-0.14104670682394166,77.50311109919818,0,100,3.0,0,6.160592471641763e-05
0.845,-0.051158381651102834,77.50936430658398,0,100,3.0,0,0.00018543181354407307
0.85,-0.008206426846427752,77.52663503308537,0,100,3.0,0,0.0005274263977300939
0.855,0.005350271385530505,77.57113795423459,0,100,3.0,0,0.0014086723610809244
0.86,0.01084668799215426,77.67785621339104,0,100,3.0,0,0.003521905215664127
0.865,0.016256859896386415,77.9156022259755,0,100,3.0,0,0.008229747049019897
0.87,0.02345021205790711,78.4069380257099,0,100,3.0,0,0.017959168825938725
0.875,0.0330621597308209,79.34748987799968,0,100,3.0,0,0.036583957980191636
0.88,0.04559141319943196,81.01228362930992,0,100,3.0,0,0.06955017087742416
0.885,0.06149084917446989,83.73079902637203,0,100,3.0,0,0.12338215893805991
0.89,0.08111733445924295,87.81367872264438,0,100,3.0,0,0.20423126183454224
0.895,0.1046628598272375,93.4288216152286,0,100,3.0,0,0.3154222102025465
0.9,0.1320831047748631,100.45351412056698,0,100,3.0,0,0.4545250320904352
0.905,0.16303381314489318,108.36134960751014,0,100,3.0,0,0.6111158338120819
0.91,0.19682662652900276,116.21652194472324,0,100,3.0,0,0.7666638008856087
0.915,0.23241585813229,122.82360122088085,0,100,3.0,0,0.8974970538788286
0.92,0.26842527782774417,127.01713839847308,0,100,3.0,0,0.9805373940291698
0.925,0.30321927900592993,128.0,0,100,3.0,0,1.0
0.93,0.3350163137995362,125.59701682575721,0,100,3.0,0,0.9524161747674694
0.935,0.3620352400956416,120.3140247604608,0,100,3.0,0,0.8478024705041742
0.94,0.3826586036805073,113.17578272521496,0,100,3.0,0,0.7064511430735635
0.945,0.39559233134833227,105.41460450461524,0,100,3.0,0,0.5527644456359454
0.95,0.4,98.1397912084383,0,100,3.0,0,0.40870873680075837
0.955,0.39559233134833227,92.10783014594557,0,100,3.0,0,0.2892639632860509
0.96,0.3826586036805073,87.64951021194136,0,100,3.0,0,0.2009804002364626
0.965,0.3620352400956416,84.73520644729147,0,100,3.0,0,0.143271414797851
0.97,0.3350163137995362,83.11302488416099,0,100,3.0,0,0.11114900760714837
0.975,0.3032192790059296,82.45012180045974,0,100,3.0,0,0.09802221387048991
0.98,0.26842527782774417,82.43311100444015,0,100,3.0,0,0.09768536642455743
0.985,0.23241585813229,82.8162323398421,0,100,3.0,0,0.10527192752162579
0.99,0.19682662652900276,83.42866618321837,0,100,3.0,0,0.11739933036075977
0.995,0.16303381314489318,84.1600622480566,0,100,3.0,0,0.13188242075359613
1.0,0.13208310477486307,84.940236624999,0,100,3.0,0,0.14733141831681193
1.005,0.10466285982723562,85.72195777553705,0,100,3.0,0,0.1628110450601396
1.01,0.08111733445917907,86.4696633299647,0,100,3.0,0,0.1776170956428654
1.015,0.06149084917398798,87.15353818842898,0,100,3.0,0,0.19115917204809865
1.02,0.04559141333598128,87.74725089071974,0,100,3.0,0,0.2029158592221731
1.025,0.03306217087257399,88.22774168238095,0,100,3.0,0,0.21243052836397924
1.03,0.02345067901074276,88.57593914149084,0,100,3.0,0,0.21932552755427395
1.035,0.016268788896435526,88.77773137510404,0,100,3.0,0,0.2233214133683968
1.04,0.011039026374860051,88.82481855964929,0,100,3.0,0,0.22425383286434233
1.045,0.007326255555493689,88.71524935893723,0,100,3.0,0,0.22208414572152926
1.05,0.0047556414315231815,88.45354650959632,0,100,3.0,0,0.21690191108111528
1.055,0.0030193390635632803,88.05039484238684,0,100,3.0,0,0.20891870975023438
1.06,0.001874953127946523,87.52191701266186,0,100,3.0,0,0.1984538022309279
1.065,0.0011387927410965778,86.88860404516025,0,100,3.0,0,0.18591295138931188
1.07,0.0006765107634274089,86.17399918548756,0,100,3.0,0,0.17176236010866455
1.075,0.00039307957404427924,85.40325259759987,0,100,3.0,0,0.15650005143762127
1.08,0.00022338910511776318,84.60166988532686,0,100,3.0,0,0.14062712644211597
1.085,0.00012417073320013317,83.79336949573046,0,100,3.0,0,0.12462117813327643
1.09,6.750753468904987e-05,83.00014467233905,0,100,3.0,0,0.10891375588790192
1.095,3.5897234866245036e-05,82.2405979846216,0,100,3.0,0,0.09387322741824954
1.1,1.8670050400879738e-05,81.52958456421845,0,100,3.0,0,0.07979375374690006
1.105,9.497421874143672e-06,80.8779681711764,0,100,3.0,0,0.06689045883517634
1.11,4.725434140340885e-06,80.29266578507671,0,100,3.0,0,0.05530031257577638
1.115,2.299606063738814e-06,79.77693434234938,0,100,3.0,0,0.045087808759393624
1.12,1.0945633976635486e-06,79.33083911757771,0,100,3.0,0,0.03625423995203387
1.125,5.095703414287532e-07,78.95183743607637,0,100,3.0,0,0.028749256159928207
1.13,2.3202944964797243e-07,78.63541317800785,0,100,3.0,0,0.022483429267482213
1.135,1.0333746954038608e-07,78.3757053491493,0,100,3.0,0,0.017340699983154448
1.14,4.501406988770349e-08,78.16608584846017,0,100,3.0,0,0.013189818781389513
1.145,0.0,77.99965535153865,0,100,3.0,0,0.00989416537700296
1.15,0.0,77.86964004284735,0,100,3.0,0,0.007319604808858435
1.155,0.0,77.7696842680522,0,100,3.0,0,0.005340282535687178
1.16,0.0,77.69404405685896,0,100,3.0,0,0.0038424565714644857
1.165,0.0,77.63769342762592,0,100,3.0,0,0.0027266025272459243
1.17,0.0,77.59635942692422,0,100,3.0,0,0.0019081074638460122
1.175,0.0,77.56650332172448,0,100,3.0,0,0.0013168974598907444
1.18,0.0,77.54526479938636,0,100,3.0,0,0.0008963326611160258
1.185,0.0,77.53038407321809,0,100,3.0,0,0.0006016648161997493
1.19,0.0,77.52011404975813,0,100,3.0,0,0.0003982980150125725
1.195,0.0,77.51313170683527,0,100,3.0,0,0.0002600337987181626
1.2,0.0,77.50845494854985,0,100,3.0,0,0.0001674247237594887
1.205,0.0,77.5053686969771,0,100,3.0,1,0.00010631083122971762
1.21,0.0,77.50336197861758,0,100,3.0,1,6.6573834011411e-05
1.215,0.0,77.50207629536354,0,100,3.0,1,4.1114759673998586e-05
1.22,0.0,77.5012645949802,0,100,3.0,1,2.5041484756421046e-05
1.225,0.0,77.50075959466382,0,100,3.0,1,1.5041478491465937e-05
1.23,0.0,77.50044996681824,0,100,3.0,1,8.910234024507182e-06
1.235,0.0,77.50026287374051,0,100,3.0,1,5.205420604165783e-06
1.24,0.0,77.50015145445519,0,100,3.0,1,2.9990981226213685e-06
1.245,0.0,77.5000860567684,0,100,3.0,1,1.7040944236790586e-06
1.25,0.0,77.50004822321333,0,100,3.0,1,9.549151153769704e-07
1.255,0.0,77.50002664988816,0,100,3.0,1,5.277205575409182e-07
1.26,0.0,77.50001452455274,0,100,3.0,1,2.87614905726802e-07
1.265,0.0,77.50000780689389,0,100,3.0,1,1.545919582269454e-07
1.27,0.001684486749771458,77.5000041382995,0,100,3.0,1,8.194652479579589e-08
1.275,0.00456624331333666,77.5000021633844,0,100,3.0,1,4.2839294936507795e-08
1.28,0.011079731271581421,77.50000111535623,0,100,3.0,1,2.2086261919461736e-08
1.285,0.024064571490409,77.50000056710259,0,100,3.0,1,1.1229754235419834e-08
1.29,0.046784906529573234,77.5000002843661,0,100,3.0,1,5.631011784469881e-09
1.295,0.08141644351188804,77.50000014062486,0,100,3.0,1,2.784650749811473e-09
1.3,0.12682276464025305,77.5000000685827,0,100,3.0,1,1.3580731346976763e-09
1.305,0.1768320708657512,77.5000000329864,0,100,3.0,1,6.53196168221455e-10
1.31,0.22070063230473494,77.50000001564673,0,100,3.0,1,3.0983631062338077e-10
1.315,0.24656126505113576,77.50000000731949,0,100,3.0,1,1.4494030618170475e-10
1.32,0.24656126505724016,77.5000000033768,0,100,3.0,1,6.686727739170327e-11
1.325,0.220700632329898,77.50000000153638,0,100,3.0,1,3.042332942226998e-11
1.33,0.17683207093748562,77.50000000068938,0,100,3.0,1,1.3651144021567612e-11
1.335,0.12682276483597799,77.50000000030506,0,100,3.0,1,6.0408795677473545e-12
1.34,0.08141644409447898,77.50000000013313,0,100,3.0,1,2.6361839004358887e-12
1.345,0.04678490952598309,77.5000000000573,0,100,3.0,1,1.1346171527068214e-12
1.35,0.024064605020532023,77.50000000002431,0,100,3.0,1,4.81480641934864e-13
1.355,0.011080171739334697,77.50000000001017,0,100,3.0,1,2.0148459358583435e-13
1.36,0.004571212771509492,77.5000000000042,0,100,3.0,1,8.329530684554046e-14
1.365,0.0017299316936037438,77.5000000000017,0,100,3.0,1,3.376836764008397e-14
1.37,0.0008899431850697582,77.50000000000068,0,100,3.0,1,1.3507347056033587e-14
1.375,0.002128806368910263,77.50000000000027,0,100,3.0,1,5.346658209679962e-15
1.38,0.009309664818487698,77.5000000000001,0,100,3.0,1,1.969821445671565e-15
1.385,0.03503263543368747,77.50000000000004,0,100,3.0,1,8.442091910020992e-16
1.39,0.10606267793605692,77.50000000000001,0,100,3.0,1,2.814030636673664e-16
1.395,0.25734927343160535,77.5,0,100,3.0,1,0.0
1.4,0.5003202479539708,77.5,0,100,3.0,1,0.0
1.405,0.7793067891790435,77.5,0,100,3.0,1,0.0
1.41,0.9720477407234077,77.5000029632167,1,100,3.0,1,5.867755844249559e-08
1.415,0.967267334488097,77.5000059376048,0,100,3.0,1,1.1757633261719219e-07
1.42,0.7505869905515209,77.50001276355475,0,100,3.0,1,2.5274365841574077e-07
1.425,0.4028369574773956,77.50003064109448,0,100,3.0,1,6.067543461986224e-07
1.43,0.04553881263121314,77.50008298165619,0,100,3.0,1,1.6432011127090117e-06
1.435,-0.189138810908105,77.50024503836143,0,100,3.0,1,4.852244780740965e-06
1.44,-0.22868072635956738,77.50074848054169,0,100,3.0,1,1.4821396865108279e-05
1.445,-0.14104670682394166,77.50226551612232,0,100,3.0,1,4.4861705392500734e-05
1.45,-0.051158381651102834,77.50661940466038,0,100,3.0,1,0.00013107732000760438
1.455,-0.008206426846427752,77.51841054376423,0,100,3.0,1,0.00036456522305411903
1.46,0.005350271385530505,77.54839812828513,0,100,3.0,1,0.0009583787779233446
1.465,0.01084668799215426,77.61982582118479,0,100,3.0,1,0.0023727885383126738
1.47,0.016256859896386415,77.77889256217193,0,100,3.0,1,0.0055226249935036225
1.475,0.02345021205790711,78.10963732186457,0,100,3.0,1,0.012072026175536002
1.48,0.0330621597308209,78.75092151744123,0,100,3.0,1,0.02477072311764807
1.485,0.04559141319943196,79.9087326709927,0,100,3.0,1,0.0476976766533209
1.49,0.06149084917446989,81.85188343427765,0,100,3.0,1,0.0861759095896565
1.495,0.08111733445924295,84.87660047953338,0,100,3.0,1,0.14607129662442336
1.5,0.1046628598272375,89.23015235542505,0,100,3.0,1,0.23228024466188213
1.505,0.1320831047748631,94.99882501874558,0,100,3.0,1,0.3465113865098134
1.51,0.16303381314489318,101.98894029735766,0,100,3.0,1,0.4849295108387655
1.515,0.19682662652900276,109.65089174060849,0,100,3.0,1,0.6366513215962076
1.52,0.23241585813229,117.09986446314402,0,100,3.0,1,0.7841557319434459
1.525,0.26842527782774417,123.26166314833992,0,100,3.0,1,0.9061715474918796
1.53,0.30321927900592993,127.12152069509544,0,100,3.0,1,0.9826043701999098
1.535,0.3350163137995362,128.0,0,100,3.0,1,1.0
1.54,0.3620352400956416,125.753838019447,0,100,3.0,1,0.9555215449395446
1.545,0.3826586036805073,120.82076135998885,0,100,3.0,1,0.8578368586136406
1.55,0.39559233134833227,114.08960455830919,0,100,3.0,1,0.7245466249170137
1.555,0.4,106.64913868340399,0,100,3.0,1,0.5772106669980989
1.56,0.39559233134833227,99.5133886516984,0,100,3.0,1,0.43590868617224565
1.565,0.3826586036805073,93.41762112302557,0,100,3.0,1,0.31520041827773404
1.57,0.3620352400956416,88.73552998548763,0,100,3.0,1,0.22248574228688378
1.575,0.3350163137995362,85.51231074372309,0,100,3.0,1,0.15865961868758596
1.58,0.3032192790059296,83.56875812223683,0,100,3.0,1,0.12017342816310553
1.585,0.26842527782774417,82.62145439320233,0,100,3.0,1,0.10141493847925401
1.59,0.23241585813229,82.37856251014239,0,100,3.0,1,0.09660519822064134
1.595,0.19682662652900276,82.59484163283764,0,100,3.0,1,0.10088795312549786
1.6,0.16303381314489318,83.08955460734782,0,100,3.0,1,0.11068424965045191
1.605,0.13208310477486307,83.74068070754905,0,100,3.0,1,0.12357783579305041
1.61,0.10466285982723562,84.46928792877765,0,100,3.0,1,0.1380057015599534
1.615,0.08111733445917907,85.22350477295976,0,100,3.0,1,0.15294068857346052
1.62,0.06149084917398798,85.96643451289296,0,100,3.0,1,0.16765216857213783
1.625,0.04559141333598128,86.66877212581805,0,100,3.0,1,0.181559844075605
1.63,0.03306217087257399,87.30517905319509,0,100,3.0,1,0.19416196144940773
1.635,0.02345067901074276,87.85308057266846,0,100,3.0,1,0.20501149648848438
1.64,0.016268788896435526,88.29277433001748,0,100,3.0,1,0.21371830356470256
1.645,0.011039026374860051,88.60810467392501,0,100,3.0,1,0.2199624687905943
1.65,0.007326255555493689,88.78725860971063,0,100,3.0,1,0.22351007147941848
1.655,0.0047556414315231815,88.82343447722398,0,100,3.0,1,0.22422642529156403
1.66,0.0030193390635632803,88.71524935893723,0,100,3.0,1,0.22208414572152926
1.665,0.001874953127946523,88.46682050888896,0,100,3.0,1,0.21716476255225658
1.67,0.0011387927410965778,88.08750355955483,0,100,3.0,1,0.20965353583276897
1.675,0.0006765107634274089,87.59130736152696,0,100,3.0,1,0.19982786854508827
1.68,0.00039307957404427924,86.99603550232074,0,100,3.0,1,0.18804030697664825
1.685,0.00022338910511776318,86.32222756000658,0,100,3.0,1,0.17469757544567488
1.69,0.00012417073320013317,85.5919876730514,0,100,3.0,1,0.16023737966438428
1.695,6.750753468904987e-05,84.82779312309145,0,100,3.0,1,0.14510481431864264
1.7,3.5897234866245036e-05,84.05137136185039,0,100,3.0,1,0.12973012597723535
1.705,1.8670050400879738e-05,83.28272136314028,0,100,3.0,1,0.11450933392356996
1.71,9.497421874143672e-06,82.53933634560707,0,100,3.0,1,0.09978883852687265
1.715,4.725434140340885e-06,81.83566237670279,0,100,3.0,1,0.08585470052876804
1.72,2.299606063738814e-06,81.182803916743,0,100,3.0,1,0.07292681023253461
1.725,1.0945633976635486e-06,80.5884655936849,0,100,3.0,1,0.06115773452841389
1.73,5.095703414287532e-07,80.05710151400747,0,100,3.0,1,0.050635673544702386
1.735,2.3202944964797243e-07,79.59023060237372,0,100,3.0,1,0.04139070499749946
1.74,1.0333746954038608e-07,79.18686941841649,0,100,3.0,1,0.03340335482012856
1.745,4.501406988770349e-08,78.8440324631707,0,100,3.0,1,0.026614504221202092
1.75,0.0,78.55725338170798,0,100,3.0,1,0.020935710528870895
1.755,0.0,78.32108749492411,0,100,3.0,1,0.016259158315329
1.76,0.0,78.12956535899671,0,100,3.0,1,0.012466640772212169
1.765,0.0,77.97657717630197,0,100,3.0,1,0.009437171807959858
1.77,0.0,77.8561776684136,0,100,3.0,1,0.007053023136902843
1.775,0.0,77.76280956302601,0,100,3.0,1,0.005204149762891298
1.78,0.0,77.691450573779,0,100,3.0,1,0.0037911004708711636
1.785,0.0,77.63769342762592,0,100,3.0,1,0.0027266025272459243
1.79,0.0,77.59777116282646,0,100,3.0,1,0.00193606263022696
1.795,0.0,77.56854083334795,0,100,3.0,1,0.0013572442247119388
1.8,0.0,77.54743828840738,0,100,3.0,1,0.0009393720476708441
1.805,0.0,77.53241527216751,0,100,3.0,1,0.0006418865775744939
1.81,0.0,77.52186811576739,0,100,3.0,1,0.0004330319953938593
1.815,0.0,77.5145651206646,0,100,3.0,1,0.0002884182309821656
1.82,0.0,77.50957762524908,0,100,3.0,1,0.00018965594552632369
1.825,0.0,77.50621788411807,0,100,3.0,1,0.00012312641817965243
1.83,0.0,77.50398536808234,0,100,3.0,1,7.891817984831379e-05
1.835,0.0,77.50252194309775,0,100,3.0,1,4.993946728212328e-05
1.84,0.0,77.50157558979458,0,100,3.0,1,3.1199797912548924e-05
1.845,0.0,77.50097183394746,0,100,3.0,1,1.9244236583371374e-05
1.85,0.0,77.50059180959549,0,100,3.0,1,1.1719001890912862e-05
1.855,0.0,77.50035580575643,0,100,3.0,1,7.045658543122477e-06
1.86,0.0,77.50021119564977,0,100,3.0,1,4.182092074625142e-06
1.865,0.0,77.50012376504303,0,100,3.0,1,2.4507929312545853e-06
1.87,0.0,77.5000716064357,0,100,3.0,1,1.4179492217124898e-06
1.875,0.0,77.5000409022451,0,100,3.0,1,8.099454475996026e-07
1.88,0.0,77.50002306658317,0,100,3.0,1,4.5676402312820564e-07
1.885,0.0,77.50001284282068,0,100,3.0,1,2.5431328080599943e-07
1.89,0.0,77.50000705957572,0,100,3.0,1,1.3979357865789305e-07
1.895,0.0,77.50000383122638,0,100,3.0,1,7.586586890499915e-08
1.9,0.001684486749771458,77.50000205275943,0,100,3.0,1,4.064870153126664e-08
1.905,0.00456624331333666,77.50000108587373,0,100,3.0,1,2.1502450179036488e-08
1.91,0.011079731271581421,77.50000056710259,0,100,3.0,1,1.1229754235419834e-08
1.915,0.024064571490409,77.50000029240512,0,100,3.0,1,5.790200371974255e-09
1.92,0.046784906529573234,77.50000014885018,0,100,3.0,1,2.947528250077463e-09
1.925,0.08141644351188804,77.50000007480915,0,100,3.0,1,1.4813693242374057e-09
1.93,0.12682276464025305,77.50000003711942,0,100,3.0,1,7.350380282431535e-10
1.935,0.1768320708657512,77.50000001818397,0,100,3.0,1,3.600785764166797e-10
1.94,0.22070063230473494,77.50000000879461,0,100,3.0,1,1.7415078839956838e-10
1.945,0.24656126505113576,77.50000000419939,0,100,3.0,1,8.315629373208878e-11
1.95,0.24656126505724016,77.50000000197969,0,100,3.0,1,3.920169799337348e-11
1.955,0.220700632329898,77.5000000009214,0,100,3.0,1,1.8245611842064705e-11
1.96,0.17683207093748562,77.50000000042338,0,100,3.0,1,8.383841475841848e-12
1.965,0.12682276483597799,77.50000000019207,0,100,3.0,1,3.803443808528125e-12
1.97,0.08141644409447898,77.50000000008603,0,100,3.0,1,1.7036141474422362e-12
1.975,0.04678490952598309,77.50000000003804,0,100,3.0,1,7.533160014375399e-13
1.98,0.024064605020532023,77.50000000001661,0,100,3.0,1,3.2896018142715135e-13
1.985,0.011080171739334697,77.50000000000716,0,100,3.0,1,1.4182714408835267e-13
1.99,0.004571212771509492,77.50000000000304,0,100,3.0,1,6.022025562481641e-14
1.995,0.0017299316936037438,77.50000000000128,0,100,3.0,1,2.5326275730062977e-14
2.0,0.0008899431850697582,77.50000000000053,0,100,3.0,1,1.0411913355692557e-14
2.005,0.002128806368910263,77.50000000000021,0,100,3.0,1,4.221045955010496e-15
2.01,0.009309664818487698,77.50000000000009,0,100,3.0,1,1.6884183820041984e-15
2.015,0.03503263543368747,77.50000000000003,0,100,3.0,1,5.628061273347328e-16
2.02,0.10606267793605692,77.50000000000001,0,100,3.0,1,2.814030636673664e-16
2.025,0.25734927343160535,77.5,0,100,3.0,1,0.0
2.03,0.5003202479539708,77.5,0,100,3.0,1,0.0
2.035,0.7793067891790435,77.5,0,100,3.0,1,0.0
2.04,0.9720477407234077,77.50000296417907,1,100,3.0,1,5.8696615339370215e-08
2.045,0.967267334488097,77.50000671426626,0,100,3.0,1,1.3295576758366115e-07
2.05,0.7505869905515209,77.50001690807775,0,100,3.0,1,3.3481342086923917e-07
2.055,0.4028369574773956,77.50004998152149,0,100,3.0,1,9.897330987161408e-07
2.06,0.04553881263121314,77.50017093493624,0,100,3.0,1,3.3848502224904368e-06
2.065,-0.189138810908105,77.50062682696246,0,100,3.0,1,1.2412415098215026e-05
2.07,-0.22868072635956738,77.50228951654114,0,100,3.0,1,4.533696121069003e-05
2.075,-0.14104670682394166,77.50797121731352,0,100,3.0,1,0.00015784588739653274
2.08,-0.051158381651102834,77.52589581734757,0,100,3.0,1,0.0005127884623282125
2.085,-0.008206426846427752,77.57774358530986,0,100,3.0,1,0.001539476936828929
2.09,0.005350271385530505,77.7147515715821,0,100,3.0,1,0.00425250636796235
2.095,0.01084668799215426,78.04471478880228,0,100,3.0,1,0.01078643146143131
2.1,0.016256859896386415,78.76748649806238,0,100,3.0,1,0.02509874253588876
2.105,0.02345021205790711,80.20427167320135,0,100,3.0,1,0.05354993412279896
2.11,0.0330621597308209,82.78911922275384,0,100,3.0,1,0.10473503411393742
2.115,0.04559141319943196,86.98172744251318,0,100,3.0,1,0.18775697905966685
2.12,0.06149084917446989,93.07887730032347,0,100,3.0,1,0.30849261980838555
2.125,0.08111733445924295,100.95962721250167,0,100,3.0,1,0.4645470735148846
2.13,0.1046628598272375,109.87793025058434,0,100,3.0,1,0.6411471336749375
2.135,0.1320831047748631,118.45853789884562,0,100,3.0,1,0.8110601564127845
2.14,0.16303381314489318,124.99616767138359,0,100,3.0,1,0.9405181717105661
2.145,0.19682662652900276,128.0,0,100,3.0,1,1.0
2.15,0.23241585813229,126.75356838385197,0,100,3.0,1,0.9753181858188509
2.155,0.26842527782774417,121.60504184108623,0,100,3.0,1,0.8733671651700244
2.16,0.30321927900592993,113.82915829348634,0,100,3.0,1,0.7193892731383434
2.165,0.3350163137995362,105.1368956240279,0,100,3.0,1,0.5472652598817406
2.17,0.3620352400956416,97.09121900543379,0,100,3.0,1,0.387944930800669
2.175,0.3826586036805073,90.69899581482312,0,100,3.0,1,0.2613662537588737
2.18,0.39559233134833227,86.30643547151764,0,100,3.0,1,0.1743848608221316
2.185,0.4,83.74771204094193,0,100,3.0,1,0.12371707011766206
2.19,0.39559233134833227,82.59820551494997,0,100,3.0,1,0.1009545646524746
2.195,0.3826586036805073,82.39507218456649,0,100,3.0,1,0.09693212246666312
2.2,0.3620352400956416,82.76100457002498,0,100,3.0,1,0.10417830831732633
2.205,0.3350163137995362,83.43701275683196,0,100,3.0,1,0.11756460904617747
2.21,0.3032192790059296,84.26274473002995,0,100,3.0,1,0.13391573722831585
2.215,0.26842527782774417,85.14136714527861,0,100,3.0,1,0.1513142008966061
2.22,0.23241585813229,86.00990517918865,0,100,3.0,1,0.1685129738453198
2.225,0.19682662652900276,86.82112236316677,0,100,3.0,1,0.1845766804587478
2.23,0.16303381314489318,87.53521333823748,0,100,3.0,1,0.19871709580668284
2.235,0.13208310477486307,88.11753774701205,0,100,3.0,1,0.21024827221806042
2.24,0.10466285982723562,88.53926927071664,0,100,3.0,1,0.2185993914993395
2.245,0.08111733445917907,88.77902403173812,0,100,3.0,1,0.22334701052946768
2.25,0.06149084917398798,88.82443075630417,0,100,3.0,1,0.22424615359018152
2.255,0.04559141333598128,88.67312595457363,0,100,3.0,1,0.22125001890244822
2.26,0.03306217087257399,88.33294216334119,0,100,3.0,1,0.21451370620477597
2.265,0.02345067901074276,87.8212325486588,0,100,3.0,1,0.20438084254769898
2.27,0.016268788896435526,87.16340340705206,0,100,3.0,1,0.19135452291192195
2.275,0.011039026374860051,86.39082504390485,0,100,3.0,1,0.17605594146346246
2.28,0.007326255555493689,85.53835951391795,0,100,3.0,1,0.15917543591916739
2.285,0.0047556414315231815,84.64177552213825,0,100,3.0,1,0.1414212974680841
2.29,0.0030193390635632803,83.73531462915751,0,100,3.0,1,0.12347157681500029
2.295,0.001874953127946523,82.8496326055666,0,100,3.0,1,0.10593331892211084
2.3,0.0011387927410965778,82.01027424192745,0,100,3.0,1,0.0893123612262861
2.305,0.0006765107634274089,81.23676123804874,0,100,3.0,1,0.07399527204056917
2.31,0.00039307957404427924,80.54229383076677,0,100,3.0,1,0.06024344219340132
2.315,0.00022338910511776318,79.93399886750076,0,100,3.0,1,0.04819799737625271
2.32,0.00012417073320013317,79.41360807300065,0,100,3.0,1,0.037893229168329615
2.325,6.750753468904987e-05,78.97842407043797,0,100,3.0,1,0.029275724167088454
2.33,3.5897234866245036e-05,78.62242792395355,0,100,3.0,1,0.022226295523832713
2.335,1.8670050400879738e-05,78.33739682142036,0,100,3.0,1,0.016582115275650608
2.34,9.497421874143672e-06,78.11392816965889,0,100,3.0,1,0.0121569934585919
2.345,4.725434140340885e-06,77.9423002876319,0,100,3.0,1,0.008758421537265242
2.35,2.299606063738814e-06,77.81313404636992,0,100,3.0,1,0.006200674185543062
2.355,1.0945633976635486e-06,77.7178495995346,0,100,3.0,1,0.004313853456130745
2.36,5.095703414287532e-07,77.64893495872354,0,100,3.0,1,0.002949207103436511
2.365,2.3202944964797243e-07,77.60005756748029,0,100,3.0,1,0.0019813379699067666
2.37,1.0333746954038608e-07,77.56605666430328,0,100,3.0,1,0.0013080527584806965
2.375,4.501406988770349e-08,77.54285453088583,0,100,3.0,1,0.0008486045719966978
2.38,0.0,77.5273206016611,0,100,3.0,1,0.0005410020130911431
2.385,0.0,77.51711579911962,0,100,3.0,1,0.0003389267152400488
2.39,0.0,77.5105370128528,0,100,3.0,1,0.00020865371985730172
2.395,0.0,77.50637457516568,0,100,3.0,1,0.00012622921120157684
2.4,0.0,77.50378964379554,0,100,3.0,1,7.504245139688068e-05
2.405,0.0,77.50221390480374,0,100,3.0,1,4.3839699083937465e-05
2.41,0.0,77.50127096298368,0,100,3.0,2,2.5167583835287354e-05
2.415,0.0,77.5007170018383,0,100,3.0,2,1.4198056203890746e-05
2.42,0.0,77.5003974852742,0,100,3.0,2,7.870995528834317e-06
2.425,0.0,77.50021653855089,0,100,3.0,2,4.287892096780893e-06
2.43,0.0,77.50011592118605,0,100,3.0,2,2.2954690307145002e-06
2.435,0.0,77.50006098230187,0,100,3.0,2,1.2075703341564587e-06
2.44,0.001684486749771458,77.50003152522672,0,100,3.0,2,6.2426191519053e-07
2.445,0.00456624331333666,77.50001601496638,0,100,3.0,2,3.1712804707015015e-07
2.45,0.011079731271581421,77.5000079947935,0,100,3.0,2,1.5831274269955187e-07
2.455,0.024064571490409,77.50000392194843,0,100,3.0,2,7.766234521924243e-08
2.46,0.046784906529573234,77.50000189064467,0,100,3.0,2,3.743850828472529e-08
2.465,0.08141644351188804,77.50000089563562,0,100,3.0,2,1.7735358862482105e-08
2.47,0.12682276464025305,77.50000041693293,0,100,3.0,2,8.256097710880856e-09
2.475,0.1768320708657512,77.500000190728,0,100,3.0,2,3.776792124368188e-09
2.48,0.22070063230473494,77.50000008573855,0,100,3.0,2,1.697793043667213e-09
2.485,0.24656126505113576,77.50000003787487,0,100,3.0,2,7.499974151077107e-10
2.49,0.24656126505724016,77.50000001644143,0,100,3.0,2,3.255729327497872e-10
2.495,0.220700632329898,77.50000000701361,0,100,3.0,2,1.3888338663932835e-10
2.5,0.17683207093748562,77.50000000294007,0,100,3.0,2,5.821919843907777e-11
2.505,0.12682276483597799,77.50000000121112,0,100,3.0,2,2.3982576101051303e-11
2.51,0.08141644409447898,77.50000000049026,0,100,3.0,2,9.708124293460474e-12
2.515,0.04678490952598309,77.50000000019502,0,100,3.0,2,3.8616942427072695e-12
2.52,0.024064605020532023,77.50000000007623,0,100,3.0,2,1.5094460335117535e-12
2.525,0.011080171739334697,77.50000000002929,0,100,3.0,2,5.799717142184422e-13
2.53,0.004571212771509492,77.50000000001106,0,100,3.0,2,2.1893158353321106e-13
2.535,0.0017299316936037438,77.50000000000409,0,100,3.0,2,8.104408233620152e-14
2.54,0.0008899431850697582,77.50000000000149,0,100,3.0,2,2.9547321685073474e-14
2.545,0.002128806368910263,77.50000000000054,0,100,3.0,2,1.0693316419359924e-14
2.55,0.009309664818487698,77.50000000000018,0,100,3.0,2,3.6582398276757634e-15
2.555,0.03503263543368747,77.50000000000007,0,100,3.0,2,1.4070153183368321e-15
2.56,0.10606267793605692,77.50000000000003,0,100,3.0,2,5.628061273347328e-16
2.565,0.25734927343160535,77.5,0,100,3.0,2,0.0
2.57,0.5003202479539708,77.5,0,100,3.0,2,0.0
2.575,0.7793067891790435,77.5,0,100,3.0,2,0.0
2.58,0.9720477407234077,77.5000029761183,1,100,3.0,2,5.8933035560504224e-08
2.585,0.967267334488097,77.50000618532628,0,100,3.0,2,1.2248170861258217e-07
2.59,0.7505869905515209,77.50001392552794,0,100,3.0,2,2.7575302847298647e-07
2.595,0.4028369574773956,77.50003551779191,0,100,3.0,2,7.033226121719882e-07
2.6,0.04553881263121314,77.50010313559092,0,100,3.0,2,2.0422889290915523e-06
2.605,-0.189138810908105,77.50032572609189,0,100,3.0,2,6.450021621528529e-06
2.61,-0.22868072635956738,77.50105352781613,0,100,3.0,2,2.0861936952983477e-05
2.615,-0.14104670682394166,77.50333849843346,0,100,3.0,2,6.610887987058545e-05
2.62,-0.051158381651102834,77.51010867794061,0,100,3.0,2,0.00020017184040806803
2.625,-0.008206426846427752,77.52887923627338,0,100,3.0,2,0.0005718660648194646
2.63,0.005350271385530505,77.57736547743413,0,100,3.0,2,0.0015319896521609532
2.635,0.01084668799215426,77.6937614840257,0,100,3.0,2,0.003836861069815838
2.64,0.016256859896386415,77.95299178483792,0,100,3.0,2,0.008970134353226137
2.645,0.02345021205790711,78.48782060961162,0,100,3.0,2,0.019560804150725097
2.65,0.0330621597308209,79.50840637712494,0,100,3.0,2,0.03977042330940479
2.655,0.04559141319943196,81.30639038119868,0,100,3.0,2,0.07537406695442934
2.66,0.06149084917446989,84.22371682098306,0,100,3.0,2,0.13314290734619916
2.665,0.08111733445924295,88.56905596488694,0,100,3.0,2,0.2191892270274642
2.67,0.1046628598272375,94.48254071967199,0,100,3.0,2,0.3362879350430097
2.675,0.1320831047748631,101.78187771882364,0,100,3.0,2,0.4808292617588839
2.68,0.16303381314489318,109.85607098931862,0,100,3.0,2,0.6407142770162104
2.685,0.19682662652900276,117.68289868067583,0,100,3.0,2,0.7957009639737789
2.69,0.23241585813229,124.01296766753546,0,100,3.0,2,0.9210488647036725
2.695,0.26842527782774417,127.69015041412591,0,100,3.0,2,0.9938643646361566
2.7,0.30321927900592993,128.0,0,100,3.0,2,1.0
2.705,0.3350163137995362,124.90331438199323,0,100,3.0,2,0.9386794927127372
2.71,0.3620352400956416,119.0509908262225,0,100,3.0,2,0.8227918975489604
2.715,0.3826586036805073,111.57334395352093,0,100,3.0,2,0.6747196822479392
2.72,0.39559233134833227,103.73799888891169,0,100,3.0,2,0.5195643344338948
2.725,0.4,96.61848240541384,0,100,3.0,2,0.3785838100081949
2.73,0.39559233134833227,90.88948241854119,0,100,3.0,2,0.265138265713687
2.735,0.3826586036805073,86.7893676493135,0,100,3.0,2,0.18394787424383177
2.74,0.3620352400956416,84.21448228450262,0,100,3.0,2,0.13296004523767568
2.745,0.3350163137995362,82.8706742557033,0,100,3.0,2,0.10634998526145162
2.75,0.3032192790059296,82.41285373443978,0,100,3.0,2,0.09728423236514412
2.755,0.26842527782774417,82.53508919471457,0,100,3.0,2,0.09970473652900144
2.76,0.23241585813229,83.00723630449004,0,100,3.0,2,0.10905418424732743
2.765,0.19682662652900276,83.67399525905368,0,100,3.0,2,0.12225733186244916
2.77,0.16303381314489318,84.43655035035052,0,100,3.0,2,0.13735743268020822
2.775,0.13208310477486307,85.23167363197578,0,100,3.0,2,0.15310244815793625
2.78,0.10466285982723562,86.01556443973125,0,100,3.0,2,0.1686250384105198
2.785,0.08111733445917907,86.75400535564901,0,100,3.0,2,0.18324763080493095
2.79,0.06149084917398798,87.41763420030695,0,100,3.0,2,0.19638879604568216
2.795,0.04559141333598128,87.98046505761806,0,100,3.0,2,0.20753396153699133
2.8,0.03306217087257399,88.42010861624007,0,100,3.0,2,0.2162397745790113
2.805,0.02345067901074276,88.71867720825321,0,100,3.0,2,0.22215202392580616
2.81,0.016268788896435526,88.86378878992376,0,100,3.0,2,0.2250255205925497
2.815,0.011039026374860051,88.84935272165478,0,100,3.0,2,0.22473965785455013
2.82,0.007326255555493689,88.67597412457343,0,100,3.0,2,0.22130641830838474
2.825,0.0047556414315231815,88.3509063891692,0,100,3.0,2,0.21486943344889498
2.83,0.0030193390635632803,87.88754641372572,0,100,3.0,2,0.20569398839060823
2.835,0.001874953127946523,87.30451845386142,0,100,3.0,2,0.19414888027448354
2.84,0.0011387927410965778,86.62443306399382,0,100,3.0,2,0.18068184285136277
2.845,0.0006765107634274089,85.87243609243906,0,100,3.0,2,0.16579081371166454
2.85,0.00039307957404427924,85.07467708397961,0,100,3.0,2,0.1499936056233586
2.855,0.00022338910511776318,84.25682600304509,0,100,3.0,2,0.13379853471376418
2.86,0.00012417073320013317,83.4427529734118,0,100,3.0,2,0.11767827670122376
2.865,6.750753468904987e-05,82.65346049137668,0,100,3.0,2,0.10204872260151836
2.87,3.5897234866245036e-05,81.90632528007868,0,100,3.0,2,0.087253965942152
2.875,1.8670050400879738e-05,81.21467213191562,0,100,3.0,2,0.07355786399832911
2.88,9.497421874143672e-06,80.58766909939999,0,100,3.0,2,0.06114196236435621
2.885,4.725434140340885e-06,80.03050585017243,0,100,3.0,2,0.05010902673608776
2.89,2.299606063738814e-06,79.54479733357823,0,100,3.0,2,0.04049103630847982
2.895,1.0945633976635486e-06,79.12914419384192,0,100,3.0,2,0.03226028106617671
2.9,5.095703414287532e-07,78.77977938473101,0,100,3.0,2,0.025342166034277518
2.905,2.3202944964797243e-07,78.49123590647207,0,100,3.0,2,0.019628433791526147
2.91,1.0333746954038608e-07,78.25698150946495,0,100,3.0,2,0.014989732860692077
2.915,4.501406988770349e-08,78.06998030229119,0,100,3.0,2,0.01128673865923139
2.92,0.0,77.9231562441036,0,100,3.0,2,0.008379331566407817
2.925,0.0,77.80974762879951,0,100,3.0,2,0.006133616411871556
2.93,0.0,77.72355354312545,0,100,3.0,2,0.004426802834167279
2.935,0.0,77.65908215107021,0,100,3.0,2,0.0031501416053506637
2.94,0.0,77.61161631556492,0,100,3.0,2,0.002210224070592399
2.945,0.0,77.5772147447986,0,100,3.0,2,0.0015290048474969466
2.95,0.0,77.55266706642777,0,100,3.0,2,0.001042912206490556
2.955,0.0,77.53541965668042,0,100,3.0,2,0.0007013793402062909
2.96,0.0,77.52348636988228,0,100,3.0,2,0.0004650766313322339
2.965,0.0,77.51535513982303,0,100,3.0,2,0.00030406217471344875
2.97,0.0,77.50989824011825,0,100,3.0,2,0.0001960047548167684
2.975,0.0,77.50629112804937,0,100,3.0,2,0.00012457679305681935
2.98,0.0,77.50394244274653,0,100,3.0,2,7.80681731987105e-05
2.985,0.0,77.50243595126653,0,100,3.0,2,4.8236658743251e-05
2.99,0.0,77.50148401443865,0,100,3.0,2,2.9386424527632303e-05
2.995,0.0,77.50089140278692,0,100,3.0,2,1.7651540335041004e-05
3.0,0.0,77.50052792980212,0,100,3.0,2,1.045405548748337e-05
3.005,0.0,77.50030827953894,0,100,3.0,2,6.104545325579148e-06
3.01,0.0,77.50017749231459,0,100,3.0,2,3.5146992988441947e-06
3.015,0.0,77.5001007582777,0,100,3.0,2,1.995213419730693e-06
3.02,0.0,77.50005639599301,0,100,3.0,2,1.1167523368975266e-06
3.025,0.0,77.50003112304574,0,100,3.0,2,6.162979355277718e-07
3.03,0.0,77.5000169348855,0,100,3.0,2,3.35344267206424e-07
3.035,0.0,77.50000908549865,0,100,3.0,2,1.7991086429217397e-07
3.04,0.001684486749771458,77.50000480597605,0,100,3.0,2,9.516784252179542e-08
3.045,0.00456624331333666,77.50000250657536,0,100,3.0,2,4.963515556762041e-08
3.05,0.011079731271581421,77.50000128898024,0,100,3.0,2,2.5524361256042774e-08
3.055,0.024064571490409,77.5000006535489,0,100,3.0,2,1.2941562277269936e-08
3.06,0.046784906529573234,77.5000003267204,0,100,3.0,2,6.469710822082309e-09
3.065,0.08141644351188804,77.50000016104258,0,100,3.0,2,3.1889619481937712e-09
3.07,0.12682276464025305,77.50000007826571,0,100,3.0,2,1.5498161170254738e-09
3.075,0.1768320708657512,77.50000003750323,0,100,3.0,2,7.426381621866816e-10
3.08,0.22070063230473494,77.50000001771872,0,100,3.0,2,3.508657215152738e-10
3.085,0.24656126505113576,77.50000000825395,0,100,3.0,2,1.6344452743927976e-10
3.09,0.24656126505724016,77.50000000379104,0,100,3.0,2,7.5070176697607e-11
3.095,0.220700632329898,77.5000000017168,0,100,3.0,2,3.399602271859087e-11
3.1,0.17683207093748562,77.50000000076656,0,100,3.0,2,1.517944406034508e-11
3.105,0.12682276483597799,77.50000000033748,0,100,3.0,2,6.682759955972617e-12
3.11,0.08141644409447898,77.50000000014649,0,100,3.0,2,2.900702780283213e-12
3.115,0.04678490952598309,77.5000000000627,0,100,3.0,2,1.2415503169004206e-12
3.12,0.024064605020532023,77.50000000002646,0,100,3.0,2,5.239725045486363e-13
3.125,0.011080171739334697,77.50000000001101,0,100,3.0,2,2.1808737434220896e-13
3.13,0.004571212771509492,77.50000000000452,0,100,3.0,2,8.948617424622252e-14
3.135,0.0017299316936037438,77.50000000000182,0,100,3.0,2,3.60195921494229e-14
3.14,0.0008899431850697582,77.50000000000072,0,100,3.0,2,1.4351556247035687e-14
3.145,0.002128806368910263,77.50000000000028,0,100,3.0,2,5.6280612733473285e-15
3.15,0.009309664818487698,77.50000000000011,0,100,3.0,2,2.2512245093389313e-15
3.155,0.03503263543368747,77.50000000000004,0,100,3.0,2,8.442091910020992e-16
3.16,0.10606267793605692,77.50000000000001,0,100,3.0,2,2.814030636673664e-16
3.165,0.25734927343160535,77.5,0,100,3.0,2,0.0
3.17,0.5003202479539708,77.5,0,100,3.0,2,0.0
3.175,0.7793067891790435,77.5,0,100,3.0,2,0.0
3.18,0.9720477407234077,77.50000297456887,1,100,3.0,2,5.890235390306951e-08
3.185,0.967267334488097,77.5000062222234,0,100,3.0,2,1.2321234465270038e-07
3.19,0.7505869905515209,77.50001412492644,0,100,3.0,2,2.797015136113962e-07
3.195,0.4028369574773956,77.50003641983405,0,100,3.0,2,7.211848326008267e-07
3.2,0.04553881263121314,77.50010706994215,0,100,3.0,2,2.1201968741812684e-06
3.205,-0.189138810908105,77.50034212581059,0,100,3.0,2,6.774768526539258e-06
3.21,-0.22868072635956738,77.5011174452075,0,100,3.0,2,2.212762787125219e-05
3.215,-0.14104670682394166,77.50356855475515,0,100,3.0,2,7.066445059699122e-05
3.22,-0.051158381651102834,77.51086963859841,0,100,3.0,2,0.00021524036828529712
3.225,-0.008206426846427752,77.53118939740251,0,100,3.0,2,0.0006176118297527509
3.23,0.005350271385530505,77.5838025515997,0,100,3.0,2,0.001659456467320855
3.235,0.01084668799215426,77.71022945889035,0,100,3.0,2,0.004162959581987194
3.24,0.016256859896386415,77.99167912939262,0,100,3.0,2,0.009736220384012324
3.245,0.02345021205790711,78.5712635147241,0,100,3.0,2,0.021213138905427614
3.25,0.0330621597308209,79.67352667251653,0,100,3.0,2,0.043040132129040204
3.255,0.04559141319943196,81.60576661164305,0,100,3.0,2,0.0813023091414465
3.26,0.06149084917446989,84.71992636449431,0,100,3.0,2,0.1429688389008775
3.265,0.08111733445924295,89.3182428616724,0,100,3.0,2,0.23402461112222578
3.27,0.1046628598272375,95.50702080839233,0,100,3.0,2,0.3565746694731154
3.275,0.1320831047748631,103.03863252038366,0,100,3.0,2,0.5057154954531418
3.28,0.16303381314489318,111.21541053963608,0,100,3.0,2,0.6676318918739819
3.285,0.19682662652900276,118.93384620768896,0,100,3.0,2,0.8204722021324546
3.29,0.23241585813229,124.90436853284245,0,100,3.0,2,0.9387003669869793
3.295,0.26842527782774417,128.0,0,100,3.0,2,1.0
3.3,0.30321927900592993,127.60820170828875,0,100,3.0,2,0.9922416179859158
3.305,0.3350163137995362,123.83638395652297,0,100,3.0,2,0.9175521575549102
3.31,0.3620352400956416,117.47746650268306,0,100,3.0,2,0.7916330000531299
3.315,0.3826586036805073,109.75136675254107,0,100,3.0,2,0.6386409257928926
3.32,0.39559233134833227,101.93854206075709,0,100,3.0,2,0.48393152595558586
3.325,0.4,95.05631336589965,0,100,3.0,2,0.34764976962177535
3.33,0.39559233134833227,89.68561676959516,0,100,3.0,2,0.24129934197218134
3.335,0.3826586036805073,85.97066202095813,0,100,3.0,2,0.1677358816031313
3.34,0.3620352400956416,83.73963639863871,0,100,3.0,2,0.1235571564086873
3.345,0.3350163137995362,82.66506980421391,0,100,3.0,2,0.10227860998443394
3.35,0.3032192790059296,82.39769679500384,0,100,3.0,2,0.09698409495057106
3.355,0.26842527782774417,82.64426327774376,0,100,3.0,2,0.1018665995592824
3.36,0.23241585813229,83.1925217979524,0,100,3.0,2,0.1127232039198494
3.365,0.19682662652900276,83.90296821666257,0,100,3.0,2,0.12679144983490243
3.37,0.16303381314489318,84.68768921939152,0,100,3.0,2,0.1423304795919112
3.375,0.13208310477486307,85.48964936969762,0,100,3.0,2,0.15821087860787358
3.38,0.10466285982723562,86.2679527426403,0,100,3.0,2,0.1736228265869367
3.385,0.08111733445917907,86.9895179409416,0,100,3.0,2,0.18791124635527912
3.39,0.06149084917398798,87.62548740634166,0,100,3.0,2,0.20050470111567648
3.395,0.04559141333598128,88.15044219056064,0,100,3.0,2,0.21089984535763642
3.4,0.03306217087257399,88.54297359153537,0,100,3.0,2,0.21867274438683904
3.405,0.02345067901074276,88.78671463080131,0,100,3.0,2,0.22349929961982798
3.41,0.016268788896435526,88.87133001885871,0,100,3.0,2,0.2251748518585884
3.415,0.011039026374860051,88.79319881643394,0,100,3.0,2,0.2236276993353256
3.42,0.007326255555493689,88.55565877970061,0,100,3.0,2,0.2189239362316952
3.425,0.0047556414315231815,88.168766505288,0,100,3.0,2,0.21126270307501
3.43,0.0030193390635632803,87.64859039083257,0,100,3.0,2,0.20096218595708054
3.435,0.001874953127946523,87.01610373171393,0,100,3.0,2,0.18843769765770152
3.44,0.0011387927410965778,86.29578368219154,0,100,3.0,2,0.1741739343008226
3.445,0.0006765107634274089,85.51404620349248,0,100,3.0,2,0.15869398422757394
3.45,0.00039307957404427924,84.69765577968232,0,100,3.0,2,0.1425278372214321
3.455,0.00022338910511776318,83.87224160225274,0,100,3.0,2,0.12618300202480678
3.46,0.00012417073320013317,83.06103109428663,0,100,3.0,2,0.1101194276096363
3.465,6.750753468904987e-05,82.28388071988795,0,100,3.0,2,0.09473031128490983
3.47,3.5897234866245036e-05,81.5566476806962,0,100,3.0,2,0.08032965704348914
3.475,1.8670050400879738e-05,80.89090926252491,0,100,3.0,2,0.06714671806980028
3.48,9.497421874143672e-06,80.29400369189199,0,100,3.0,2,0.05532680578003935
3.485,4.725434140340885e-06,79.76934075119777,0,100,3.0,2,0.0449374406177777
3.49,2.299606063738814e-06,79.316914026084,0,100,3.0,2,0.03597849556601993
3.495,1.0945633976635486e-06,78.93393997639421,0,100,3.0,2,0.02839485101770721
3.5,5.095703414287532e-07,78.615551171725,0,100,3.0,2,0.02209012221237628
3.505,2.3202944964797243e-07,78.35548017624241,0,100,3.0,2,0.016940201509750674
3.51,1.0333746954038608e-07,78.14668432330618,0,100,3.0,2,0.012805630164478717
3.515,4.501406988770349e-08,77.98187749628777,0,100,3.0,2,0.009542128639361692
3.52,0.0,77.85395079052064,0,100,3.0,2,0.007008926544963209
3.525,0.0,77.7562778414269,0,100,3.0,2,0.005074808741126601
3.53,0.0,77.68291156154915,0,100,3.0,2,0.003622011119785098
3.535,0.0,77.62868655855223,0,100,3.0,2,0.002548248684202616
3.54,0.0,77.58924566817144,0,100,3.0,2,0.001767240953889971
3.545,0.0,77.56101028213665,0,100,3.0,2,0.0012081243987455367
3.55,0.0,77.5411131592637,0,100,3.0,2,0.0008141219656178606
3.555,0.0,77.52730993064118,0,100,3.0,2,0.0005407907057659567
3.56,0.0,77.51788225456453,0,100,3.0,2,0.0003541040507826946
3.565,0.0,77.51154212778609,0,100,3.0,2,0.00022855698586309104
3.57,0.0,77.50734364057384,0,100,3.0,2,0.00014541862522448112
3.575,0.0,77.5046057342584,0,100,3.0,2,9.120265858227597e-05
3.58,0.0,77.50284739861534,0,100,3.0,2,5.638413099691746e-05
3.585,0.0,77.5017352401662,0,100,3.0,2,3.436119140986301e-05
3.59,0.0,77.50104239625774,0,100,3.0,2,2.0641510054353e-05
3.595,0.0,77.50061725984372,0,100,3.0,2,1.2222967202410697e-05
3.6,0.0,77.50036030072403,0,100,3.0,2,7.134667802491473e-06
3.605,0.0,77.50020731187256,0,100,3.0,2,4.1051855952004966e-06
3.61,0.0,77.50011758316428,0,100,3.0,2,2.3283794907438456e-06
3.615,0.0,77.50006573974899,0,100,3.0,3,1.3017772077280752e-06
3.62,0.0,77.50003623037833,0,100,3.0,3,7.174332342113456e-07
3.625,0.0,77.50001968247125,0,100,3.0,3,3.8975190589121443e-07
3.63,0.0,77.5000105401869,0,100,3.0,3,2.0871657240361558e-07
3.635,0.001684486749771458,77.50000556389502,0,100,3.0,3,1.1017613892723638e-07
3.64,0.00456624331333666,77.50000289515268,0,100,3.0,3,5.732975595681565e-08
3.645,0.011079731271581421,77.50000148499826,0,100,3.0,3,2.9405906233667265e-08
3.65,0.024064571490409,77.50000075083126,0,100,3.0,3,1.486794578322768e-08
3.655,0.046784906529573234,77.50000037421457,0,100,3.0,3,7.410189408180333e-09
3.66,0.08141644351188804,77.50000018384885,0,100,3.0,3,3.6405713735172804e-09
3.665,0.12682276464025305,77.50000008903548,0,100,3.0,3,1.7630788358411057e-09
3.67,0.1768320708657512,77.50000004250376,0,100,3.0,3,8.416585536330182e-10
3.675,0.22070063230473494,77.50000002000107,0,100,3.0,3,3.9606074195863487e-10
3.68,0.24656126505113576,77.50000000927771,0,100,3.0,3,1.837170855489405e-10
3.685,0.24656126505724016,77.5000000042422,0,100,3.0,3,8.400387975985489e-11
3.69,0.220700632329898,77.50000000191207,0,100,3.0,3,3.786278221644415e-11
3.695,0.17683207093748562,77.50000000084952,0,100,3.0,3,1.6822275146035165e-11
3.7,0.12682276483597799,77.50000000037205,0,100,3.0,3,7.36741360987532e-12
3.705,0.08141644409447898,77.50000000016063,0,100,3.0,3,3.1806988286322427e-12
3.71,0.04678490952598309,77.50000000006835,0,100,3.0,3,1.3535487362400324e-12
3.715,0.024064605020532023,77.50000000002868,0,100,3.0,3,5.678713824807455e-13
3.72,0.011080171739334697,77.50000000001185,0,100,3.0,3,2.346901550985836e-13
3.725,0.004571212771509492,77.50000000000483,0,100,3.0,3,9.567704164690458e-14
3.73,0.0017299316936037438,77.50000000000195,0,100,3.0,3,3.85522197224292e-14
3.735,0.0008899431850697582,77.50000000000077,0,100,3.0,3,1.5195765438037787e-14
3.74,0.002128806368910263,77.5000000000003,0,100,3.0,3,5.909464337014694e-15
3.745,0.009309664818487698,77.50000000000011,0,100,3.0,3,2.2512245093389313e-15
3.75,0.03503263543368747,77.50000000000004,0,100,3.0,3,8.442091910020992e-16
3.755,0.10606267793605692,77.50000000000001,0,100,3.0,3,2.814030636673664e-16
3.76,0.25734927343160535,77.5,0,100,3.0,3,0.0
3.765,0.5003202479539708,77.5,0,100,3.0,3,0.0
3.77,0.7793067891790435,77.5,0,100,3.0,3,0.0
3.775,0.9720477407234077,77.50000295867528,1,100,3.0,3,5.858762933982716e-08
3.78,0.967267334488097,77.50000573588933,0,100,3.0,3,1.1358196696047604e-07
3.785,0.7505869905515209,77.50001183257488,0,100,3.0,3,2.3430841355151967e-07
3.79,0.4028369574773956,77.50002692524943,0,100,3.0,3,5.331732560228707e-07
3.795,0.04553881263121314,77.50006848498596,0,100,3.0,3,1.3561383358330995e-06
3.8,-0.189138810908105,77.50019000364756,0,100,3.0,3,3.7624484665423434e-06
3.805,-0.22868072635956738,77.50054952846868,0,100,3.0,3,1.0881751855081482e-05
3.81,-0.14104670682394166,77.50159055361388,0,100,3.0,3,3.149611116594603e-05
3.815,-0.051158381651102834,77.5044851873146,0,100,3.0,3,8.88155903881213e-05
3.82,-0.008206426846427752,77.51213703464876,0,100,3.0,3,0.00024033731977741548
3.825,0.005350271385530505,77.53126563857143,0,100,3.0,3,0.0006191215558698273
3.83,0.01084668799215426,77.57635492653704,0,100,3.0,3,0.0015119787433076396
3.835,0.016256859896386415,77.67639067140166,0,100,3.0,3,0.003492884582211144
3.84,0.02345021205790711,77.88501562001684,0,100,3.0,3,0.007624071683501865
3.845,0.0330621597308209,78.29354171269637,0,100,3.0,3,0.01571369728111618
3.85,0.04559141319943196,79.04381637661916,0,100,3.0,3,0.03057062131919133
3.855,0.06149084917446989,80.3344428218482,0,100,3.0,3,0.05612758063065741
3.86,0.08111733445924295,82.41059977545191,0,100,3.0,3,0.09723959951389928
3.865,0.1046628598272375,85.52723971113011,0,100,3.0,3,0.15895524180455659
3.87,0.1320831047748631,89.88072367632314,0,100,3.0,3,0.2451628450757058
3.875,0.16303381314489318,95.51631820621935,0,100,3.0,3,0.35675877636077924
3.88,0.19682662652900276,102.23576195411229,0,100,3.0,3,0.4898170683982632
3.885,0.23241585813229,109.54272748408067,0,100,3.0,3,0.6345094551303103
3.89,0.26842527782774417,116.66447953882539,0,100,3.0,3,0.7755342482935721
3.895,0.30321927900592993,122.66887465936992,0,100,3.0,3,0.8944331615716816
3.9,0.3350163137995362,126.66023534251029,0,100,3.0,3,0.9734700067823819
3.905,0.3620352400956416,128.0,0,100,3.0,3,1.0
3.91,0.3826586036805073,126.47807474204686,0,100,3.0,3,0.9698628661791456
3.915,0.39559233134833227,122.37204251675124,0,100,3.0,3,0.8885552973614106
3.92,0.4,116.37169729313081,0,100,3.0,3,0.7697365800619962
3.925,0.39559233134833227,109.3974911834289,0,100,3.0,3,0.6316334887807702
3.93,0.3826586036805073,102.37891335470243,0,100,3.0,3,0.492651749598068
3.935,0.3620352400956416,96.06592941247743,0,100,3.0,3,0.3676421665837115
3.94,0.3350163137995362,90.92347555632232,0,100,3.0,3,0.2658113971548973
3.945,0.3032192790059296,87.12056802491122,0,100,3.0,3,0.1905062975229945
3.95,0.26842527782774417,84.59144492972001,0,100,3.0,3,0.14042465207366361
3.955,0.23241585813229,83.12951116401001,0,100,3.0,3,0.11147546859425765
3.96,0.19682662652900276,82.47746051752661,0,100,3.0,3,0.09856357460448731
3.965,0.16303381314489318,82.39150407042901,0,100,3.0,3,0.09686146674116847
3.97,0.13208310477486307,82.67419152703448,0,100,3.0,3,0.10245923815909862
3.975,0.10466285982723562,83.18184507507237,0,100,3.0,3,0.11251178366479948
3.98,0.08111733445917907,83.81705805815282,0,100,3.0,3,0.12509025857728365
3.985,0.06149084917398798,84.51572366942884,0,100,3.0,3,0.13892522117680867
3.99,0.04559141333598128,85.2346470988757,0,100,3.0,3,0.15316132869060786
3.995,0.03306217087257399,85.9423701012617,0,100,3.0,3,0.16717564556953865
4.0,0.02345067901074276,86.61354000209963,0,100,3.0,3,0.18046613865543815
4.005,0.016268788896435526,87.22608554222725,0,100,3.0,3,0.19259575331143075
4.01,0.011039026374860051,87.76022864529114,0,100,3.0,3,0.20317284446121062
4.015,0.007326255555493689,88.19852100568673,0,100,3.0,3,0.2118519011027075
4.02,0.0047556414315231815,88.5263495487991,0,100,3.0,3,0.21834355542176442
4.025,0.0030193390635632803,88.73256976810211,0,100,3.0,3,0.22242712412083385
4.03,0.001874953127946523,88.81006987750189,0,100,3.0,3,0.22396177975251264
4.035,0.0011387927410965778,88.75615571232208,0,100,3.0,3,0.22289417252122937
4.04,0.0006765107634274089,88.57269907320256,0,100,3.0,3,0.21926136778618924
4.045,0.00039307957404427924,88.26602769355591,0,100,3.0,3,0.213188667199127
4.05,0.00022338910511776318,87.8465622856699,0,100,3.0,3,0.20488242149841396
4.055,0.00012417073320013317,87.32822857412393,0,100,3.0,3,0.1946183876064144
4.06,6.750753468904987e-05,86.72769024603632,0,100,3.0,3,0.18272653952547163
4.065,3.5897234866245036e-05,86.06346160642826,0,100,3.0,3,0.1695734971569953
4.07,1.8670050400879738e-05,85.35496564359354,0,100,3.0,3,0.15554387413056525
4.075,9.497421874143672e-06,84.62160386192369,0,100,3.0,3,0.1410218586519542
4.08,4.725434140340885e-06,83.88189894118692,0,100,3.0,3,0.1263742364591469
4.085,2.299606063738814e-06,83.1527609609214,0,100,3.0,3,0.11193586061230491
4.09,1.0945633976635486e-06,82.44891399542598,0,100,3.0,3,0.09799829693912837
4.095,5.095703414287532e-07,81.78250402610412,0,100,3.0,3,0.08480205992285388
4.1,2.3202944964797243e-07,81.16289307400754,0,100,3.0,3,0.07253253611896122
4.105,1.0333746954038608e-07,80.59662980754183,0,100,3.0,3,0.061319402129541206
4.11,4.501406988770349e-08,80.08757488038495,0,100,3.0,3,0.051239106542276217
4.115,0.0,79.63715071685711,0,100,3.0,3,0.04231981617538826
4.12,0.0,79.2446807233738,0,100,3.0,3,0.034548133136114934
4.125,0.0,78.90778185200384,0,100,3.0,3,0.02787686835651161
4.13,0.0,78.62277659186489,0,100,3.0,3,0.02223319983890874
4.135,0.0,78.38509507620999,0,100,3.0,3,0.017526635172475102
4.14,0.0,78.1896441991558,0,100,3.0,3,0.013656320775362248
4.145,0.0,78.0311275608155,0,100,3.0,3,0.010517377441891202
4.15,0.0,77.90430692146866,0,100,3.0,3,0.008006077652844746
4.155,0.0,77.80420202598842,0,100,3.0,3,0.006023802494820135
4.16,0.0,77.72623073981798,0,100,3.0,3,0.004479816630058982
4.165,0.0,77.66629520125095,0,100,3.0,3,0.003292974282196959
4.17,0.0,77.62082210727883,0,100,3.0,3,0.0023925169758183414
4.175,0.0,77.58676642080745,0,100,3.0,3,0.0017181469466821806
4.18,0.0,77.56158792145219,0,100,3.0,3,0.0012195628010334026
4.185,0.0,77.5432093764747,0,100,3.0,3,0.0008556312173209223
4.19,0.0,77.52996394830834,0,100,3.0,3,0.0005933455110561461
4.195,0.0,77.5205380244591,0,100,3.0,3,0.0004066935536455406
4.2,0.0,77.51391415644198,0,100,3.0,3,0.00027552785033632595
4.205,0.0,77.50931737735736,0,100,3.0,3,0.00018450252192797007
4.21,0.0,77.50616693080607,0,100,3.0,3,0.00012211744170444224
4.215,0.0,77.50403443807636,0,100,3.0,3,7.988986289821678e-05
4.22,0.0,77.50260876896958,0,100,3.0,3,5.16587914768308e-05
4.225,0.0,77.50166734999985,0,100,3.0,3,3.301683168017754e-05
4.23,0.0,77.50105331074691,0,100,3.0,3,2.0857638552703102e-05
4.235,0.0,77.50065769546079,0,100,3.0,3,1.302367249085103e-05
4.24,0.0,77.50040591187926,0,100,3.0,3,8.037858995156975e-06
4.245,0.0,77.50024761518029,0,100,3.0,3,4.903270896737931e-06
4.25,0.0,77.50014930053305,0,100,3.0,3,2.9564461990705944e-06
4.255,0.0,77.50008897828656,0,100,3.0,3,1.7619462684283146e-06
4.26,0.0,77.50005241375882,0,100,3.0,3,1.0378962143152935e-06
4.265,0.0,77.50003051723355,0,100,3.0,3,6.043016545426875e-07
4.27,0.0,77.50001756238949,0,100,3.0,3,3.4777008886296675e-07
4.275,0.0,77.50000998988837,0,100,3.0,3,1.9781957166292114e-07
4.28,0.0,77.50000561663568,0,100,3.0,3,1.112205084290067e-07
4.285,0.0,77.50000312126369,0,100,3.0,3,6.180720175048054e-08
4.29,0.0,77.5000017144438,0,100,3.0,3,3.394938213060945e-08
4.295,0.001684486749771458,77.50000093079628,0,100,3.0,3,1.8431609418041604e-08
4.3,0.00456624331333666,77.50000049948748,0,100,3.0,3,9.890841272521141e-09
4.305,0.011079731271581421,77.50000026493123,0,100,3.0,3,5.2461629847769445e-09
4.31,0.024064571490409,77.50000013889299,0,100,3.0,3,2.7503561584423307e-09
4.315,0.046784906529573234,77.50000007197241,0,100,3.0,3,1.4251962074742533e-09
4.32,0.08141644351188804,77.50000003686297,0,100,3.0,3,7.299598285562122e-10
4.325,0.12682276464025305,77.5000000186618,0,100,3.0,3,3.6954047302943125e-10
4.33,0.1768320708657512,77.50000000933802,0,100,3.0,3,1.8491136015114481e-10
4.335,0.22070063230473494,77.50000000461843,0,100,3.0,3,9.145402587044841e-11
4.34,0.24656126505113576,77.50000000225774,0,100,3.0,3,4.470763033708917e-11
4.345,0.24656126505724016,77.50000000109091,0,100,3.0,3,2.160218758548905e-11
4.35,0.220700632329898,77.50000000052101,0,100,3.0,3,1.0317080523236655e-11
4.355,0.17683207093748562,77.50000000024595,0,100,3.0,3,4.870242822891111e-12
4.36,0.12682276483597799,77.50000000011475,0,100,3.0,3,2.2723297391139838e-12
4.365,0.08141644409447898,77.50000000005292,0,100,3.0,3,1.0479450090972725e-12
4.37,0.04678490952598309,77.50000000002413,0,100,3.0,3,4.778224021071881e-13
4.375,0.024064605020532023,77.50000000001087,0,100,3.0,3,2.152733437055353e-13
4.38,0.011080171739334697,77.50000000000485,0,100,3.0,3,9.595844471057194e-14
4.385,0.004571212771509492,77.50000000000213,0,100,3.0,3,4.221045955010496e-14
4.39,0.0017299316936037438,77.50000000000092,0,100,3.0,3,1.8291199138378817e-14
4.395,0.0008899431850697582,77.5000000000004,0,100,3.0,3,7.87928578268626e-15
4.4,0.002128806368910263,77.50000000000017,0,100,3.0,3,3.3768367640083968e-15
4.405,0.009309664818487698,77.50000000000007,0,100,3.0,3,1.4070153183368321e-15
4.41,0.03503263543368747,77.50000000000003,0,100,3.0,3,5.628061273347328e-16
4.415,0.10606267793605692,77.50000000000001,0,100,3.0,3,2.814030636673664e-16
4.42,0.25734927343160535,77.5,0,100,3.0,3,0.0
4.425,0.5003202479539708,77.5,0,100,3.0,3,0.0
4.43,0.7793067891790435,77.5,0,100,3.0,3,0.0
4.435,0.9720477407234077,77.50000295867528,1,100,3.0,3,5.858762933982716e-08
4.44,0.967267334488097,77.50000573588933,0,100,3.0,3,1.1358196696047604e-07
4.445,0.7505869905515209,77.50001183257488,0,100,3.0,3,2.3430841355151967e-07
4.45,0.4028369574773956,77.50002692524943,0,100,3.0,3,5.331732560228707e-07
4.455,0.04553881263121314,77.50006848498596,0,100,3.0,3,1.3561383358330995e-06
4.46,-0.189138810908105,77.50019000364756,0,100,3.0,3,3.7624484665423434e-06
4.465,-0.22868072635956738,77.50054952846868,0,100,3.0,3,1.0881751855081482e-05
4.47,-0.14104670682394166,77.50159055361388,0,100,3.0,3,3.149611116594603e-05
4.475,-0.051158381651102834,77.5044851873146,0,100,3.0,3,8.88155903881213e-05
4.48,-0.008206426846427752,77.51213703464876,0,100,3.0,3,0.00024033731977741548
4.485,0.005350271385530505,77.53126563857143,0,100,3.0,3,0.0006191215558698273
4.49,0.01084668799215426,77.57635492653704,0,100,3.0,3,0.0015119787433076396
4.495,0.016256859896386415,77.67639067140166,0,100,3.0,3,0.003492884582211144
4.5,0.02345021205790711,77.88501562001684,0,100,3.0,3,0.007624071683501865
4.505,0.0330621597308209,78.29354171269637,0,100,3.0,3,0.01571369728111618
4.51,0.04559141319943196,79.04381637661916,0,100,3.0,3,0.03057062131919133
4.515,0.06149084917446989,80.3344428218482,0,100,3.0,3,0.05612758063065741
4.52,0.08111733445924295,82.41059977545191,0,100,3.0,3,0.09723959951389928
4.525,0.1046628598272375,85.52723971113011,0,100,3.0,3,0.15895524180455659
4.53,0.1320831047748631,89.88072367632314,0,100,3.0,3,0.2451628450757058
4.535,0.16303381314489318,95.51631820621935,0,100,3.0,3,0.35675877636077924
4.54,0.19682662652900276,102.23576195411229,0,100,3.0,3,0.4898170683982632
4.545,0.23241585813229,109.54272748408067,0,100,3.0,3,0.6345094551303103
4.55,0.26842527782774417,116.66447953882539,0,100,3.0,3,0.7755342482935721
4.555,0.30321927900592993,122.66887465936992,0,100,3.0,3,0.8944331615716816
4.56,0.3350163137995362,126.66023534251029,0,100,3.0,3,0.9734700067823819
4.565,0.3620352400956416,128.0,0,100,3.0,3,1.0
4.57,0.3826586036805073,126.47807474204686,0,100,3.0,3,0.9698628661791456
4.575,0.39559233134833227,122.37204251675124,0,100,3.0,3,0.8885552973614106
4.58,0.4,116.37169729313081,0,100,3.0,3,0.7697365800619962
4.585,0.39559233134833227,109.3974911834289,0,100,3.0,3,0.6316334887807702
4.59,0.3826586036805073,102.37891335470243,0,100,3.0,3,0.492651749598068
4.595,0.3620352400956416,96.06592941247743,0,100,3.0,3,0.3676421665837115
4.6,0.3350163137995362,90.92347555632232,0,100,3.0,3,0.2658113971548973
4.605,0.3032192790059296,87.12056802491122,0,100,3.0,3,0.1905062975229945
4.61,0.26842527782774417,84.59144492972001,0,100,3.0,3,0.14042465207366361
4.615,0.23241585813229,83.12951116401001,0,100,3.0,3,0.11147546859425765
4.62,0.19682662652900276,82.47746051752661,0,100,3.0,3,0.09856357460448731
4.625,0.16303381314489318,82.39150407042901,0,100,3.0,3,0.09686146674116847
4.63,0.13208310477486307,82.67419152703448,0,100,3.0,3,0.10245923815909862
4.635,0.10466285982723562,83.18184507507237,0,100,3.0,3,0.11251178366479948
4.64,0.08111733445917907,83.81705805815282,0,100,3.0,3,0.12509025857728365
4.645,0.06149084917398798,84.51572366942884,0,100,3.0,3,0.13892522117680867
4.65,0.04559141333598128,85.2346470988757,0,100,3.0,3,0.15316132869060786
4.655,0.03306217087257399,85.9423701012617,0,100,3.0,3,0.16717564556953865
4.66,0.02345067901074276,86.61354000209963,0,100,3.0,3,0.18046613865543815
4.665,0.016268788896435526,87.22608554222725,0,100,3.0,3,0.19259575331143075
4.67,0.011039026374860051,87.76022864529114,0,100,3.0,3,0.20317284446121062
4.675,0.007326255555493689,88.19852100568673,0,100,3.0,3,0.2118519011027075
4.68,0.0047556414315231815,88.5263495487991,0,100,3.0,3,0.21834355542176442
4.685,0.0030193390635632803,88.73256976810211,0,100,3.0,3,0.22242712412083385
4.69,0.001874953127946523,88.81006987750189,0,100,3.0,3,0.22396177975251264
4.695,0.0011387927410965778,88.75615571232208,0,100,3.0,3,0.22289417252122937
4.7,0.0006765107634274089,88.57269907320256,0,100,3.0,3,0.21926136778618924
4.705,0.00039307957404427924,88.26602769355591,0,100,3.0,3,0.213188667199127
4.71,0.00022338910511776318,87.8465622856699,0,100,3.0,3,0.20488242149841396
4.715,0.00012417073320013317,87.32822857412393,0,100,3.0,3,0.1946183876064144
4.72,6.750753468904987e-05,86.72769024603632,0,100,3.0,3,0.18272653952547163
4.725,3.5897234866245036e-05,86.06346160642826,0,100,3.0,3,0.1695734971569953
4.73,1.8670050400879738e-05,85.35496564359354,0,100,3.0,3,0.15554387413056525
4.735,9.497421874143672e-06,84.62160386192369,0,100,3.0,3,0.1410218586519542
4.74,4.725434140340885e-06,83.88189894118692,0,100,3.0,3,0.1263742364591469
4.745,2.299606063738814e-06,83.1527609609214,0,100,3.0,3,0.11193586061230491
4.75,1.0945633976635486e-06,82.44891399542598,0,100,3.0,3,0.09799829693912837
4.755,5.095703414287532e-07,81.78250402610412,0,100,3.0,3,0.08480205992285388
4.76,2.3202944964797243e-07,81.16289307400754,0,100,3.0,3,0.07253253611896122
4.765,1.0333746954038608e-07,80.59662980754183,0,100,3.0,3,0.061319402129541206
4.77,4.501406988770349e-08,80.08757488038495,0,100,3.0,3,0.051239106542276217
4.775,0.0,79.63715071685711,0,100,3.0,3,0.04231981617538826
4.78,0.0,79.2446807233738,0,100,3.0,3,0.034548133136114934
4.785,0.0,78.90778185200384,0,100,3.0,3,0.02787686835651161
4.79,0.0,78.62277659186489,0,100,3.0,3,0.02223319983890874
4.795,0.0,78.38509507620999,0,100,3.0,3,0.017526635172475102
4.8,0.0,78.1896441991558,0,100,3.0,3,0.013656320775362248
4.805,0.0,78.0311275608155,0,100,3.0,3,0.010517377441891202
4.81,0.0,77.90430692146866,0,100,3.0,3,0.008006077652844746
4.815,0.0,77.80420202598842,0,100,3.0,3,0.006023802494820135
4.82,0.0,77.72623073981798,0,100,3.0,4,0.004479816630058982
4.825,0.0,77.66629520125095,0,100,3.0,4,0.003292974282196959
4.83,0.0,77.62082210727883,0,100,3.0,4,0.0023925169758183414
4.835,0.0,77.58676642080745,0,100,3.0,4,0.0017181469466821806
4.84,0.0,77.56158792145219,0,100,3.0,4,0.0012195628010334026
4.845,0.0,77.5432093764747,0,100,3.0,4,0.0008556312173209223
4.85,0.0,77.52996394830834,0,100,3.0,4,0.0005933455110561461
4.855,0.0,77.5205380244591,0,100,3.0,4,0.0004066935536455406
4.86,0.0,77.51391415644198,0,100,3.0,4,0.00027552785033632595
4.865,0.0,77.50931737735736,0,100,3.0,4,0.00018450252192797007
4.87,0.0,77.50616693080607,0,100,3.0,4,0.00012211744170444224
4.875,0.0,77.50403443807636,0,100,3.0,4,7.988986289821678e-05
4.88,0.0,77.50260876896958,0,100,3.0,4,5.16587914768308e-05
4.885,0.0,77.50166734999985,0,100,3.0,4,3.301683168017754e-05
4.89,0.0,77.50105331074691,0,100,3.0,4,2.0857638552703102e-05
4.895,0.0,77.50065769546079,0,100,3.0,4,1.302367249085103e-05
4.9,0.0,77.50040591187926,0,100,3.0,4,8.037858995156975e-06
4.905,0.0,77.50024761518029,0,100,3.0,4,4.903270896737931e-06
4.91,0.0,77.50014930053305,0,100,3.0,4,2.9564461990705944e-06
4.915,0.0,77.50008897828656,0,100,3.0,4,1.7619462684283146e-06
4.92,0.0,77.50005241375882,0,100,3.0,4,1.0378962143152935e-06
4.925,0.0,77.50003051723355,0,100,3.0,4,6.043016545426875e-07
4.93,0.0,77.50001756238949,0,100,3.0,4,3.4777008886296675e-07
4.935,0.0,77.50000998988837,0,100,3.0,4,1.9781957166292114e-07
4.94,0.0,77.50000561663568,0,100,3.0,4,1.112205084290067e-07
4.945,0.0,77.50000312126369,0,100,3.0,4,6.180720175048054e-08
4.95,0.0,77.5000017144438,0,100,3.0,4,3.394938213060945e-08
4.955,0.001684486749771458,77.50000093079628,0,100,3.0,4,1.8431609418041604e-08
4.96,0.00456624331333666,77.50000049948748,0,100,3.0,4,9.890841272521141e-09
4.965,0.011079731271581421,77.50000026493123,0,100,3.0,4,5.2461629847769445e-09
4.97,0.024064571490409,77.50000013889299,0,100,3.0,4,2.7503561584423307e-09
4.975,0.046784906529573234,77.50000007197241,0,100,3.0,4,1.4251962074742533e-09
4.98,0.08141644351188804,77.50000003686297,0,100,3.0,4,7.299598285562122e-10
4.985,0.12682276464025305,77.5000000186618,0,100,3.0,4,3.6954047302943125e-10
4.99,0.1768320708657512,77.50000000933802,0,100,3.0,4,1.8491136015114481e-10
4.995,0.22070063230473494,77.50000000461843,0,100,3.0,4,9.145402587044841e-11
5.0,0.24656126505113576,77.50000000225774,0,100,3.0,4,4.470763033708917e-11
5.005,0.24656126505724016,77.50000000109091,0,100,3.0,4,2.160218758548905e-11
5.01,0.220700632329898,77.50000000052101,0,100,3.0,4,1.0317080523236655e-11
5.015,0.17683207093748562,77.50000000024595,0,100,3.0,4,4.870242822891111e-12
5.02,0.12682276483597799,77.50000000011475,0,100,3.0,4,2.2723297391139838e-12
5.025,0.08141644409447898,77.50000000005292,0,100,3.0,4,1.0479450090972725e-12
5.03,0.04678490952598309,77.50000000002413,0,100,3.0,4,4.778224021071881e-13
5.035,0.024064605020532023,77.50000000001087,0,100,3.0,4,2.152733437055353e-13
5.04,0.011080171739334697,77.50000000000485,0,100,3.0,4,9.595844471057194e-14
5.045,0.004571212771509492,77.50000000000213,0,100,3.0,4,4.221045955010496e-14
5.05,0.0017299316936037438,77.50000000000092,0,100,3.0,4,1.8291199138378817e-14
5.055,0.0008899431850697582,77.5000000000004,0,100,3.0,4,7.87928578268626e-15
5.06,0.002128806368910263,77.50000000000017,0,100,3.0,4,3.3768367640083968e-15
5.065,0.009309664818487698,77.50000000000007,0,100,3.0,4,1.4070153183368321e-15
5.07,0.03503263543368747,77.50000000000003,0,100,3.0,4,5.628061273347328e-16
5.075,0.10606267793605692,77.50000000000001,0,100,3.0,4,2.814030636673664e-16
5.08,0.25734927343160535,77.5,0,100,3.0,4,0.0
5.085,0.5003202479539708,77.5,0,100,3.0,4,0.0
5.09,0.7793067891790435,77.5,0,100,3.0,4,0.0
5.095,0.9720477407234077,77.50000296948818,1,100,3.0,4,5.880174611694102e-08
5.1,0.967267334488097,77.50000569775776,0,100,3.0,4,1.1282688628042625e-07
5.105,0.7505869905515209,77.50001160514543,0,100,3.0,4,2.298048600258169e-07
5.11,0.4028369574773956,77.50002597622895,0,100,3.0,4,5.143807713763392e-07
5.115,0.04553881263121314,77.50006479633647,0,100,3.0,4,1.2830957717655434e-06
5.12,-0.189138810908105,77.50017625577325,0,100,3.0,4,3.4902133317772686e-06
5.125,-0.22868072635956738,77.50050086841989,0,100,3.0,4,9.918186532500516e-06
5.13,-0.14104670682394166,77.50142865589663,0,100,3.0,4,2.829021577488873e-05
5.135,-0.051158381651102834,77.50398157370557,0,100,3.0,4,7.884304367471847e-05
5.14,-0.008206426846427752,77.51067533757195,0,100,3.0,4,0.00021139282320699983
5.145,0.005350271385530505,77.52730884085351,0,100,3.0,4,0.0005407691258120272
5.15,0.01084668799215426,77.56636304281409,0,100,3.0,4,0.0013141196596849329
5.155,0.016256859896386415,77.65284520055016,0,100,3.0,4,0.0030266376346566454
5.16,0.02345021205790711,77.83322987050369,0,100,3.0,4,0.006598611297102698
5.165,0.0330621597308209,78.1872403295472,0,100,3.0,4,0.01360871939697414
5.17,0.04559141319943196,78.84023424224648,0,100,3.0,4,0.026539291925672896
5.175,0.06149084917446989,79.97095670826675,0,100,3.0,4,0.04892983580726247
5.18,0.08111733445924295,81.80632016868279,0,100,3.0,4,0.08527366670658987
5.185,0.1046628598272375,84.59367894710928,0,100,3.0,4,0.14046889004176796
5.19,0.1320831047748631,88.54439663235735,0,100,3.0,4,0.21870092341301678
5.195,0.16303381314489318,93.75204790615024,0,100,3.0,4,0.3218227308148562
5.2,0.19682662652900276,100.10305003439262,0,100,3.0,4,0.44758514919589354
5.205,0.23241585813229,107.21134158829996,0,100,3.0,4,0.588343397788118
5.21,0.26842527782774417,114.41340788288605,0,100,3.0,4,0.7309585719383376
5.215,0.30321927900592993,120.84835205343285,0,100,3.0,4,0.8583832089788682
5.22,0.3350163137995362,125.61961314314837,0,100,3.0,4,0.9528636265969974
5.225,0.3620352400956416,128.0,0,100,3.0,4,1.0
5.23,0.3826586036805073,127.61649189867344,0,100,3.0,4,0.9924057801717514
5.235,0.39559233134833227,124.55056380219376,0,100,3.0,4,0.9316943327167082
5.24,0.4,119.31727660822673,0,100,3.0,4,0.8280648833312224
5.245,0.39559233134833227,112.73085488286033,0,100,3.0,4,0.6976406907497095
5.25,0.3826586036805073,105.70533944720569,0,100,3.0,4,0.5585215732119938
5.255,0.3620352400956416,99.05756588644317,0,100,3.0,4,0.4268824928008549
5.26,0.3350163137995362,93.36977976270926,0,100,3.0,4,0.3142530646081041
5.265,0.3032192790059296,88.93881976923748,0,100,3.0,4,0.2265112825591581
5.27,0.26842527782774417,85.80451228187178,0,100,3.0,4,0.16444578775983723
5.275,0.23241585813229,83.82672655699294,0,100,3.0,4,0.12528171399986016
5.28,0.19682662652900276,82.7748209960611,0,100,3.0,4,0.1044519009121009
5.285,0.16303381314489318,82.40190901663448,0,100,3.0,4,0.09706750527989062
5.29,0.13208310477486307,82.49126872046433,0,100,3.0,4,0.09883700436563037
5.295,0.10466285982723562,82.87544727441968,0,100,3.0,4,0.10644450048355811
5.3,0.08111733445917907,83.4360460880505,0,100,3.0,4,0.11754546709010898
5.305,0.06149084917398798,84.09372294879006,0,100,3.0,4,0.1305687712631695
5.31,0.04559141333598128,84.79583101125908,0,100,3.0,4,0.14447190121305115
5.315,0.03306217087257399,85.5058631950615,0,100,3.0,4,0.15853194445666324
5.32,0.02345067901074276,86.19614522117905,0,100,3.0,4,0.1722008954688921
5.325,0.016268788896435526,86.8436056995559,0,100,3.0,4,0.1850218950407108
5.33,0.011039026374860051,87.42781600360316,0,100,3.0,4,0.19659041591293377
5.335,0.007326255555493689,87.93044648752333,0,100,3.0,4,0.2065434948024421
5.34,0.0047556414315231815,88.33547851565123,0,100,3.0,4,0.2145639310029947
5.345,0.0030193390635632803,88.62973571355158,0,100,3.0,4,0.22039080620894222
5.35,0.001874953127946523,88.80347070164842,0,100,3.0,4,0.22383110300293904
5.355,0.0011387927410965778,88.85085527781466,0,100,3.0,4,0.22476941144187446
5.36,0.0006765107634274089,88.77028929388132,0,100,3.0,4,0.22317404542339245
5.365,0.00039307957404427924,88.56448531910543,0,100,3.0,4,0.21909871919020651
5.37,0.00022338910511776318,88.24031547557608,0,100,3.0,4,0.21267951436784321
5.375,0.00012417073320013317,87.8084299935687,0,100,3.0,4,0.20412732660532068
5.38,6.750753468904987e-05,87.28267622254438,0,100,3.0,4,0.193716360842463
5.385,3.5897234866245036e-05,86.67936206088412,0,100,3.0,4,0.18176954576008153
5.39,1.8670050400879738e-05,86.016418335048,0,100,3.0,4,0.1686419472286733
5.395,9.497421874143672e-06,85.3125199363333,0,100,3.0,4,0.15470336507590698
5.4,4.725434140340885e-06,84.5862253135029,0,100,3.0,4,0.14032129333669097
5.405,2.299606063738814e-06,83.85518857261796,0,100,3.0,4,0.1258453182696626
5.41,1.0945633976635486e-06,83.13548881550771,0,100,3.0,4,0.1115938379308458
5.415,5.095703414287532e-07,82.44110870951447,0,100,3.0,4,0.09784373682206865
5.42,2.3202944964797243e-07,81.78358009436656,0,100,3.0,4,0.08482336820527833
5.425,1.0333746954038608e-07,81.17180019591906,0,100,3.0,4,0.07270891477067448
5.43,4.501406988770349e-08,80.61200908161038,0,100,3.0,4,0.06162394221010656
5.435,0.0,80.10790842175395,0,100,3.0,4,0.05164175092582074
5.44,0.0,79.6608941015899,0,100,3.0,4,0.04278998220970106
5.445,0.0,79.27037104260374,0,100,3.0,4,0.03505685232878697
5.45,0.0,78.93411763673835,0,100,3.0,4,0.028398369044323756
5.455,0.0,78.64866905740534,0,100,3.0,4,0.022745921928818667
5.46,0.0,78.40969275082458,0,100,3.0,4,0.018013717838110406
5.465,0.0,78.21233488198824,0,100,3.0,4,0.01410564122748992
5.47,0.0,78.05152265334826,0,100,3.0,4,0.010921240660361537
5.475,0.0,77.92221354848724,0,100,3.0,4,0.008360664326479908
5.48,0.0,77.81958813058185,0,100,3.0,4,0.006328477833303938
5.485,0.0,77.739187667373,0,100,3.0,4,0.004736389452930742
5.49,0.0,77.67700135526229,0,100,3.0,4,0.0035049773319265607
5.495,0.0,77.62951022741545,0,100,3.0,4,0.002564558958721814
5.5,0.0,77.59369603358714,0,100,3.0,4,0.001855367001725469
5.505,0.0,77.56702364039619,0,100,3.0,4,0.0013272007999244866
5.51,0.0,77.54740503652089,0,100,3.0,4,0.0009387135944729771
5.515,0.0,77.53315206797399,0,100,3.0,4,0.0006564765935442918
5.52,0.0,77.52292379040485,0,100,3.0,4,0.00045393644366031774
5.525,0.0,77.51567299156609,0,100,3.0,4,0.0003103562686354814
5.53,0.0,77.5105951482266,0,100,3.0,4,0.00020980491537820494
5.535,0.0,77.50708193342838,0,100,3.0,4,0.000140236305512498
5.54,0.0,77.50468043597927,0,100,3.0,4,9.268190057955192e-05
5.545,0.0,77.5030585138007,0,100,3.0,4,6.056462971674357e-05
5.55,0.0,77.5019761697444,0,100,3.0,4,3.913207414644369e-05
5.555,0.0,77.5012624893213,0,100,3.0,4,2.4999788540708772e-05
5.56,0.0,77.5007974819221,0,100,3.0,4,1.579172122982491e-05
5.565,0.0,77.5004980852106,0,100,3.0,4,9.863073477118174e-06
5.57,0.0,77.50030759276243,0,100,3.0,4,6.090945790598054e-06
5.575,0.0,77.5001878184466,0,100,3.0,4,3.7191771604968814e-06
5.58,0.0,77.50011339399136,0,100,3.0,4,2.24542557140183e-06
5.585,0.0,77.50006769108984,0,100,3.0,4,1.3404176205776732e-06
5.59,0.0,77.50003995421815,0,100,3.0,4,7.911726366854613e-07
5.595,0.0,77.50002331757771,0,100,3.0,4,4.6173421215862256e-07
5.6,0.0,77.5000134553158,0,100,3.0,4,2.6644189692843153e-07
5.605,0.0,77.5000076770439,0,100,3.0,4,1.5202067121964941e-07
5.61,0.0,77.50000433095647,0,100,3.0,4,8.576151429062322e-08
5.615,0.0,77.5000024158128,0,100,3.0,4,4.7837877254645684e-08
5.62,0.0,77.5000013323932,0,100,3.0,4,2.6384023696286167e-08
5.625,0.001684486749771458,77.50000072659299,0,100,3.0,4,1.4387979933984537e-08
5.63,0.00456624331333666,77.50000039177765,0,100,3.0,4,7.757973203342321e-09
5.635,0.011079731271581421,77.50000020887083,0,100,3.0,4,4.136056038915551e-09
5.64,0.024064571490409,77.50000011010462,0,100,3.0,4,2.180289550661916e-09
5.645,0.046784906529573234,77.50000005738825,0,100,3.0,4,1.1364009667274087e-09
5.65,0.08141644351188804,77.50000002957536,0,100,3.0,4,5.856507094463133e-10
5.655,0.12682276464025305,77.50000001507047,0,100,3.0,4,2.984251349886054e-10
5.66,0.1768320708657512,77.500000007593,0,100,3.0,4,1.5035647094811054e-10
5.665,0.22070063230473494,77.50000000378259,0,100,3.0,4,7.490274187472492e-11
5.67,0.24656126505113576,77.50000000186319,0,100,3.0,4,3.689475567742841e-11
5.675,0.24656126505724016,77.50000000090742,0,100,3.0,4,1.7968711227416016e-11
5.68,0.220700632329898,77.50000000043697,0,100,3.0,4,8.65286280470785e-12
5.685,0.17683207093748562,77.50000000020806,0,100,3.0,4,4.120022255153911e-12
5.69,0.12682276483597799,77.50000000009796,0,100,3.0,4,1.9397113178591565e-12
5.695,0.08141644409447898,77.50000000004559,0,100,3.0,4,9.027410282449114e-13
5.7,0.04678490952598309,77.50000000002099,0,100,3.0,4,4.156323250367002e-13
5.705,0.024064605020532023,77.50000000000955,0,100,3.0,4,1.8910285878447022e-13
5.71,0.011080171739334697,77.50000000000429,0,100,3.0,4,8.498372522754466e-14
5.715,0.004571212771509492,77.5000000000019,0,100,3.0,4,3.77080105314271e-14
5.72,0.0017299316936037438,77.50000000000084,0,100,3.0,4,1.6602780756374617e-14
5.725,0.0008899431850697582,77.50000000000037,0,100,3.0,4,7.316479655351527e-15
5.73,0.002128806368910263,77.50000000000016,0,100,3.0,4,3.0954337003410305e-15
5.735,0.009309664818487698,77.50000000000007,0,100,3.0,4,1.4070153183368321e-15
5.74,0.03503263543368747,77.50000000000003,0,100,3.0,4,5.628061273347328e-16
5.745,0.10606267793605692,77.50000000000001,0,100,3.0,4,2.814030636673664e-16
5.75,0.25734927343160535,77.5,0,100,3.0,4,0.0
5.755,0.5003202479539708,77.5,0,100,3.0,4,0.0
5.76,0.7793067891790435,77.5,0,100,3.0,4,0.0
5.765,0.9720477407234077,77.50000297262514,1,100,3.0,4,5.8863864154827213e-08
5.77,0.967267334488097,77.50000602692357,0,100,3.0,4,1.193450212231075e-07
5.775,0.7505869905515209,77.50001314884915,0,100,3.0,4,2.603732504761829e-07
5.78,0.4028369574773956,77.50003218277465,0,100,3.0,4,6.372826662597374e-07
5.785,0.04553881263121314,77.5000891336331,0,100,3.0,4,1.7650224375563202e-06
5.79,-0.189138810908105,77.5002690214767,0,100,3.0,4,5.32715795439925e-06
5.795,-0.22868072635956738,77.50083732265789,0,100,3.0,4,1.6580646690828313e-05
5.8,-0.14104670682394166,77.50257317183726,0,100,3.0,4,5.09538977674351e-05
5.805,-0.051158381651102834,77.5076082097914,0,100,3.0,4,0.00015065761963167613
5.81,-0.008206426846427752,77.52135258747315,0,100,3.0,4,0.0004228235143197217
5.815,0.005350271385530505,77.55649700924465,0,100,3.0,4,0.0011187526583099309
5.82,0.01084668799215426,77.64045440057028,0,100,3.0,4,0.0027812752588173757
5.825,0.016256859896386415,77.82751617390053,0,100,3.0,4,0.006485468790109587
5.83,0.02345021205790711,78.21569569973141,0,100,3.0,4,0.014172192073889358
5.835,0.0330621597308209,78.96491975294279,0,100,3.0,4,0.029008311939461205
5.84,0.04559141319943196,80.30785299502509,0,100,3.0,4,0.05560104940643736
5.845,0.06149084917446989,82.53901529227541,0,100,3.0,4,0.0997824810351566
5.85,0.08111733445924295,85.96626012174221,0,100,3.0,4,0.16764871528202394
5.855,0.1046628598272375,90.81658192531896,0,100,3.0,4,0.2636946915904744
5.86,0.1320831047748631,97.10833980159956,0,100,3.0,4,0.38828395646731795
5.865,0.16303381314489318,104.52938760793602,0,100,3.0,4,0.5352353981769508
5.87,0.19682662652900276,112.38094101245923,0,100,3.0,4,0.6907117032170145
5.875,0.23241585813229,119.64223165483207,0,100,3.0,4,0.834499636729348
5.88,0.26842527782774417,125.1719099748606,0,100,3.0,4,0.9439982173239723
5.885,0.30321927900592993,128.0,0,100,3.0,4,1.0
5.89,0.3350163137995362,127.6101393237791,0,100,3.0,4,0.992279986609487
5.895,0.3620352400956416,124.10010403781507,0,100,3.0,4,0.9227743373824767
5.9,0.3826586036805073,118.15277378027952,0,100,3.0,4,0.8050054213916736
5.905,0.39559233134833227,110.8299379581053,0,100,3.0,4,0.6599987714476298
5.91,0.4,103.27489006078626,0,100,3.0,4,0.510393862589827
5.915,0.39559233134833227,96.43814350154825,0,100,3.0,4,0.3750127426049159
5.92,0.3826586036805073,90.9137835998359,0,100,3.0,4,0.26561947722447316
5.925,0.3620352400956416,86.9136909261355,0,100,3.0,4,0.1864097213096139
5.93,0.3350163137995362,84.34894125219122,0,100,3.0,4,0.13562259905329158
5.935,0.3032192790059296,82.95851223358169,0,100,3.0,4,0.10808935116003339
5.94,0.26842527782774417,82.42961246934831,0,100,3.0,4,0.09761608850194681
5.945,0.23241585813229,82.47825904809713,0,100,3.0,4,0.09857938709103227
5.95,0.19682662652900276,82.88510695734854,0,100,3.0,4,0.10663578133363447
5.955,0.16303381314489318,83.49817142324218,0,100,3.0,4,0.11877567174736997
5.96,0.13208310477486307,84.218703403949,0,100,3.0,4,0.1330436317613662
5.965,0.10466285982723562,84.98313005843968,0,100,3.0,4,0.14818079323642938
5.97,0.08111733445917907,85.74806308660983,0,100,3.0,4,0.163327981913066
5.975,0.06149084917398798,86.48049615879853,0,100,3.0,4,0.17783160710492138
5.98,0.04559141333598128,87.1526196872008,0,100,3.0,4,0.19114098390496628
5.985,0.03306217087257399,87.73979816955085,0,100,3.0,4,0.20276828058516538
5.99,0.02345067901074276,88.22034613356011,0,100,3.0,4,0.2122840818526755
5.995,0.016268788896435526,88.57613991279077,0,100,3.0,4,0.2193295032235795
6.0,0.011039026374860051,88.79347868239333,0,100,3.0,4,0.22363324123551145
6.005,0.007326255555493689,88.86386439984123,0,100,3.0,4,0.2250270178186383
6.01,0.0047556414315231815,88.78452238775425,0,100,3.0,4,0.22345588886642082
6.015,0.0030193390635632803,88.55857365850133,0,100,3.0,4,0.21898165660398675
6.02,0.001874953127946523,88.19482866332193,0,100,3.0,4,0.2117787854123154
6.025,0.0011387927410965778,87.70721657209255,0,100,3.0,5,0.2021231004374762
6.03,0.0006765107634274089,87.11390019357708,0,100,3.0,5,0.1903742612589521
6.035,0.00039307957404427924,86.43615452975533,0,100,3.0,5,0.17695355504465995
6.04,0.00022338910511776318,85.6971052748557,0,100,3.0,5,0.16231891633377626
6.045,0.00012417073320013317,84.92043109401514,0,100,3.0,5,0.14693922958445826
6.05,6.750753468904987e-05,84.12913009206147,0,100,3.0,5,0.13126990281309847
6.055,3.5897234866245036e-05,83.3444376315581,0,100,3.0,5,0.11573143824867513
6.06,1.8670050400879738e-05,82.58496182074326,0,100,3.0,5,0.10069231328204475
6.065,9.497421874143672e-06,81.86607755524824,0,100,3.0,5,0.08645698129204434
6.07,4.725434140340885e-06,81.1995932352933,0,100,3.0,5,0.07325927198600607
6.075,2.299606063738814e-06,80.59367928154045,0,100,3.0,5,0.061260975872088036
6.08,1.0945633976635486e-06,80.05302685084085,0,100,3.0,5,0.05055498714536339
6.085,5.095703414287532e-07,79.5791903812813,0,100,3.0,5,0.041172086758045415
6.09,2.3202944964797243e-07,79.17105949996414,0,100,3.0,5,0.03309028712800286
6.095,1.0333746954038608e-07,78.82540422739977,0,100,3.0,5,0.026245628265342033
6.1,4.501406988770349e-08,78.53744138964515,0,100,3.0,5,0.02054339385435946
6.105,0.0,78.30137828670698,0,100,3.0,5,0.01586887696449461
6.11,0.0,78.11090032048983,0,100,3.0,5,0.012097036049303622
6.115,0.0,77.95958084176635,0,100,3.0,5,0.009100610728046602
6.12,0.0,77.84120254425764,0,100,3.0,5,0.006756486024903777
6.125,0.0,77.74998928072644,0,100,3.0,5,0.004950282786662154
6.13,0.0,77.68075457337353,0,100,3.0,5,0.0035792984826442343
6.135,0.0,77.62897810246339,0,100,3.0,5,0.0025540218309582667
6.14,0.0,77.59082417329567,0,100,3.0,5,0.0017984984811024256
6.145,0.0,77.56311690651798,0,100,3.0,5,0.0012498397330292315
6.15,0.0,77.54328612787634,0,100,3.0,5,0.0008571510470562883
6.155,0.0,77.52929615012752,0,100,3.0,5,0.0005801217847033963
6.16,0.0,77.51956731102686,0,100,3.0,5,0.00038747150548240573
6.165,0.0,77.51289764815891,0,100,3.0,5,0.00025539897344380267
6.17,0.0,77.5083897435128,0,100,3.0,5,0.00016613353490680706
6.175,0.0,77.5053857429786,0,100,3.0,5,0.00010664837581393074
6.18,0.0,77.50341193968492,0,100,3.0,5,6.756316207769271e-05
6.185,0.0,77.50213312275217,0,100,3.0,5,4.224005449841435e-05
6.19,0.0,77.50131610073626,0,100,3.0,5,2.606140071804367e-05
6.195,0.0,77.5008013480742,0,100,3.0,5,1.586827869713002e-05
6.2,0.0,77.50048151746557,0,100,3.0,5,9.53499931828185e-06
6.205,0.0,77.5002855365269,0,100,3.0,5,5.654188651540086e-06
6.21,0.0,77.50016709755003,0,100,3.0,5,3.3088623768948633e-06
6.215,0.0,77.50009650221315,0,100,3.0,5,1.910934913937153e-06
6.22,0.0,77.50005500007046,0,100,3.0,5,1.0891103061517737e-06
6.225,0.0,77.50003093484894,0,100,3.0,5,6.125712660728949e-07
6.23,0.0,77.50001717083974,0,100,3.0,5,3.400166285205565e-07
6.235,0.0,77.5000094057591,0,100,3.0,5,1.862526554723805e-07
6.24,0.0,77.50000508457842,0,100,3.0,5,1.0068472116328471e-07
6.245,0.001684486749771458,77.50000271253174,0,100,3.0,5,5.371349977782068e-08
6.25,0.00456624331333666,77.50000142808314,0,100,3.0,5,2.8278874019138535e-08
6.255,0.011079731271581421,77.50000074197783,0,100,3.0,5,1.4692630267547591e-08
6.26,0.024064571490409,77.50000038044087,0,100,3.0,5,7.533482502286362e-09
6.265,0.046784906529573234,77.50000019250507,0,100,3.0,5,3.811981577479792e-09
6.27,0.08141644351188804,77.50000009612934,0,100,3.0,5,1.9035513055809637e-09
6.275,0.12682276464025305,77.50000004737274,0,100,3.0,5,9.38073996918986e-10
6.28,0.1768320708657512,77.5000000230388,0,100,3.0,5,4.562137422512348e-10
6.285,0.22070063230473494,77.50000001105732,0,100,3.0,5,2.1895690980894113e-10
6.29,0.24656126505113576,77.5000000052372,0,100,3.0,5,1.0370687806865288e-10
6.295,0.24656126505724016,77.50000000244798,0,100,3.0,5,4.8474773150404206e-11
6.3,0.220700632329898,77.50000000112921,0,100,3.0,5,2.2360568842072603e-11
6.305,0.17683207093748562,77.50000000051404,0,100,3.0,5,1.0178911618975978e-11
6.31,0.12682276483597799,77.50000000023093,0,100,3.0,5,4.5727997845947045e-12
6.315,0.08141644409447898,77.50000000010237,0,100,3.0,5,2.0272276706597077e-12
6.32,0.04678490952598309,77.50000000004479,0,100,3.0,5,8.869824566795389e-13
6.325,0.024064605020532023,77.50000000001934,0,100,3.0,5,3.829895696512857e-13
6.33,0.011080171739334697,77.50000000000824,0,100,3.0,5,1.632137769270725e-13
6.335,0.004571212771509492,77.50000000000347,0,100,3.0,5,6.86623475348374e-14
6.34,0.0017299316936037438,77.50000000000144,0,100,3.0,5,2.842170943040401e-14
6.345,0.0008899431850697582,77.50000000000058,0,100,3.0,5,1.1537525610362024e-14
6.35,0.002128806368910263,77.50000000000024,0,100,3.0,5,4.783852082345229e-15
6.355,0.009309664818487698,77.5000000000001,0,100,3.0,5,1.969821445671565e-15
6.36,0.03503263543368747,77.50000000000004,0,100,3.0,5,8.442091910020992e-16
6.365,0.10606267793605692,77.50000000000001,0,100,3.0,5,2.814030636673664e-16
6.37,0.25734927343160535,77.5,0,100,3.0,5,0.0
6.375,0.5003202479539708,77.5,0,100,3.0,5,0.0
6.38,0.7793067891790435,77.5,0,100,3.0,5,0.0
6.385,0.9720477407234077,77.5000029761183,1,100,3.0,5,5.8933035560504224e-08
6.39,0.967267334488097,77.50000618532628,0,100,3.0,5,1.2248170861258217e-07
6.395,0.7505869905515209,77.50001392552794,0,100,3.0,5,2.7575302847298647e-07
6.4,0.4028369574773956,77.50003551779191,0,100,3.0,5,7.033226121719882e-07
6.405,0.04553881263121314,77.50010313559092,0,100,3.0,5,2.0422889290915523e-06
6.41,-0.189138810908105,77.50032572609189,0,100,3.0,5,6.450021621528529e-06
6.415,-0.22868072635956738,77.50105352781613,0,100,3.0,5,2.0861936952983477e-05
6.42,-0.14104670682394166,77.50333849843346,0,100,3.0,5,6.610887987058545e-05
6.425,-0.051158381651102834,77.51010867794061,0,100,3.0,5,0.00020017184040806803
6.43,-0.008206426846427752,77.52887923627338,0,100,3.0,5,0.0005718660648194646
6.435,0.005350271385530505,77.57736547743413,0,100,3.0,5,0.0015319896521609532
6.44,0.01084668799215426,77.6937614840257,0,100,3.0,5,0.003836861069815838
6.445,0.016256859896386415,77.95299178483792,0,100,3.0,5,0.008970134353226137
6.45,0.02345021205790711,78.48782060961162,0,100,3.0,5,0.019560804150725097
6.455,0.0330621597308209,79.50840637712494,0,100,3.0,5,0.03977042330940479
6.46,0.04559141319943196,81.30639038119868,0,100,3.0,5,0.07537406695442934
6.465,0.06149084917446989,84.22371682098306,0,100,3.0,5,0.13314290734619916
6.47,0.08111733445924295,88.56905596488694,0,100,3.0,5,0.2191892270274642
6.475,0.1046628598272375,94.48254071967199,0,100,3.0,5,0.3362879350430097
6.48,0.1320831047748631,101.78187771882364,0,100,3.0,5,0.4808292617588839
6.485,0.16303381314489318,109.85607098931862,0,100,3.0,5,0.6407142770162104
6.49,0.19682662652900276,117.68289868067583,0,100,3.0,5,0.7957009639737789
6.495,0.23241585813229,124.01296766753546,0,100,3.0,5,0.9210488647036725
6.5,0.26842527782774417,127.69015041412591,0,100,3.0,5,0.9938643646361566
6.505,0.30321927900592993,128.0,0,100,3.0,5,1.0
6.51,0.3350163137995362,124.90331438199323,0,100,3.0,5,0.9386794927127372
6.515,0.3620352400956416,119.0509908262225,0,100,3.0,5,0.8227918975489604
6.52,0.3826586036805073,111.57334395352093,0,100,3.0,5,0.6747196822479392
6.525,0.39559233134833227,103.73799888891169,0,100,3.0,5,0.5195643344338948
6.53,0.4,96.61848240541384,0,100,3.0,5,0.3785838100081949
6.535,0.39559233134833227,90.88948241854119,0,100,3.0,5,0.265138265713687
6.54,0.3826586036805073,86.7893676493135,0,100,3.0,5,0.18394787424383177
6.545,0.3620352400956416,84.21448228450262,0,100,3.0,5,0.13296004523767568
6.55,0.3350163137995362,82.8706742557033,0,100,3.0,5,0.10634998526145162
6.555,0.3032192790059296,82.41285373443978,0,100,3.0,5,0.09728423236514412
6.56,0.26842527782774417,82.53508919471457,0,100,3.0,5,0.09970473652900144
6.565,0.23241585813229,83.00723630449004,0,100,3.0,5,0.10905418424732743
6.57,0.19682662652900276,83.67399525905368,0,100,3.0,5,0.12225733186244916
6.575,0.16303381314489318,84.43655035035052,0,100,3.0,5,0.13735743268020822
6.58,0.13208310477486307,85.23167363197578,0,100,3.0,5,0.15310244815793625
6.585,0.10466285982723562,86.01556443973125,0,100,3.0,5,0.1686250384105198
6.59,0.08111733445917907,86.75400535564901,0,100,3.0,5,0.18324763080493095
6.595,0.06149084917398798,87.41763420030695,0,100,3.0,5,0.19638879604568216
6.6,0.04559141333598128,87.98046505761806,0,100,3.0,5,0.20753396153699133
6.605,0.03306217087257399,88.42010861624007,0,100,3.0,5,0.2162397745790113
6.61,0.02345067901074276,88.71867720825321,0,100,3.0,5,0.22215202392580616
6.615,0.016268788896435526,88.86378878992376,0,100,3.0,5,0.2250255205925497
6.62,0.011039026374860051,88.84935272165478,0,100,3.0,5,0.22473965785455013
6.625,0.007326255555493689,88.67597412457343,0,100,3.0,5,0.22130641830838474
6.63,0.0047556414315231815,88.3509063891692,0,100,3.0,5,0.21486943344889498
6.635,0.0030193390635632803,87.88754641372572,0,100,3.0,5,0.20569398839060823
6.64,0.001874953127946523,87.30451845386142,0,100,3.0,5,0.19414888027448354
6.645,0.0011387927410965778,86.62443306399382,0,100,3.0,5,0.18068184285136277
6.65,0.0006765107634274089,85.87243609243906,0,100,3.0,5,0.16579081371166454
6.655,0.00039307957404427924,85.07467708397961,0,100,3.0,5,0.1499936056233586
6.66,0.00022338910511776318,84.25682600304509,0,100,3.0,5,0.13379853471376418
6.665,0.00012417073320013317,83.4427529734118,0,100,3.0,5,0.11767827670122376
6.67,6.750753468904987e-05,82.65346049137668,0,100,3.0,5,0.10204872260151836
6.675,3.5897234866245036e-05,81.90632528007868,0,100,3.0,5,0.087253965942152
6.68,1.8670050400879738e-05,81.21467213191562,0,100,3.0,5,0.07355786399832911
6.685,9.497421874143672e-06,80.58766909939999,0,100,3.0,5,0.06114196236435621
6.69,4.725434140340885e-06,80.03050585017243,0,100,3.0,5,0.05010902673608776
6.695,2.299606063738814e-06,79.54479733357823,0,100,3.0,5,0.04049103630847982
6.7,1.0945633976635486e-06,79.12914419384192,0,100,3.0,5,0.03226028106617671
6.705,5.095703414287532e-07,78.77977938473101,0,100,3.0,5,0.025342166034277518
6.71,2.3202944964797243e-07,78.49123590647207,0,100,3.0,5,0.019628433791526147
6.715,1.0333746954038608e-07,78.25698150946495,0,100,3.0,5,0.014989732860692077
6.72,4.501406988770349e-08,78.06998030229119,0,100,3.0,5,0.01128673865923139
6.725,0.0,77.9231562441036,0,100,3.0,5,0.008379331566407817
6.73,0.0,77.80974762879951,0,100,3.0,5,0.006133616411871556
6.735,0.0,77.72355354312545,0,100,3.0,5,0.004426802834167279
6.74,0.0,77.65908215107021,0,100,3.0,5,0.0031501416053506637
6.745,0.0,77.61161631556492,0,100,3.0,5,0.002210224070592399
6.75,0.0,77.5772147447986,0,100,3.0,5,0.0015290048474969466
6.755,0.0,77.55266706642777,0,100,3.0,5,0.001042912206490556
6.76,0.0,77.53541965668042,0,100,3.0,5,0.0007013793402062909
6.765,0.0,77.52348636988228,0,100,3.0,5,0.0004650766313322339
6.77,0.0,77.51535513982303,0,100,3.0,5,0.00030406217471344875
6.775,0.0,77.50989824011825,0,100,3.0,5,0.0001960047548167684
6.78,0.0,77.50629112804937,0,100,3.0,5,0.00012457679305681935
6.785,0.0,77.50394244274653,0,100,3.0,5,7.80681731987105e-05
6.79,0.0,77.50243595126653,0,100,3.0,5,4.8236658743251e-05
6.795,0.0,77.50148401443865,0,100,3.0,5,2.9386424527632303e-05
6.8,0.0,77.50089140278692,0,100,3.0,5,1.7651540335041004e-05
6.805,0.0,77.50052792980212,0,100,3.0,5,1.045405548748337e-05
6.81,0.0,77.50030827953894,0,100,3.0,5,6.104545325579148e-06
6.815,0.0,77.50017749231459,0,100,3.0,5,3.5146992988441947e-06
6.82,0.0,77.5001007582777,0,100,3.0,5,1.995213419730693e-06
6.825,0.0,77.50005639599301,0,100,3.0,5,1.1167523368975266e-06
6.83,0.0,77.50003112304574,0,100,3.0,5,6.162979355277718e-07
6.835,0.0,77.5000169348855,0,100,3.0,5,3.35344267206424e-07
6.84,0.0,77.50000908549865,0,100,3.0,5,1.7991086429217397e-07
6.845,0.001684486749771458,77.50000480597605,0,100,3.0,5,9.516784252179542e-08
6.85,0.00456624331333666,77.50000250657536,0,100,3.0,5,4.963515556762041e-08
6.855,0.011079731271581421,77.50000128898024,0,100,3.0,5,2.5524361256042774e-08
6.86,0.024064571490409,77.5000006535489,0,100,3.0,5,1.2941562277269936e-08
6.865,0.046784906529573234,77.5000003267204,0,100,3.0,5,6.469710822082309e-09
6.87,0.08141644351188804,77.50000016104258,0,100,3.0,5,3.1889619481937712e-09
6.875,0.12682276464025305,77.50000007826571,0,100,3.0,5,1.5498161170254738e-09
6.88,0.1768320708657512,77.50000003750323,0,100,3.0,5,7.426381621866816e-10
6.885,0.22070063230473494,77.50000001771872,0,100,3.0,5,3.508657215152738e-10
6.89,0.24656126505113576,77.50000000825395,0,100,3.0,5,1.6344452743927976e-10
6.895,0.24656126505724016,77.50000000379104,0,100,3.0,5,7.5070176697607e-11
6.9,0.220700632329898,77.5000000017168,0,100,3.0,5,3.399602271859087e-11
6.905,0.17683207093748562,77.50000000076656,0,100,3.0,5,1.517944406034508e-11
6.91,0.12682276483597799,77.50000000033748,0,100,3.0,5,6.682759955972617e-12
6.915,0.08141644409447898,77.50000000014649,0,100,3.0,5,2.900702780283213e-12
6.92,0.04678490952598309,77.5000000000627,0,100,3.0,5,1.2415503169004206e-12
6.925,0.024064605020532023,77.50000000002646,0,100,3.0,5,5.239725045486363e-13
6.93,0.011080171739334697,77.50000000001101,0,100,3.0,5,2.1808737434220896e-13
6.935,0.004571212771509492,77.50000000000452,0,100,3.0,5,8.948617424622252e-14
6.94,0.0017299316936037438,77.50000000000182,0,100,3.0,5,3.60195921494229e-14
6.945,0.0008899431850697582,77.50000000000072,0,100,3.0,5,1.4351556247035687e-14
6.95,0.002128806368910263,77.50000000000028,0,100,3.0,5,5.6280612733473285e-15
6.955,0.009309664818487698,77.50000000000011,0,100,3.0,5,2.2512245093389313e-15
6.96,0.03503263543368747,77.50000000000004,0,100,3.0,5,8.442091910020992e-16
6.965,0.10606267793605692,77.50000000000001,0,100,3.0,5,2.814030636673664e-16
6.97,0.25734927343160535,77.5,0,100,3.0,5,0.0
6.975,0.5003202479539708,77.5,0,100,3.0,5,0.0
6.98,0.7793067891790435,77.5,0,100,3.0,5,0.0
6.985,0.9720477407234077,77.500002961856,1,100,3.0,5,5.865061381774638e-08
6.99,0.967267334488097,77.500006041423,0,100,3.0,5,1.1963213873878877e-07
6.995,0.7505869905515209,77.50001328138595,0,100,3.0,5,2.629977415165173e-07
7.0,0.4028369574773956,77.50003283321637,0,100,3.0,5,6.501627003199426e-07
7.005,0.04553881263121314,77.50009198824264,0,100,3.0,5,1.8215493592959877e-06
7.01,-0.189138810908105,77.50028074560149,0,100,3.0,5,5.559318841314602e-06
7.015,-0.22868072635956738,77.50088215537116,0,100,3.0,5,1.7468423191256096e-05
7.02,-0.14104670682394166,77.5027317136506,0,100,3.0,5,5.409333961592487e-05
7.025,-0.051158381651102834,77.50812515206187,0,100,3.0,5,0.00016089410023495125
7.03,-0.008206426846427752,77.52290585167412,0,100,3.0,5,0.0004535812212697967
7.035,0.005350271385530505,77.5607994860294,0,100,3.0,5,0.0012039502184038745
7.04,0.01084668799215426,77.65144697964095,0,100,3.0,5,0.0029989500919000286
7.045,0.016256859896386415,77.85343089561607,0,100,3.0,5,0.00699863159635785
7.05,0.02345021205790711,78.27206809920676,0,100,3.0,5,0.015288477212015105
7.055,0.0330621597308209,79.07802187804528,0,100,3.0,5,0.031247957981094594
7.06,0.04559141319943196,80.51693895137673,0,100,3.0,5,0.05974136537379663
7.065,0.06149084917446989,82.89454088046219,0,100,3.0,5,0.10682259169232054
7.07,0.08111733445924295,86.52074732919208,0,100,3.0,5,0.17862865998400151
7.075,0.1046628598272375,91.60628022891433,0,100,3.0,5,0.2793322817606798
7.08,0.1320831047748631,98.12800786254579,0,100,3.0,5,0.40847540321872844
7.085,0.16303381314489318,105.70840989696592,0,100,3.0,5,0.5585823741973449
7.09,0.19682662652900276,113.57344353324595,0,100,3.0,5,0.7143256145197218
7.095,0.23241585813229,120.64276888442222,0,100,3.0,5,0.8543122551370738
7.1,0.26842527782774417,125.75956336367835,0,100,3.0,5,0.9556349180926407
7.105,0.30321927900592993,128.0,0,100,3.0,5,1.0
7.11,0.3350163137995362,126.95061745029365,0,100,3.0,5,0.9792201475305673
7.115,0.3620352400956416,122.84001560912182,0,100,3.0,5,0.897822091269739
7.12,0.3826586036805073,116.46801010317881,0,100,3.0,5,0.7716437644193824
7.125,0.39559233134833227,108.96296573740314,0,100,3.0,5,0.6230290245030324
7.13,0.4,101.46881286087532,0,100,3.0,5,0.4746299576410954
7.135,0.39559233134833227,94.88053871179497,0,100,3.0,5,0.34416908340188057
7.14,0.3826586036805073,89.70779311233117,0,100,3.0,5,0.24173847747190444
7.145,0.3620352400956416,86.07956026661839,0,100,3.0,5,0.1698922825072948
7.15,0.3350163137995362,83.84687409322002,0,100,3.0,5,0.1256806751132678
7.155,0.3032192790059296,82.7187027867249,0,100,3.0,5,0.10334064924207731
7.16,0.26842527782774417,82.37771688222631,0,100,3.0,5,0.09658845311339226
7.165,0.23241585813229,82.55072048744152,0,100,3.0,5,0.10001426707804997
7.17,0.19682662652900276,83.03453037589074,0,100,3.0,5,0.1095946609087275
7.175,0.16303381314489318,83.69208055632127,0,100,3.0,5,0.12261545656081728
7.18,0.13208310477486307,84.43544696634281,0,100,3.0,5,0.1373355834919368
7.185,0.10466285982723562,85.20760297898806,0,100,3.0,5,0.15262580156412006
7.19,0.08111733445917907,85.96850260217812,0,100,3.0,5,0.1676931208352103
7.195,0.06149084917398798,86.6865931944108,0,100,3.0,5,0.18191273652298623
7.2,0.04559141333598128,87.33469336179016,0,100,3.0,5,0.19474640320376552
7.205,0.03306217087257399,87.88866412777621,0,100,3.0,5,0.20571612134210315
7.21,0.02345067901074276,88.32756689971691,0,100,3.0,5,0.21440726534092897
7.215,0.016268788896435526,88.63444229094094,0,100,3.0,5,0.22048400576120672
7.22,0.011039026374860051,88.7972016808272,0,100,3.0,5,0.22370696397677625
7.225,0.007326255555493689,88.80935150413694,0,100,3.0,5,0.22394755453736517
7.23,0.0047556414315231815,88.67040269484706,0,100,3.0,6,0.22119609296726842
7.235,0.0030193390635632803,88.38589749796584,0,100,3.0,6,0.21556232669239292
7.24,0.001874953127946523,87.96704111602165,0,100,3.0,6,0.20726814091131976
7.245,0.0011387927410965778,87.42996910265714,0,100,3.0,6,0.19663305153776514
7.25,0.0006765107634274089,86.79471636674512,0,100,3.0,6,0.18405378944049744
7.255,0.00039307957404427924,86.08397933237504,0,100,3.0,6,0.16997978875990172
7.26,0.00022338910511776318,85.32177758289465,0,100,3.0,6,0.15488668480979514
7.265,0.00012417073320013317,84.53212429988861,0,100,3.0,6,0.13924998613640807
7.27,6.750753468904987e-05,83.7378064113005,0,100,3.0,6,0.1235209190356534
7.275,3.5897234866245036e-05,82.95935736032456,0,100,3.0,6,0.1081060863430606
7.28,1.8670050400879738e-05,82.21428063285789,0,100,3.0,6,0.09335209173976025
7.285,9.497421874143672e-06,81.51655406697313,0,100,3.0,6,0.0795357240984778
7.29,4.725434140340885e-06,80.8764170164331,0,100,3.0,6,0.06685974289966524
7.295,2.299606063738814e-06,80.30041774319758,0,100,3.0,6,0.05545381669698188
7.3,1.0945633976635486e-06,79.7916792805792,0,100,3.0,6,0.04537978773424164
7.305,5.095703414287532e-07,79.35032975682887,0,100,3.0,6,0.03664019320453208
7.31,2.3202944964797243e-07,78.97403808767992,0,100,3.0,6,0.029188873023364655
7.315,1.0333746954038608e-07,78.65859741440458,0,100,3.0,6,0.022942523057516477
7.32,4.501406988770349e-08,78.39850537991533,0,100,3.0,6,0.01779218574089772
7.325,0.0,78.1875006071592,0,100,3.0,6,0.01361387340909295
7.33,0.0,78.01902678123402,0,100,3.0,6,0.010277758044237983
7.335,0.0,77.8866079019436,0,100,3.0,6,0.007655602018685262
7.34,0.0,77.78412926151917,0,100,3.0,6,0.0056263220102805754
7.345,0.0,77.70602763440992,0,100,3.0,6,0.004079755136830114
7.35,0.0,77.64740060525696,0,100,3.0,6,0.002918823866474497
7.355,0.0,77.604048862077,0,100,3.0,6,0.0020603735064751187
7.36,0.0,77.57246689949535,0,100,3.0,6,0.0014349881088188759
7.365,0.0,77.54979735814472,0,100,3.0,6,0.000986086299895357
7.37,0.0,77.53376270259416,0,100,3.0,6,0.0006685683682011887
7.375,0.0,77.52258563891289,0,100,3.0,6,0.000447240374512603
7.38,0.0,77.51490705436474,0,100,3.0,6,0.0002951891953414091
7.385,0.0,77.50970768257822,0,100,3.0,6,0.00019223133818265054
7.39,0.0,77.50623739972342,0,100,3.0,6,0.000123512865810248
7.395,0.0,77.50395417479393,0,100,3.0,6,7.830049096895945e-05
7.4,0.0,77.50247327511215,0,100,3.0,6,4.8975744795087046e-05
7.405,0.0,77.50152634696913,0,100,3.0,6,3.0224692458002417e-05
7.41,0.0,77.50092939083888,0,100,3.0,6,1.840377898766332e-05
7.415,0.0,77.50055835162344,0,100,3.0,6,1.1056467790881876e-05
7.42,0.0,77.50033096453323,0,100,3.0,6,6.553753133339972e-06
7.425,0.0,77.50019356169078,0,100,3.0,6,3.832904767894361e-06
7.43,0.0,77.50011169188872,0,100,3.0,6,2.2117205686966075e-06
7.435,0.0,77.50006358989972,0,100,3.0,6,1.2592059351395573e-06
7.44,0.0,77.5000357206146,0,100,3.0,6,7.07338903067007e-07
7.445,0.0,77.50001979766552,0,100,3.0,6,3.920329805119349e-07
7.45,0.0,77.50001082613204,0,100,3.0,6,2.1437885228950486e-07
7.455,0.0,77.50000584113084,0,100,3.0,6,1.156659572873173e-07
7.46,0.001684486749771458,77.50000310945893,0,100,3.0,6,6.157344416513495e-08
7.465,0.00456624331333666,77.50000163319106,0,100,3.0,6,3.234041705942254e-08
7.47,0.011079731271581421,77.50000084635671,0,100,3.0,6,1.6759538865618098e-08
7.475,0.024064571490409,77.5000004327471,0,100,3.0,6,8.569249512400364e-09
7.48,0.046784906529573234,77.50000021831278,0,100,3.0,6,4.323025299671295e-09
7.485,0.08141644351188804,77.5000001086647,0,100,3.0,6,2.151776103832757e-09
7.49,0.12682276464025305,77.50000005336567,0,100,3.0,6,1.0567458899134695e-09
7.495,0.1768320708657512,77.50000002585828,0,100,3.0,6,5.120452356950949e-10
7.5,0.22070063230473494,77.50000001236238,0,100,3.0,6,2.447995601608337e-10
7.505,0.24656126505113576,77.50000000583134,0,100,3.0,6,1.154720587575218e-10
7.51,0.24656126505724016,77.50000000271393,0,100,3.0,6,5.374123148693897e-11
7.515,0.220700632329898,77.50000000124622,0,100,3.0,6,2.4677641668309697e-11
7.52,0.17683207093748562,77.50000000056461,0,100,3.0,6,1.1180425122568135e-11
7.525,0.12682276483597799,77.50000000025238,0,100,3.0,6,4.997718410732428e-12
7.53,0.08141644409447898,77.50000000011131,0,100,3.0,6,2.204230197706481e-12
7.535,0.04678490952598309,77.50000000004844,0,100,3.0,6,9.59303044042052e-13
7.54,0.024064605020532023,77.5000000000208,0,100,3.0,6,4.1197408520902444e-13
7.545,0.011080171739334697,77.50000000000881,0,100,3.0,6,1.7446989947376718e-13
7.55,0.004571212771509492,77.50000000000368,0,100,3.0,6,7.28833934898479e-14
7.555,0.0017299316936037438,77.50000000000152,0,100,3.0,6,3.011012781240821e-14
7.56,0.0008899431850697582,77.50000000000061,0,100,3.0,6,1.2100331737696755e-14
7.565,0.002128806368910263,77.50000000000024,0,100,3.0,6,4.783852082345229e-15
7.57,0.009309664818487698,77.5000000000001,0,100,3.0,6,1.969821445671565e-15
7.575,0.03503263543368747,77.50000000000004,0,100,3.0,6,8.442091910020992e-16
7.58,0.10606267793605692,77.50000000000001,0,100,3.0,6,2.814030636673664e-16
7.585,0.25734927343160535,77.5,0,100,3.0,6,0.0
7.59,0.5003202479539708,77.5,0,100,3.0,6,0.0
7.595,0.7793067891790435,77.5,0,100,3.0,6,0.0
7.6,0.9720477407234077,77.50000297682912,1,100,3.0,6,5.894711134174887e-08
7.605,0.967267334488097,77.50000644330252,0,100,3.0,6,1.2759014899835742e-07
7.61,0.7505869905515209,77.5000152857257,0,100,3.0,6,3.026876375243584e-07
7.615,0.4028369574773956,77.50004176629017,0,100,3.0,6,8.27055250828389e-07
7.62,0.04553881263121314,77.50013105560434,0,100,3.0,6,2.5951604820222365e-06
7.625,-0.189138810908105,77.50044488722678,0,100,3.0,6,8.809648054995417e-06
7.63,-0.22868072635956738,77.50152741496863,0,100,3.0,6,3.0245840963066212e-05
7.635,-0.14104670682394166,77.50507191996074,0,100,3.0,6,0.0001004340586285428
7.64,-0.051158381651102834,77.51591237767056,0,100,3.0,6,0.0003150965875358389
7.645,-0.008206426846427752,77.54664318495337,0,100,3.0,6,0.0009236274248191628
7.65,0.005350271385530505,77.62707313229895,0,100,3.0,6,0.0025162996494840838
7.655,0.01084668799215426,77.82095772461896,0,100,3.0,6,0.006355598507306216
7.66,0.016256859896386415,78.25065421083119,0,100,3.0,6,0.01486443981843933
7.665,0.02345021205790711,79.12465661250958,0,100,3.0,6,0.03217141806949668
7.67,0.0330621597308209,80.75291471256554,0,100,3.0,6,0.06441415272407013
7.675,0.04559141319943196,83.52418692756659,0,100,3.0,6,0.11929083024884335
7.68,0.06149084917446989,87.8180869015123,0,100,3.0,6,0.2043185525051941
7.685,0.08111733445924295,93.84389846636032,0,100,3.0,6,0.3236415537893132
7.69,0.1046628598272375,101.44211177113385,0,100,3.0,6,0.47410122319076936
7.695,0.1320831047748631,109.93592006093229,0,100,3.0,6,0.6422954467511345
7.7,0.16303381314489318,118.14132463767484,0,100,3.0,6,0.8047787056965315
7.705,0.19682662652900276,124.60095505949394,0,100,3.0,6,0.9326921793959196
7.71,0.23241585813229,128.0,0,100,3.0,6,1.0
7.715,0.26842527782774417,127.6074388486669,0,100,3.0,6,0.9922265118547902
7.72,0.30321927900592993,123.54146413142652,0,100,3.0,6,0.911712161018347
7.725,0.3350163137995362,116.72845096846851,0,100,3.0,6,0.7768010092766041
7.73,0.3620352400956416,108.57594924757062,0,100,3.0,6,0.6153653316350618
7.735,0.3826586036805073,100.51841012567104,0,100,3.0,6,0.4558101014984364
7.74,0.39559233134833227,93.63583866964807,0,100,3.0,6,0.3195215578148132
7.745,0.4,88.4768062592669,0,100,3.0,6,0.21736250018350284
7.75,0.39559233134833227,85.09678201200113,0,100,3.0,6,0.15043132697031938
7.755,0.3826586036805073,83.22880029248734,0,100,3.0,6,0.11344158995024427
7.76,0.3620352400956416,82.47816456850022,0,100,3.0,6,0.09857751620792513
7.765,0.3350163137995362,82.46582560396621,0,100,3.0,6,0.0983331802765586
7.77,0.3032192790059296,82.89742970194244,0,100,3.0,6,0.10687979607806818
7.775,0.26842527782774417,83.57340218280083,0,100,3.0,6,0.12026538975843235
7.78,0.23241585813229,84.36864280982073,0,100,3.0,6,0.13601272890734115
7.785,0.19682662652900276,85.20533717654936,0,100,3.0,6,0.15258093418909632
7.79,0.16303381314489318,86.03115850518294,0,100,3.0,6,0.16893383178580088
7.795,0.13208310477486307,86.80599422385167,0,100,3.0,6,0.18427711334359742
7.8,0.10466285982723562,87.4957153338043,0,100,3.0,6,0.1979349571050356
7.805,0.08111733445917907,88.07034988573457,0,100,3.0,6,0.20931385912345687
7.81,0.06149084917398798,88.50447395532824,0,100,3.0,6,0.2179103753530344
7.815,0.04559141333598128,88.77842588279614,0,100,3.0,6,0.2233351659959632
7.82,0.03306217087257399,88.87956664624946,0,100,3.0,6,0.22533795339107837
7.825,0.02345067901074276,88.80318162209397,0,100,3.0,6,0.2238253786553262
7.83,0.016268788896435526,88.55282711877172,0,100,3.0,6,0.2188678637380538
7.835,0.011039026374860051,88.1400513820406,0,100,3.0,6,0.2106940867730811
7.84,0.007326255555493689,87.58351034332568,0,100,3.0,6,0.19967347214506306
7.845,0.0047556414315231815,86.90756971644608,0,100,3.0,6,0.18628850923655596
7.85,0.0030193390635632803,86.14053864781572,0,100,3.0,6,0.1710997752042716
7.855,0.001874953127946523,85.3127128609072,0,100,3.0,6,0.15470718536449896
7.86,0.0011387927410965778,84.4544146804433,0,100,3.0,6,0.13771118179095657
7.865,0.0006765107634274089,83.5942038620777,0,100,3.0,6,0.12067730419955852
7.87,0.00039307957404427924,82.75740031791543,0,100,3.0,6,0.10410693698842428
7.875,0.00022338910511776318,81.96501364486748,0,100,3.0,6,0.08841611177955412
7.88,0.00012417073320013317,81.23312221494596,0,100,3.0,6,0.07392321217714781
7.885,6.750753468904987e-05,80.57269391319508,0,100,3.0,6,0.06084542402366498
7.89,3.5897234866245036e-05,79.98979772895345,0,100,3.0,6,0.049302925325810855
7.895,1.8670050400879738e-05,79.48612467581856,0,100,3.0,6,0.039329201501357595
7.9,9.497421874143672e-06,79.0597199322176,0,100,3.0,6,0.03088554321222978
7.905,4.725434140340885e-06,78.70582535496604,0,100,3.0,6,0.02387772980130768
7.91,2.299606063738814e-06,78.41774045282362,0,100,3.0,6,0.018173078273735096
7.915,1.0945633976635486e-06,78.18762714596294,0,100,3.0,6,0.013616379127978912
7.92,5.095703414287532e-07,78.0072053498429,0,100,3.0,6,0.010043670293918923
7.925,2.3202944964797243e-07,77.8683089838995,0,100,3.0,6,0.007293247205930613
7.93,1.0333746954038608e-07,77.76329249106546,0,100,3.0,6,0.005213712694365477
7.935,4.501406988770349e-08,77.685294406265,0,100,3.0,6,0.003669196163663387
7.94,0.0,77.6283759937939,0,100,3.0,6,0.002542098887007828
7.945,0.0,77.58755944551955,0,100,3.0,6,0.001733850406327632
7.95,0.0,77.55879222021566,0,100,3.0,6,0.0011642023805082133
7.955,0.0,77.5388628274054,0,100,3.0,6,0.000769560938720707
7.96,0.0,77.52528987023435,0,100,3.0,6,0.0005007895095910062
7.965,0.0,77.51620154690102,0,100,3.0,6,0.0003208227109112023
7.97,0.0,77.51021795623286,0,100,3.0,6,0.00020233576698741322
7.975,0.0,77.50634408901792,0,100,3.0,6,0.00012562552510723103
7.98,0.0,77.50387768183894,0,100,3.0,6,7.678577898898334e-05
7.985,0.0,77.50233331166066,0,100,3.0,6,4.6204191300270086e-05
7.99,0.0,77.50138220036888,0,100,3.0,6,2.7370304334260372e-05
7.995,0.0,77.50080605918664,0,100,3.0,6,1.596156805235431e-05
8.0,0.0,77.50046276503086,0,100,3.0,6,9.163663977438088e-06
8.005,0.0,77.5002615482448,0,100,3.0,6,5.1791731642303e-06
8.01,0.0,77.50014552605633,0,100,3.0,6,2.8817040857228505e-06
8.015,0.0,77.50007971267532,0,100,3.0,6,1.5784688181305106e-06
8.02,0.0,77.5000429844807,0,100,3.0,6,8.511778356469312e-07
8.025,0.0,77.50002281884497,0,100,3.0,6,4.5185831620281283e-07
8.03,0.001684486749771458,77.50001192540962,0,100,3.0,6,2.3614672521502917e-07
8.035,0.00456624331333666,77.50000613550942,0,100,3.0,6,1.2149523610274303e-07
8.04,0.011079731271581421,77.50000310760366,0,100,3.0,6,6.153670615096398e-08
8.045,0.024064571490409,77.50000154952396,0,100,3.0,6,3.06836427333308e-08
8.05,0.046784906529573234,77.50000076062157,0,100,3.0,6,1.5061813358686166e-08
8.055,0.08141644351188804,77.50000036756713,0,100,3.0,6,7.2785569342825216e-09
8.06,0.12682276464025305,77.50000017486478,0,100,3.0,6,3.4626689194728987e-09
8.065,0.1768320708657512,77.50000008189657,0,100,3.0,6,1.6217143183894223e-09
8.07,0.22070063230473494,77.50000003775955,0,100,3.0,6,7.4771382924605e-10
8.075,0.24656126505113576,77.500000017139,0,100,3.0,6,3.393861649360273e-10
8.08,0.24656126505724016,77.50000000765847,0,100,3.0,6,1.516528948624261e-10
8.085,0.220700632329898,77.50000000336895,0,100,3.0,6,6.671194290055889e-11
8.09,0.17683207093748562,77.50000000145897,0,100,3.0,6,2.889052693447384e-11
8.095,0.12682276483597799,77.50000000062201,0,100,3.0,6,1.2317012096720628e-11
8.1,0.08141644409447898,77.50000000026107,0,100,3.0,6,5.169655682633189e-12
8.105,0.04678490952598309,77.50000000010786,0,100,3.0,6,2.135849253235311e-12
8.11,0.024064605020532023,77.50000000004387,0,100,3.0,6,8.686912575411601e-13
8.115,0.011080171739334697,77.50000000001756,0,100,3.0,6,3.478141866928649e-13
8.12,0.004571212771509492,77.50000000000692,0,100,3.0,6,1.3704329200600744e-13
8.125,0.0017299316936037438,77.50000000000269,0,100,3.0,6,5.3185179033132255e-14
8.13,0.0008899431850697582,77.50000000000102,0,100,3.0,6,2.026102058405038e-14
8.135,0.002128806368910263,77.50000000000038,0,100,3.0,6,7.597882719018894e-15
8.14,0.009309664818487698,77.50000000000014,0,100,3.0,6,2.8140306366736642e-15
8.145,0.03503263543368747,77.50000000000006,0,100,3.0,6,1.1256122546694657e-15
8.15,0.10606267793605692,77.50000000000001,0,100,3.0,6,2.814030636673664e-16
8.155,0.25734927343160535,77.5,0,100,3.0,6,0.0
8.16,0.5003202479539708,77.5,0,100,3.0,6,0.0
8.165,0.7793067891790435,77.5,0,100,3.0,6,0.0
8.17,0.9720477407234077,77.5000029754369,1,100,3.0,6,5.8919542565004434e-08
8.175,0.967267334488097,77.50000599695579,0,100,3.0,6,1.1875159984946108e-07
8.18,0.7505869905515209,77.50001298600604,0,100,3.0,6,2.571486344784194e-07
8.185,0.4028369574773956,77.50003147504462,0,100,3.0,6,6.232682103405516e-07
8.19,0.04553881263121314,77.50008619286392,0,100,3.0,6,1.7067893845188057e-06
8.195,-0.189138810908105,77.50025730044038,0,100,3.0,6,5.095058225374532e-06
8.2,-0.22868072635956738,77.5007933249374,0,100,3.0,6,1.570940470108524e-05
8.205,-0.14104670682394166,77.50241950076978,0,100,3.0,6,4.791090633219001e-05
8.21,-0.051158381651102834,77.50711144306592,0,100,3.0,6,0.00014082065477076427
8.215,-0.008206426846427752,77.51986871228921,0,100,3.0,6,0.0003934398473110814
8.22,0.005350271385530505,77.55240190738294,0,100,3.0,6,0.0010376615323355166
8.225,0.01084668799215426,77.63001002590855,0,100,3.0,6,0.0025744559585850857
8.23,0.016256859896386415,77.80289200489227,0,100,3.0,6,0.0059978614830152755
8.235,0.02345021205790711,78.16202929152928,0,100,3.0,6,0.013109490921371869
8.24,0.0330621597308209,78.85684044003119,0,100,3.0,6,0.02686812752537014
8.245,0.04559141319943196,80.10689364457848,0,100,3.0,6,0.05162165632828668
8.25,0.06149084917446989,82.19454731190469,0,100,3.0,6,0.09296133290900367
8.255,0.08111733445924295,85.42322629870154,0,100,3.0,6,0.15689557027131754
8.26,0.1046628598272375,90.03220955939476,0,100,3.0,6,0.24816256553256946
8.265,0.1320831047748631,96.0763779834986,0,100,3.0,6,0.36784906898017034
8.27,0.16303381314489318,103.30485469372982,0,100,3.0,6,0.5109872216580162
8.275,0.19682662652900276,111.0935870574871,0,100,3.0,6,0.6652195456928138
8.28,0.23241585813229,118.48679998058978,0,100,3.0,6,0.8116198015958372
8.285,0.26842527782774417,124.3703389478431,0,100,3.0,6,0.9281255237196653
8.29,0.30321927900592993,127.74334061454307,0,100,3.0,6,0.994917635931546
8.295,0.3350163137995362,128.0,0,100,3.0,6,1.0
8.3,0.3620352400956416,125.11330099463837,0,100,3.0,6,0.9428376434581854
8.305,0.3826586036805073,119.64481297500973,0,100,3.0,6,0.8345507519803906
8.31,0.39559233134833227,112.57637305393439,0,100,3.0,6,0.6945816446323642
8.315,0.4,105.03340955907804,0,100,3.0,6,0.5452160308728324
8.32,0.39559233134833227,98.00714308426187,0,100,3.0,6,0.4060820412725123
8.325,0.3826586036805073,92.16807227358933,0,100,3.0,6,0.29045687670473924
8.33,0.3620352400956416,87.8106625064421,0,100,3.0,6,0.20417153478103167
8.335,0.3350163137995362,84.91128351654942,0,100,3.0,6,0.14675808943662214
8.34,0.3032192790059296,83.24627791934817,0,100,3.0,6,0.11378768157125096
8.345,0.26842527782774417,82.51389380055394,0,100,3.0,6,0.09928502575354345
8.35,0.23241585813229,82.42351586481769,0,100,3.0,6,0.0974953636597562
8.355,0.19682662652900276,82.74137651779043,0,100,3.0,6,0.10378963401565204
8.36,0.16303381314489318,83.30063613325049,0,100,3.0,6,0.1148640818465444
8.365,0.13208310477486307,83.99100308268714,0,100,3.0,6,0.1285347145086563
8.37,0.10466285982723562,84.74151848915058,0,100,3.0,6,0.14339640572575404
8.375,0.08111733445917907,85.50482196555724,0,100,3.0,6,0.15851132605063845
8.38,0.06149084917398798,86.24611874995509,0,100,3.0,6,0.17319047029614035
8.385,0.04559141333598128,86.93688968311473,0,100,3.0,6,0.1868691026359352
8.39,0.03306217087257399,87.552095598575,0,100,3.0,6,0.19905139799158403
8.395,0.02345067901074276,88.06949801926329,0,100,3.0,6,0.20929699048046124
8.4,0.016268788896435526,88.47004810840187,0,100,3.0,6,0.2172286754138984
8.405,0.011039026374860051,88.73867645530594,0,100,3.0,6,0.2225480486199195
8.41,0.007326255555493689,88.86509801461254,0,100,3.0,6,0.22505144583391173
8.415,0.0047556414315231815,88.84442009521223,0,100,3.0,6,0.22464198208341046
8.42,0.0030193390635632803,88.6774424986801,0,100,3.0,6,0.2213354950233682
8.425,0.001874953127946523,88.37060213916769,0,100,3.0,6,0.21525944830035024
8.43,0.0011387927410965778,87.93556017778981,0,100,3.0,6,0.20664475599583781
8.435,0.0006765107634274089,87.38846637634401,0,100,3.0,7,0.19581121537314877
8.44,0.00039307957404427924,86.74896474048299,0,100,3.0,7,0.18314781664322752
8.445,0.00022338910511776318,86.03902558407252,0,100,3.0,7,0.16908961552618848
8.45,0.00012417073320013317,85.2817005402186,0,100,3.0,7,0.1540930800043286
8.455,6.750753468904987e-05,84.49989815970547,0,100,3.0,7,0.1386118447466429
8.46,3.5897234866245036e-05,83.71526910843023,0,100,3.0,7,0.1230746358104997
8.465,1.8670050400879738e-05,82.94727325500796,0,100,3.0,7,0.10786679712887044
8.47,9.497421874143672e-06,82.21247863298953,0,100,3.0,7,0.0933164085740501
8.475,4.725434140340885e-06,81.52411733001249,0,100,3.0,7,0.07968549168341559
8.48,2.299606063738814e-06,80.89189878152109,0,100,3.0,7,0.06716631250536817
8.485,1.0945633976635486e-06,80.32205933831581,0,100,3.0,7,0.05588236313496654
8.49,5.095703414287532e-07,79.8176102712143,0,100,3.0,7,0.045893272697313
8.495,2.3202944964797243e-07,79.3787356692764,0,100,3.0,7,0.03720268652032466
8.5,1.0333746954038608e-07,79.00328721222063,0,100,3.0,7,0.02976806360832925
8.505,4.501406988770349e-08,78.68732401962978,0,100,3.0,7,0.023511366725342264
8.51,0.0,78.425651592325,0,100,3.0,7,0.018329734501485076
8.515,0.0,78.21232282339807,0,100,3.0,7,0.014105402443526104
8.52,0.0,78.04107463502996,0,100,3.0,7,0.010714349208514011
8.525,0.0,77.90568457847962,0,100,3.0,7,0.008033357989695492
8.53,0.0,77.8002415759474,0,100,3.0,7,0.005945377741532598
8.535,0.0,77.71933309720917,0,100,3.0,7,0.004343229647706395
8.54,0.0,77.658157036978,0,100,3.0,7,0.0031318225144157776
8.545,0.0,77.61257031386367,0,100,3.0,7,0.002229115126013285
8.55,0.0,77.57908793610137,0,100,3.0,7,0.0015660977445816565
8.555,0.0,77.55484633547951,0,100,3.0,7,0.0010860660490992148
8.56,0.0,77.53754360721969,0,100,3.0,7,0.0007434377667265164
8.565,0.0,77.52536736675137,0,100,3.0,7,0.0005023240940864967
8.57,0.0,77.51691865312054,0,100,3.0,7,0.0003350228340701226
8.575,0.0,77.51113799947356,0,100,3.0,7,0.00022055444502101825
8.58,0.0,77.50723768383935,0,100,3.0,7,0.0001433204720663273
8.585,0.0,77.50464240506564,0,100,3.0,7,9.19288131809584e-05
8.59,0.0,77.50293925633632,0,100,3.0,7,5.820309576869035e-05
8.595,0.0,77.5018368889561,0,100,3.0,7,3.637403873477245e-05
8.6,0.0,77.50113312899164,0,100,3.0,7,2.2438197854254743e-05
8.605,0.0,77.50068996459827,0,100,3.0,7,1.3662665312191021e-05
8.61,0.0,77.50041469163281,0,100,3.0,7,8.211715501237458e-06
8.615,0.0,77.50024602245387,0,100,3.0,7,4.8717317597065364e-06
8.62,0.0,77.50014407055438,0,100,3.0,7,2.8528822650347895e-06
8.625,0.0,77.50008327731553,0,100,3.0,7,1.6490557529755503e-06
8.63,0.0,77.50004751483387,0,100,3.0,7,9.40887799337775e-07
8.635,0.0,77.50002675979127,0,100,3.0,7,5.298968567961373e-07
