Time,ECG,Pressure,R_Peaks,mean_hr,hrv_scale,Phase_Bin,Normalized_Pressure
0.0,0.001684486749771458,77.5,0,100,1.0,0,0.0
0.005,0.00456624331333666,77.5,0,100,1.0,0,0.0
0.01,0.011079731271581421,77.5,0,100,1.0,0,0.0
0.015,0.024064571490409,77.5,0,100,1.0,0,0.0
0.02,0.046784906529573234,77.5,0,100,1.0,0,0.0
0.025,0.08141644351188804,77.5,0,100,1.0,0,0.0
0.03,0.12682276464025305,77.5,0,100,1.0,0,0.0
0.035,0.1768320708657512,77.5,0,100,1.0,0,0.0
0.04,0.22070063230473494,77.5,0,100,1.0,0,0.0
0.045,0.24656126505113576,77.5,0,100,1.0,0,0.0
0.05,0.24656126505724016,77.5,0,100,1.0,0,0.0
0.055,0.220700632329898,77.5,0,100,1.0,0,0.0
0.06,0.17683207093748562,77.5,0,100,1.0,0,0.0
0.065,0.12682276483597799,77.5,0,100,1.0,0,0.0
0.07,0.08141644409447898,77.5,0,100,1.0,0,0.0
0.075,0.04678490952598309,77.5,0,100,1.0,0,0.0
0.08,0.024064605020532023,77.5,0,100,1.0,0,0.0
0.085,0.011080171739334697,77.5,0,100,1.0,0,0.0
0.09,0.004571212771509492,77.5,0,100,1.0,0,0.0
0.095,0.0017299316936037438,77.5,0,100,1.0,0,0.0
0.1,0.0008899431850697582,77.5,0,100,1.0,0,0.0
0.105,0.002128806368910263,77.5,0,100,1.0,0,0.0
0.11,0.009309664818487698,77.5,0,100,1.0,0,0.0
0.115,0.03503263543368747,77.5,0,100,1.0,0,0.0
0.12,0.10606267793605692,77.5,0,100,1.0,0,0.0
0.125,0.25734927343160535,77.5,0,100,1.0,0,0.0
0.13,0.5003202479539708,77.5,0,100,1.0,0,0.0
0.135,0.7793067891790435,77.5,0,100,1.0,0,0.0
0.14,0.9720477407234077,77.5,0,100,1.0,0,0.0
0.145,0.967267334488097,77.5,0,100,1.0,0,0.0
0.15,0.7505869905515209,77.5,0,100,1.0,0,0.0
0.155,0.4028369574773956,77.5,0,100,1.0,0,0.0
0.16,0.04553881263121314,77.5,0,100,1.0,0,0.0
0.165,-0.189138810908105,77.5,0,100,1.0,0,0.0
0.17,-0.22868072635956738,77.5,0,100,1.0,0,0.0
0.175,-0.14104670682394166,77.5,0,100,1.0,0,0.0
0.18,-0.051158381651102834,77.5,0,100,1.0,0,0.0
0.185,-0.008206426846427752,77.5,0,100,1.0,0,0.0
0.19,0.005350271385530505,77.5,0,100,1.0,0,0.0
0.195,0.01084668799215426,77.5,0,100,1.0,0,0.0
0.2,0.016256859896386415,77.5,0,100,1.0,0,0.0
0.205,0.02345021205790711,77.5,0,100,1.0,0,0.0
0.21,0.0330621597308209,77.5,0,100,1.0,0,0.0
0.215,0.04559141319943196,77.5,0,100,1.0,0,0.0
0.22,0.06149084917446989,77.5,0,100,1.0,0,0.0
0.225,0.08111733445924295,77.5,0,100,1.0,0,0.0
0.23,0.1046628598272375,77.5,0,100,1.0,0,0.0
0.235,0.1320831047748631,77.5,0,100,1.0,0,0.0
0.24,0.16303381314489318,77.5,0,100,1.0,0,0.0
0.245,0.19682662652900276,77.5,0,100,1.0,0,0.0
0.25,0.23241585813229,77.5,0,100,1.0,0,0.0
0.255,0.26842527782774417,77.5,0,100,1.0,0,0.0
0.26,0.30321927900592993,77.5,0,100,1.0,0,0.0
0.265,0.3350163137995362,77.5,0,100,1.0,0,0.0
0.27,0.3620352400956416,77.5,0,100,1.0,0,0.0
0.275,0.3826586036805073,77.5,0,100,1.0,0,0.0
0.28,0.39559233134833227,77.5,0,100,1.0,0,0.0
0.285,0.4,77.5,0,100,1.0,0,0.0
0.29,0.39559233134833227,77.5,0,100,1.0,0,0.0
0.295,0.3826586036805073,77.5,0,100,1.0,0,0.0
0.3,0.3620352400956416,77.5,0,100,1.0,0,0.0
0.305,0.3350163137995362,77.5,0,100,1.0,0,0.0
0.31,0.3032192790059296,77.5,0,100,1.0,0,0.0
0.315,0.26842527782774417,77.5,0,100,1.0,0,0.0
0.32,0.23241585813229,77.5,0,100,1.0,0,0.0
0.325,0.19682662652900276,77.5,0,100,1.0,0,0.0
0.33,0.16303381314489318,77.5,0,100,1.0,0,0.0
0.335,0.13208310477486307,77.5,0,100,1.0,0,0.0
0.34,0.10466285982723562,77.5,0,100,1.0,0,0.0
0.345,0.08111733445917907,77.5,0,100,1.0,0,0.0
0.35,0.06149084917398798,77.5,0,100,1.0,0,0.0
0.355,0.04559141333598128,77.5,0,100,1.0,0,0.0
0.36,0.03306217087257399,77.5,0,100,1.0,0,0.0
0.365,0.02345067901074276,77.5,0,100,1.0,0,0.0
0.37,0.016268788896435526,77.5,0,100,1.0,0,0.0
0.375,0.011039026374860051,77.5,0,100,1.0,0,0.0
0.38,0.007326255555493689,77.5,0,100,1.0,0,0.0
0.385,0.0047556414315231815,77.5,0,100,1.0,0,0.0
0.39,0.0030193390635632803,77.5,0,100,1.0,0,0.0
0.395,0.001874953127946523,77.5,0,100,1.0,0,0.0
0.4,0.0011387927410965778,77.5,0,100,1.0,0,0.0
0.405,0.0006765107634274089,77.5,0,100,1.0,0,0.0
0.41,0.00039307957404427924,77.5,0,100,1.0,0,0.0
0.415,0.00022338910511776318,77.5,0,100,1.0,0,0.0
0.42,0.00012417073320013317,77.5,0,100,1.0,0,0.0
0.425,6.750753468904987e-05,77.5,0,100,1.0,0,0.0
0.43,3.5897234866245036e-05,77.5,0,100,1.0,0,0.0
0.435,1.8670050400879738e-05,77.5,0,100,1.0,0,0.0
0.44,9.497421874143672e-06,77.5,0,100,1.0,0,0.0
0.445,4.725434140340885e-06,77.5,0,100,1.0,0,0.0
0.45,2.299606063738814e-06,77.5,0,100,1.0,0,0.0
0.455,1.0945633976635486e-06,77.5,0,100,1.0,0,0.0
0.46,5.095703414287532e-07,77.5,0,100,1.0,0,0.0
0.465,2.3202944964797243e-07,77.5,0,100,1.0,0,0.0
0.47,1.0333746954038608e-07,77.5,0,100,1.0,0,0.0
0.475,4.501406988770349e-08,77.5,0,100,1.0,0,0.0
0.48,0.0,77.5,0,100,1.0,0,0.0
0.485,0.0,77.5,0,100,1.0,0,0.0
0.49,0.0,77.5,0,100,1.0,0,0.0
0.495,0.0,77.5,0,100,1.0,0,0.0
0.5,0.0,77.5,0,100,1.0,0,0.0
0.505,0.0,77.5,0,100,1.0,0,0.0
0.51,0.0,77.5,0,100,1.0,0,0.0
0.515,0.0,77.5,0,100,1.0,0,0.0
0.52,0.0,77.5,0,100,1.0,0,0.0
0.525,0.0,77.5,0,100,1.0,0,0.0
0.53,0.0,77.5,0,100,1.0,0,0.0
0.535,0.0,77.5,0,100,1.0,0,0.0
0.54,0.0,77.5,0,100,1.0,0,0.0
0.545,0.0,77.5,0,100,1.0,0,0.0
0.55,0.0,77.5,0,100,1.0,0,0.0
0.555,0.0,77.5,0,100,1.0,0,0.0
0.56,0.0,77.5,0,100,1.0,0,0.0
0.565,0.0,77.5,0,100,1.0,0,0.0
0.57,0.0,77.5,0,100,1.0,0,0.0
0.575,0.0,77.5,0,100,1.0,0,0.0
0.58,0.0,77.5,0,100,1.0,0,0.0
0.585,0.0,77.5,0,100,1.0,0,0.0
0.59,0.0,77.5,0,100,1.0,0,0.0
0.595,0.0,77.5,0,100,1.0,0,0.0
0.6,0.0,77.5,0,100,1.0,0,0.0
0.605,0.0,77.5,0,100,1.0,0,0.0
0.61,0.0,77.5,0,100,1.0,0,0.0
0.615,0.0,77.5,0,100,1.0,0,0.0
0.62,0.0,77.5,0,100,1.0,0,0.0
0.625,0.0,77.5,0,100,1.0,0,0.0
0.63,0.001684486749771458,77.5,0,100,1.0,0,0.0
0.635,0.00456624331333666,77.5,0,100,1.0,0,0.0
0.64,0.011079731271581421,77.5,0,100,1.0,0,0.0
0.645,0.024064571490409,77.5,0,100,1.0,0,0.0
0.65,0.046784906529573234,77.5,0,100,1.0,0,0.0
0.655,0.08141644351188804,77.5,0,100,1.0,0,0.0
0.66,0.12682276464025305,77.5,0,100,1.0,0,0.0
0.665,0.1768320708657512,77.5,0,100,1.0,0,0.0
0.67,0.22070063230473494,77.5,0,100,1.0,0,0.0
0.675,0.24656126505113576,77.5,0,100,1.0,0,0.0
0.68,0.24656126505724016,77.5,0,100,1.0,0,0.0
0.685,0.220700632329898,77.5,0,100,1.0,0,0.0
0.69,0.17683207093748562,77.5,0,100,1.0,0,0.0
0.695,0.12682276483597799,77.5,0,100,1.0,0,0.0
0.7,0.08141644409447898,77.5,0,100,1.0,0,0.0
0.705,0.04678490952598309,77.5,0,100,1.0,0,0.0
0.71,0.024064605020532023,77.5,0,100,1.0,0,0.0
0.715,0.011080171739334697,77.5,0,100,1.0,0,0.0
0.72,0.004571212771509492,77.5,0,100,1.0,0,0.0
0.725,0.0017299316936037438,77.5,0,100,1.0,0,0.0
0.73,0.0008899431850697582,77.5,0,100,1.0,0,0.0
0.735,0.002128806368910263,77.5,0,100,1.0,0,0.0
0.74,0.009309664818487698,77.5,0,100,1.0,0,0.0
0.745,0.03503263543368747,77.5,0,100,1.0,0,0.0
0.75,0.10606267793605692,77.5,0,100,1.0,0,0.0
0.755,0.25734927343160535,77.5,0,100,1.0,0,0.0
0.76,0.5003202479539708,77.5,0,100,1.0,0,0.0
0.765,0.7793067891790435,77.5,0,100,1.0,0,0.0
0.77,0.9720477407234077,77.5000029632167,1,100,1.0,0,5.867755844249559e-08
0.775,0.967267334488097,77.50000611949993,0,100,1.0,0,1.2117821641611342e-07
0.78,0.7505869905515209,77.5000136661605,0,100,1.0,0,2.706170395714874e-07
0.785,0.4028369574773956,77.50003448761683,0,100,1.0,0,6.829231055424244e-07
0.79,0.04553881263121314,77.50009893563154,0,100,1.0,0,1.9591214166635243e-06
0.795,-0.189138810908105,77.50030887479707,0,100,1.0,0,6.1163326152625205e-06
0.8,-0.22868072635956738,77.50098936987865,0,100,1.0,0,1.9591482745598493e-05
0.805,-0.14104670682394166,77.50311109919818,0,100,1.0,0,6.160592471641763e-05
0.81,-0.051158381651102834,77.50936430658398,0,100,1.0,0,0.00018543181354407307
0.815,-0.008206426846427752,77.52663503308537,0,100,1.0,0,0.0005274263977300939
0.82,0.005350271385530505,77.57113795423459,0,100,1.0,0,0.0014086723610809244
0.825,0.01084668799215426,77.67785621339104,0,100,1.0,0,0.003521905215664127
0.83,0.016256859896386415,77.9156022259755,0,100,1.0,0,0.008229747049019897
0.835,0.02345021205790711,78.4069380257099,0,100,1.0,0,0.017959168825938725
0.84,0.0330621597308209,79.34748987799968,0,100,1.0,0,0.036583957980191636
0.845,0.04559141319943196,81.01228362930992,0,100,1.0,0,0.06955017087742416
0.85,0.06149084917446989,83.73079902637203,0,100,1.0,0,0.12338215893805991
0.855,0.08111733445924295,87.81367872264438,0,100,1.0,0,0.20423126183454224
0.86,0.1046628598272375,93.4288216152286,0,100,1.0,0,0.3154222102025465
0.865,0.1320831047748631,100.45351412056698,0,100,1.0,0,0.4545250320904352
0.87,0.16303381314489318,108.36134960751014,0,100,1.0,0,0.6111158338120819
0.875,0.19682662652900276,116.21652194472324,0,100,1.0,0,0.7666638008856087
0.88,0.23241585813229,122.82360122088085,0,100,1.0,0,0.8974970538788286
0.885,0.26842527782774417,127.01713839847308,0,100,1.0,0,0.9805373940291698
0.89,0.30321927900592993,128.0,0,100,1.0,0,1.0
0.895,0.3350163137995362,125.59701682575721,0,100,1.0,0,0.9524161747674694
0.9,0.3620352400956416,120.3140247604608,0,100,1.0,0,0.8478024705041742
0.905,0.3826586036805073,113.17578272521496,0,100,1.0,0,0.7064511430735635
0.91,0.39559233134833227,105.41460450461524,0,100,1.0,0,0.5527644456359454
0.915,0.4,98.1397912084383,0,100,1.0,0,0.40870873680075837
0.92,0.39559233134833227,92.10783014594557,0,100,1.0,0,0.2892639632860509
0.925,0.3826586036805073,87.64951021194136,0,100,1.0,0,0.2009804002364626
0.93,0.3620352400956416,84.73520644729147,0,100,1.0,0,0.143271414797851
0.935,0.3350163137995362,83.11302488416099,0,100,1.0,0,0.11114900760714837
0.94,0.3032192790059296,82.45012180045974,0,100,1.0,0,0.09802221387048991
0.945,0.26842527782774417,82.43311100444015,0,100,1.0,0,0.09768536642455743
0.95,0.23241585813229,82.8162323398421,0,100,1.0,0,0.10527192752162579
0.955,0.19682662652900276,83.42866618321837,0,100,1.0,0,0.11739933036075977
0.96,0.16303381314489318,84.1600622480566,0,100,1.0,0,0.13188242075359613
0.965,0.13208310477486307,84.940236624999,0,100,1.0,0,0.14733141831681193
0.97,0.10466285982723562,85.72195777553705,0,100,1.0,0,0.1628110450601396
0.975,0.08111733445917907,86.4696633299647,0,100,1.0,0,0.1776170956428654
0.98,0.06149084917398798,87.15353818842898,0,100,1.0,0,0.19115917204809865
0.985,0.04559141333598128,87.74725089071974,0,100,1.0,0,0.2029158592221731
0.99,0.03306217087257399,88.22774168238095,0,100,1.0,0,0.21243052836397924
0.995,0.02345067901074276,88.57593914149084,0,100,1.0,0,0.21932552755427395
1.0,0.016268788896435526,88.77773137510404,0,100,1.0,0,0.2233214133683968
1.005,0.011039026374860051,88.82481855964929,0,100,1.0,0,0.22425383286434233
1.01,0.007326255555493689,88.71524935893723,0,100,1.0,0,0.22208414572152926
1.015,0.0047556414315231815,88.45354650959632,0,100,1.0,0,0.21690191108111528
1.02,0.0030193390635632803,88.05039484238684,0,100,1.0,0,0.20891870975023438
1.025,0.001874953127946523,87.52191701266186,0,100,1.0,0,0.1984538022309279
1.03,0.0011387927410965778,86.88860404516025,0,100,1.0,0,0.18591295138931188
1.035,0.0006765107634274089,86.17399918548756,0,100,1.0,0,0.17176236010866455
1.04,0.00039307957404427924,85.40325259759987,0,100,1.0,0,0.15650005143762127
1.045,0.00022338910511776318,84.60166988532686,0,100,1.0,0,0.14062712644211597
1.05,0.00012417073320013317,83.79336949573046,0,100,1.0,0,0.12462117813327643
1.055,6.750753468904987e-05,83.00014467233905,0,100,1.0,0,0.10891375588790192
1.06,3.5897234866245036e-05,82.2405979846216,0,100,1.0,0,0.09387322741824954
1.065,1.8670050400879738e-05,81.52958456421845,0,100,1.0,0,0.07979375374690006
1.07,9.497421874143672e-06,80.8779681711764,0,100,1.0,0,0.06689045883517634
1.075,4.725434140340885e-06,80.29266578507671,0,100,1.0,0,0.05530031257577638
1.08,2.299606063738814e-06,79.77693434234938,0,100,1.0,0,0.045087808759393624
1.085,1.0945633976635486e-06,79.33083911757771,0,100,1.0,0,0.03625423995203387
1.09,5.095703414287532e-07,78.95183743607637,0,100,1.0,0,0.028749256159928207
1.095,2.3202944964797243e-07,78.63541317800785,0,100,1.0,0,0.022483429267482213
1.1,1.0333746954038608e-07,78.3757053491493,0,100,1.0,0,0.017340699983154448
1.105,4.501406988770349e-08,78.16608584846017,0,100,1.0,0,0.013189818781389513
1.11,0.0,77.99965535153865,0,100,1.0,0,0.00989416537700296
1.115,0.0,77.86964004284735,0,100,1.0,0,0.007319604808858435
1.12,0.0,77.7696842680522,0,100,1.0,0,0.005340282535687178
1.125,0.0,77.69404405685896,0,100,1.0,0,0.0038424565714644857
1.13,0.0,77.63769342762592,0,100,1.0,0,0.0027266025272459243
1.135,0.0,77.59635942692422,0,100,1.0,0,0.0019081074638460122
1.14,0.0,77.56650332172448,0,100,1.0,0,0.0013168974598907444
1.145,0.0,77.54526479938636,0,100,1.0,0,0.0008963326611160258
1.15,0.0,77.53038407321809,0,100,1.0,0,0.0006016648161997493
1.155,0.0,77.52011404975813,0,100,1.0,0,0.0003982980150125725
1.16,0.0,77.51313170683527,0,100,1.0,0,0.0002600337987181626
1.165,0.0,77.50845494854985,0,100,1.0,0,0.0001674247237594887
1.17,0.0,77.5053686969771,0,100,1.0,0,0.00010631083122971762
1.175,0.0,77.50336197861758,0,100,1.0,0,6.6573834011411e-05
1.18,0.0,77.50207629536354,0,100,1.0,0,4.1114759673998586e-05
1.185,0.0,77.5012645949802,0,100,1.0,0,2.5041484756421046e-05
1.19,0.0,77.50075959466382,0,100,1.0,0,1.5041478491465937e-05
1.195,0.0,77.50044996681824,0,100,1.0,0,8.910234024507182e-06
1.2,0.0,77.50026287374051,0,100,1.0,0,5.205420604165783e-06
1.205,0.0,77.50015145445519,0,100,1.0,1,2.9990981226213685e-06
1.21,0.0,77.5000860567684,0,100,1.0,1,1.7040944236790586e-06
1.215,0.0,77.50004822321333,0,100,1.0,1,9.549151153769704e-07
1.22,0.0,77.50002664988816,0,100,1.0,1,5.277205575409182e-07
1.225,0.0,77.50001452455274,0,100,1.0,1,2.87614905726802e-07
1.23,0.0,77.50000780689389,0,100,1.0,1,1.545919582269454e-07
1.235,0.001684486749771458,77.5000041382995,0,100,1.0,1,8.194652479579589e-08
1.24,0.00456624331333666,77.5000021633844,0,100,1.0,1,4.2839294936507795e-08
1.245,0.011079731271581421,77.50000111535623,0,100,1.0,1,2.2086261919461736e-08
1.25,0.024064571490409,77.50000056710259,0,100,1.0,1,1.1229754235419834e-08
1.255,0.046784906529573234,77.5000002843661,0,100,1.0,1,5.631011784469881e-09
1.26,0.08141644351188804,77.50000014062486,0,100,1.0,1,2.784650749811473e-09
1.265,0.12682276464025305,77.5000000685827,0,100,1.0,1,1.3580731346976763e-09
1.27,0.1768320708657512,77.5000000329864,0,100,1.0,1,6.53196168221455e-10
1.275,0.22070063230473494,77.50000001564673,0,100,1.0,1,3.0983631062338077e-10
1.28,0.24656126505113576,77.50000000731949,0,100,1.0,1,1.4494030618170475e-10
1.285,0.24656126505724016,77.5000000033768,0,100,1.0,1,6.686727739170327e-11
1.29,0.220700632329898,77.50000000153638,0,100,1.0,1,3.042332942226998e-11
1.295,0.17683207093748562,77.50000000068938,0,100,1.0,1,1.3651144021567612e-11
1.3,0.12682276483597799,77.50000000030506,0,100,1.0,1,6.0408795677473545e-12
1.305,0.08141644409447898,77.50000000013313,0,100,1.0,1,2.6361839004358887e-12
1.31,0.04678490952598309,77.5000000000573,0,100,1.0,1,1.1346171527068214e-12
1.315,0.024064605020532023,77.50000000002431,0,100,1.0,1,4.81480641934864e-13
1.32,0.011080171739334697,77.50000000001017,0,100,1.0,1,2.0148459358583435e-13
1.325,0.004571212771509492,77.5000000000042,0,100,1.0,1,8.329530684554046e-14
1.33,0.0017299316936037438,77.5000000000017,0,100,1.0,1,3.376836764008397e-14
1.335,0.0008899431850697582,77.50000000000068,0,100,1.0,1,1.3507347056033587e-14
1.34,0.002128806368910263,77.50000000000027,0,100,1.0,1,5.346658209679962e-15
1.345,0.009309664818487698,77.5000000000001,0,100,1.0,1,1.969821445671565e-15
1.35,0.03503263543368747,77.50000000000004,0,100,1.0,1,8.442091910020992e-16
1.355,0.10606267793605692,77.50000000000001,0,100,1.0,1,2.814030636673664e-16
1.36,0.25734927343160535,77.5,0,100,1.0,1,0.0
1.365,0.5003202479539708,77.5,0,100,1.0,1,0.0
1.37,0.7793067891790435,77.5,0,100,1.0,1,0.0
1.375,0.9720477407234077,77.50000296131513,1,100,1.0,1,5.86399036171432e-08
1.38,0.967267334488097,77.50000586669285,0,100,1.0,1,1.1617213555053799e-07
1.385,0.7505869905515209,77.50001243272976,0,100,1.0,1,2.461926685397641e-07
1.39,0.4028369574773956,77.50002929773642,0,100,1.0,1,5.801531964008594e-07
1.395,0.04553881263121314,77.50007764429057,0,100,1.0,1,1.5375107043630377e-06
1.4,-0.189138810908105,77.50022444113267,0,100,1.0,1,4.44437886480865e-06
1.405,-0.22868072635956738,77.5006729999817,0,100,1.0,1,1.3326732310941783e-05
1.41,-0.14104670682394166,77.50200662880097,0,100,1.0,1,3.9735223781586806e-05
1.415,-0.051158381651102834,77.50579382291566,0,100,1.0,1,0.00011472916664679855
1.42,-0.008206426846427752,77.51596845203716,0,100,1.0,1,0.0003162069710328123
1.425,0.005350271385530505,77.54170084907592,0,100,1.0,1,0.0008257593876420391
1.43,0.01084668799215426,77.6027953662103,0,100,1.0,1,0.0020355518061445864
1.435,0.016256859896386415,77.73872856789444,0,100,1.0,1,0.004727298374147344
1.44,0.02345021205790711,78.02178614378205,0,100,1.0,1,0.0103323988867733
1.445,0.0330621597308209,78.57274718688386,0,100,1.0,1,0.02124251855215563
1.45,0.04559141319943196,79.57388842448763,0,100,1.0,1,0.041067097514606625
1.455,0.06149084917446989,81.26947432350076,0,100,1.0,1,0.07464305591090613
1.46,0.08111733445924295,83.94080437983155,0,100,1.0,1,0.1275406807887435
1.465,0.1046628598272375,87.84519714796359,0,100,1.0,1,0.2048553890685859
1.47,0.1320831047748631,93.11939194719336,0,100,1.0,1,0.30929489004343297
1.475,0.16303381314489318,99.66726161123096,0,100,1.0,1,0.4389556754699199
1.48,0.19682662652900276,107.07235404598593,0,100,1.0,1,0.5855911692274443
1.485,0.23241585813229,114.5849217034372,0,100,1.0,1,0.7343548852165783
1.49,0.26842527782774417,121.21893744735634,0,100,1.0,1,0.8657215336110167
1.495,0.30321927900592993,125.95557127067653,0,100,1.0,1,0.9595162627856738
1.5,0.3350163137995362,128.0,0,100,1.0,1,1.0
1.505,0.3620352400956416,127.00381183060969,0,100,1.0,1,0.9802735015962315
1.51,0.3826586036805073,123.16801061856472,0,100,1.0,1,0.9043170419517766
1.515,0.39559233134833227,117.18529630711025,0,100,1.0,1,0.7858474516259455
1.52,0.4,110.04485402705396,0,100,1.0,1,0.6444525549911675
1.525,0.39559233134833227,102.77562642313768,0,100,1.0,1,0.5005074539235185
1.53,0.3826586036805073,96.21947242055211,0,100,1.0,1,0.37068262218915066
1.535,0.3620352400956416,90.90020024825073,0,100,1.0,1,0.2653504999653609
1.54,0.3350163137995362,87.00641379908434,0,100,1.0,1,0.18824581780365035
1.545,0.3032192790059296,84.46183873099395,0,100,1.0,1,0.13785819269294944
1.55,0.26842527782774417,83.03487611005043,0,100,1.0,1,0.10960150712971155
1.555,0.23241585813229,82.44241985324331,0,100,1.0,1,0.09786970006422392
1.56,0.19682662652900276,82.42169421727391,0,100,1.0,1,0.09745929143116652
1.565,0.16303381314489318,82.76468708961895,0,100,1.0,1,0.10425122949740487
1.57,0.13208310477486307,83.3235951857834,0,100,1.0,1,0.11531871655016641
1.575,0.10466285982723562,84.00031938469603,0,100,1.0,1,0.128719195736555
1.58,0.08111733445917907,84.73108731348296,0,100,1.0,1,0.14318984779174176
1.585,0.06149084917398798,85.47276520571721,0,100,1.0,1,0.15787653872707344
1.59,0.04559141333598128,86.19331061043677,0,100,1.0,1,0.17214476456310432
1.595,0.03306217087257399,86.8663022786381,0,100,1.0,1,0.18547133225025944
1.6,0.02345067901074276,87.4684738559012,0,100,1.0,1,0.19739552189903356
1.605,0.016268788896435526,87.97908562508283,0,100,1.0,1,0.2075066460412442
1.61,0.011039026374860051,88.38024238654792,0,100,1.0,1,0.21545034428807763
1.615,0.007326255555493689,88.65758205605593,0,100,1.0,1,0.22094221893180058
1.62,0.0047556414315231815,88.80099727139321,0,100,1.0,1,0.22378212418600424
1.625,0.0030193390635632803,88.80520117714404,0,100,1.0,1,0.22386536984443647
1.63,0.001874953127946523,88.67003626796662,0,100,1.0,1,0.2211888369894381
1.635,0.0011387927410965778,88.40047980988066,0,100,1.0,1,0.21585108534417158
1.64,0.0006765107634274089,88.0063384100501,0,100,1.0,1,0.20804630514950703
1.645,0.00039307957404427924,87.50165555247239,0,100,1.0,1,0.19805258519747299
1.65,0.00022338910511776318,86.90388132771125,0,100,1.0,1,0.18621547183586626
1.655,0.00012417073320013317,86.23287258440021,0,100,1.0,1,0.17292816998812302
1.66,6.750753468904987e-05,85.50980319077796,0,100,1.0,1,0.15860996417382095
1.665,3.5897234866245036e-05,84.75606733504448,0,100,1.0,1,0.14368450168404906
1.67,1.8670050400879738e-05,83.99225397573021,0,100,1.0,1,0.1285594846679249
1.675,9.497421874143672e-06,83.23725872932803,0,100,1.0,1,0.11360908374906997
1.68,4.725434140340885e-06,82.50758243592045,0,100,1.0,1,0.09916004823604861
1.685,2.299606063738814e-06,81.81684561597365,0,100,1.0,1,0.08548209140541876
1.69,1.0945633976635486e-06,81.17552739936477,0,100,1.0,1,0.07278272077950035
1.695,5.095703414287532e-07,80.59091846912776,0,100,1.0,1,0.06120630631936153
1.7,2.3202944964797243e-07,80.06726188020727,0,100,1.0,1,0.05083686891499543
1.705,1.0333746954038608e-07,79.60604444742516,0,100,1.0,1,0.04170385044406262
1.71,4.501406988770349e-08,79.20639523846361,0,100,1.0,1,0.03379000472205176
1.715,0.0,78.86554641438488,0,100,1.0,1,0.027040523057126342
1.72,0.0,78.5793145693633,0,100,1.0,1,0.021372565729966438
1.725,0.0,78.34256681555922,0,100,1.0,1,0.016684491397212346
1.73,0.0,78.14964395113566,0,100,1.0,1,0.012864236656151651
1.735,0.0,77.99472195637934,0,100,1.0,1,0.009796474383749244
1.74,0.0,77.87210174718471,0,100,1.0,1,0.007368351429400293
1.745,0.0,77.77642477883984,0,100,1.0,1,0.005473757996828501
1.75,0.0,77.70281822146181,0,100,1.0,1,0.004016202405184382
1.755,0.0,77.64697778795882,0,100,1.0,1,0.002910451246709265
1.76,0.0,77.60519889581394,0,100,1.0,1,0.002083146451761224
1.765,0.0,77.5743678786863,0,100,1.0,1,0.0014726312611149088
1.77,0.0,77.5519247415339,0,100,1.0,1,0.0010282127036414903
1.775,0.0,77.53580783230012,0,100,1.0,1,0.0007090659861410356
1.78,0.0,77.52438913828057,0,100,1.0,1,0.00048295323327858503
1.785,0.0,77.51640701665087,0,100,1.0,1,0.00032489141882918076
1.79,0.0,77.51090128061816,0,100,1.0,1,0.00021586694293379726
1.795,0.0,77.50715385539726,0,100,1.0,1,0.00014166050291609876
1.8,0.0,77.50463679113156,0,100,1.0,1,9.181764616950303e-05
1.805,0.0,77.50296831267497,0,100,1.0,1,5.877846881120793e-05
1.81,0.0,77.5018767935301,0,100,1.0,1,3.71642283188395e-05
1.815,0.0,77.50117202826756,0,100,1.0,1,2.320848054576498e-05
1.82,0.0,77.50072289365475,0,100,1.0,1,1.4314725836701394e-05
1.825,0.0,77.50044037786004,0,100,1.0,1,8.720353664253563e-06
1.83,0.0,77.50026496668872,0,100,1.0,1,5.246865123128805e-06
1.835,0.0,77.50015746056945,0,100,1.0,1,3.118031078303271e-06
1.84,0.0,77.50009242024059,0,100,1.0,1,1.8301037740830808e-06
1.845,0.0,77.50005357684176,0,100,1.0,1,1.060927559700587e-06
1.85,0.0,77.50003067622127,0,100,1.0,1,6.074499261706811e-07
1.855,0.0,77.50001734767797,0,100,1.0,1,3.4351837560207777e-07
1.86,0.0,77.50000968937087,0,100,1.0,1,1.9186873010082785e-07
1.865,0.0,77.5000053452072,0,100,1.0,1,1.0584568711931184e-07
1.87,0.0,77.50000291238139,0,100,1.0,1,5.767091861929261e-08
1.875,0.001684486749771458,77.50000156728035,0,100,1.0,1,3.1035254454367857e-08
1.88,0.00456624331333666,77.50000083302851,0,100,1.0,1,1.6495614027638176e-08
1.885,0.011079731271581421,77.50000043730836,0,100,1.0,1,8.65957145374568e-09
1.89,0.024064571490409,77.5000002267412,0,100,1.0,1,4.489924612523219e-09
1.895,0.046784906529573234,77.50000011611486,0,100,1.0,1,2.2993041925879466e-09
1.9,0.08141644351188804,77.50000005873,0,100,1.0,1,1.1629701997896906e-09
1.905,0.12682276464025305,77.5000000293391,0,100,1.0,1,5.809723835128433e-10
1.91,0.1768320708657512,77.500000014476,0,100,1.0,1,2.8665348202927213e-10
1.915,0.22070063230473494,77.50000000705448,0,100,1.0,1,1.396927018504357e-10
1.92,0.24656126505113576,77.50000000339544,0,100,1.0,1,6.723647821123485e-11
1.925,0.24656126505724016,77.50000000161414,0,100,1.0,1,3.1963166986657814e-11
1.93,0.220700632329898,77.50000000075788,0,100,1.0,1,1.500750678844432e-11
1.935,0.17683207093748562,77.50000000035146,0,100,1.0,1,6.959660570621306e-12
1.94,0.12682276483597799,77.50000000016098,0,100,1.0,1,3.1877339052239267e-12
1.945,0.08141644409447898,77.50000000007282,0,100,1.0,1,1.4419092982315855e-12
1.95,0.04678490952598309,77.50000000003254,0,100,1.0,1,6.444130157982691e-13
1.955,0.024064605020532023,77.50000000001435,0,100,1.0,1,2.8421709430404007e-13
1.96,0.011080171739334697,77.50000000000625,0,100,1.0,1,1.2381734801364123e-13
1.965,0.004571212771509492,77.5000000000027,0,100,1.0,1,5.3466582096799615e-14
1.97,0.0017299316936037438,77.50000000000115,0,100,1.0,1,2.279364815705668e-14
1.975,0.0008899431850697582,77.50000000000048,0,100,1.0,1,9.567704164690459e-15
1.98,0.002128806368910263,77.5000000000002,0,100,1.0,1,3.93964289134313e-15
1.985,0.009309664818487698,77.50000000000009,0,100,1.0,1,1.6884183820041984e-15
1.99,0.03503263543368747,77.50000000000003,0,100,1.0,1,5.628061273347328e-16
1.995,0.10606267793605692,77.50000000000001,0,100,1.0,1,2.814030636673664e-16
2.0,0.25734927343160535,77.5,0,100,1.0,1,0.0
2.005,0.5003202479539708,77.5,0,100,1.0,1,0.0
2.01,0.7793067891790435,77.5,0,100,1.0,1,0.0
2.015,0.9720477407234077,77.50000295858521,1,100,1.0,1,5.858584580720963e-08
2.02,0.967267334488097,77.50000627158161,0,100,1.0,1,1.2418973487865964e-07
2.025,0.7505869905515209,77.50001448202111,0,100,1.0,1,2.867726953417611e-07
2.03,0.4028369574773956,77.5000381880034,0,100,1.0,1,7.56198087153937e-07
2.035,0.04553881263121314,77.50011515393722,0,100,1.0,1,2.2802759844742666e-06
2.04,-0.189138810908105,77.5003768133724,0,100,1.0,1,7.461650938574905e-06
2.045,-0.22868072635956738,77.50125530195008,0,100,1.0,1,2.4857464358047304e-05
2.05,-0.14104670682394166,77.50407161723201,0,100,1.0,1,8.062608380226824e-05
2.055,-0.051158381651102834,77.5125498908563,0,100,1.0,1,0.00024851269022388076
2.06,-0.008206426846427752,77.53632357375037,0,100,1.0,1,0.0007192786881260548
2.065,0.005350271385530505,77.59816032657108,0,100,1.0,1,0.0019437688429916036
2.07,0.01084668799215426,77.74699421583978,0,100,1.0,1,0.004890974571084695
2.075,0.016256859896386415,78.0778955905149,0,100,1.0,1,0.011443477039898991
2.08,0.02345021205790711,78.75638253739591,0,100,1.0,1,0.024878862126651635
2.085,0.0330621597308209,80.03714578164362,0,100,1.0,1,0.050240510527596365
2.09,0.04559141319943196,82.2581074321164,0,100,1.0,1,0.09421994915081988
2.095,0.06149084917446989,85.78593960996649,0,100,1.0,1,0.16407801207854436
2.1,0.08111733445924295,90.89811556558197,0,100,1.0,1,0.26530921912043515
2.105,0.1046628598272375,97.61546592808551,0,100,1.0,1,0.39832605798189136
2.11,0.1320831047748631,105.5415466537269,0,100,1.0,1,0.5552781515589484
2.115,0.16303381314489318,113.79708988561208,0,100,1.0,1,0.7187542551606353
2.12,0.19682662652900276,121.12822094684294,0,100,1.0,1,0.8639251672642168
2.125,0.23241585813229,126.20143333597863,0,100,1.0,1,0.9643848185342304
2.13,0.26842527782774417,128.0,0,100,1.0,1,1.0
2.135,0.30321927900592993,126.16275066678318,0,100,1.0,1,0.9636188250848154
2.14,0.3350163137995362,121.1116044575634,0,100,1.0,1,0.8635961278725426
2.145,0.3620352400956416,113.90717007869759,0,100,1.0,1,0.7209340609643087
2.15,0.3826586036805073,105.90088318147954,0,100,1.0,1,0.5623937263659315
2.155,0.39559233134833227,98.34046706321053,0,100,1.0,1,0.41268251610317874
2.16,0.4,92.08499814602648,0,100,1.0,1,0.28881184447577185
2.165,0.39559233134833227,87.50864038323002,0,100,1.0,1,0.1981908986778221
2.17,0.3826586036805073,84.57442275691706,0,100,1.0,1,0.14008757934489227
2.175,0.3620352400956416,82.99710802083918,0,100,1.0,1,0.10885362417503323
2.18,0.3350163137995362,82.40804661099806,0,100,1.0,1,0.09718904180194171
2.185,0.3032192790059296,82.46851319639717,0,100,1.0,1,0.0983863999286568
2.19,0.26842527782774417,82.92004890238644,0,100,1.0,1,0.10732770103735526
2.195,0.23241585813229,83.58796849171559,0,100,1.0,1,0.12055383151912051
2.2,0.19682662652900276,84.36197804515345,0,100,1.0,1,0.13588075336937525
2.205,0.16303381314489318,85.17248310799981,0,100,1.0,1,0.15193035857425366
2.21,0.13208310477486307,85.97196310008664,0,100,1.0,1,0.1677616455462701
2.215,0.10466285982723562,86.72363196440325,0,100,1.0,1,0.18264617751293571
2.22,0.08111733445917907,87.39605351764324,0,100,1.0,1,0.1959614557949156
2.225,0.06149084917398798,87.9615095120021,0,100,1.0,1,0.20715860419806129
2.23,0.04559141333598128,88.39629447802281,0,100,1.0,1,0.2157682074856002
2.235,0.03306217087257399,88.6817572080628,0,100,1.0,1,0.22142093481312486
2.24,0.02345067901074276,88.80541912343043,0,100,1.0,1,0.2238696856124837
2.245,0.016268788896435526,88.761813641984,0,100,1.0,1,0.22300621073235655
2.25,0.011039026374860051,88.55286824522712,0,100,1.0,1,0.21886867812330923
2.255,0.007326255555493689,88.18775826412227,0,100,1.0,1,0.2116387775073716
2.26,0.0047556414315231815,87.68223746822366,0,100,1.0,1,0.20162846471730023
2.265,0.0030193390635632803,87.05751062541435,0,100,1.0,1,0.18925763614681884
2.27,0.001874953127946523,86.33875969754904,0,100,1.0,1,0.17502494450592151
2.275,0.0011387927410965778,85.55346606508107,0,100,1.0,1,0.15947457554615976
2.28,0.0006765107634274089,84.72968388537797,0,100,1.0,1,0.14316205713619734
2.285,0.00039307957404427924,83.8944140290608,0,100,1.0,1,0.12662205998140194
2.29,0.00022338910511776318,83.07220603434823,0,100,1.0,1,0.11034071355145003
2.295,0.00012417073320013317,82.2840812711329,0,100,1.0,1,0.09473428259669119
2.3,6.750753468904987e-05,81.54682943609703,0,100,1.0,1,0.08013523635835698
2.305,3.5897234866245036e-05,80.87268841585063,0,100,1.0,1,0.06678590922476499
2.31,1.8670050400879738e-05,80.26937973963246,0,100,1.0,1,0.054839202764999116
2.315,9.497421874143672e-06,79.7404423296401,0,100,1.0,1,0.04436519464633868
2.32,4.725434140340885e-06,79.28578839837682,0,100,1.0,1,0.03536214650251135
2.325,2.299606063738814e-06,78.90239771037702,0,100,1.0,1,0.02777025169063399
2.33,1.0945633976635486e-06,78.58506900977153,0,100,1.0,1,0.021486515044980795
2.335,5.095703414287532e-07,78.32715803895881,0,100,1.0,1,0.016379367108095323
2.34,2.3202944964797243e-07,78.12124742111936,0,100,1.0,1,0.012301929131076509
2.345,1.0333746954038608e-07,77.95971182173484,0,100,1.0,1,0.009103204390788959
2.35,4.501406988770349e-08,77.83515963913185,0,100,1.0,1,0.006636824537264261
2.355,0.0,77.74074802073012,0,100,1.0,1,0.004767287539210363
2.36,0.0,77.67038003596295,0,100,1.0,1,0.003373862098276232
2.365,0.0,77.61880087924757,0,100,1.0,1,0.0023524926583677777
2.37,0.0,77.5816141709287,0,100,1.0,1,0.001616122196607968
2.375,0.0,77.5552403549693,0,100,1.0,1,0.0010938684152336571
2.38,0.0,77.53683768391573,0,100,1.0,1,0.0007294590874402959
2.385,0.0,77.52420321967791,0,100,1.0,1,0.00047927167679039497
2.39,0.0,77.51566747236087,0,100,1.0,1,0.0003102469774430597
2.395,0.0,77.50999239747283,0,100,1.0,1,0.00019786925688769166
2.4,0.0,77.50627892699517,0,100,1.0,1,0.00012433518802307088
2.405,0.0,77.50388728278739,0,100,1.0,1,7.697589677997649e-05
2.41,0.0,77.50237111056772,0,100,1.0,2,4.695268450935074e-05
2.415,0.0,77.50142495925365,0,100,1.0,2,2.8217014923849084e-05
2.42,0.0,77.5008437194384,0,100,1.0,2,1.6707315611742756e-05
2.425,0.0,77.50049219662667,0,100,1.0,2,9.746467854781015e-06
2.43,0.0,77.50028289428887,0,100,1.0,2,5.601867106388634e-06
2.435,0.0,77.500160197117,0,100,1.0,2,3.172220138565373e-06
2.44,0.0,77.50008937790716,0,100,1.0,2,1.769859547701092e-06
2.445,0.0,77.50004913043793,0,100,1.0,2,9.728799590006794e-07
2.45,0.0,77.50002660823445,0,100,1.0,2,5.268957316743446e-07
2.455,0.0,77.50001419797643,0,100,1.0,2,2.811480480503822e-07
2.46,0.001684486749771458,77.50000746417498,0,100,1.0,2,1.4780544524280167e-07
2.465,0.00456624331333666,77.50000386618065,0,100,1.0,2,7.6558032643865e-08
2.47,0.011079731271581421,77.50000197300162,0,100,1.0,2,3.906933893676528e-08
2.475,0.024064571490409,77.5000009920138,0,100,1.0,2,1.9643837535707885e-08
2.48,0.046784906529573234,77.50000049142014,0,100,1.0,2,9.731091848710877e-09
2.485,0.08141644351188804,77.50000023984637,0,100,1.0,2,4.749433110821946e-09
2.49,0.12682276464025305,77.50000011533426,0,100,1.0,2,2.2838467223006982e-09
2.495,0.1768320708657512,77.50000005464224,0,100,1.0,2,1.0820246085257727e-09
2.5,0.22070063230473494,77.50000002550607,0,100,1.0,2,5.050706607620992e-10
2.505,0.24656126505113576,77.50000001173015,0,100,1.0,2,2.3228021926133627e-10
2.51,0.24656126505724016,77.50000000531507,0,100,1.0,2,1.0524896685755005e-10
2.515,0.220700632329898,77.50000000237279,0,100,1.0,2,4.698586954054017e-11
2.52,0.17683207093748562,77.50000000104365,0,100,1.0,2,2.066624099573139e-11
2.525,0.12682276483597799,77.50000000045226,0,100,1.0,2,8.955652501213936e-12
2.53,0.08141644409447898,77.5000000001931,0,100,1.0,2,3.823704829112175e-12
2.535,0.04678490952598309,77.50000000008123,0,100,1.0,2,1.6084999119226663e-12
2.54,0.024064605020532023,77.50000000003367,0,100,1.0,2,6.66643857827991e-13
2.545,0.011080171739334697,77.50000000001374,0,100,1.0,2,2.7211676256634333e-13
2.55,0.004571212771509492,77.50000000000553,0,100,1.0,2,1.0946579176660553e-13
2.555,0.0017299316936037438,77.50000000000219,0,100,1.0,2,4.333607180477443e-14
2.56,0.0008899431850697582,77.50000000000085,0,100,1.0,2,1.6884183820041984e-14
2.565,0.002128806368910263,77.50000000000033,0,100,1.0,2,6.472270464349428e-15
2.57,0.009309664818487698,77.50000000000013,0,100,1.0,2,2.5326275730062976e-15
2.575,0.03503263543368747,77.50000000000004,0,100,1.0,2,8.442091910020992e-16
2.58,0.10606267793605692,77.50000000000001,0,100,1.0,2,2.814030636673664e-16
2.585,0.25734927343160535,77.5,0,100,1.0,2,0.0
2.59,0.5003202479539708,77.5,0,100,1.0,2,0.0
2.595,0.7793067891790435,77.5,0,100,1.0,2,0.0
2.6,0.9720477407234077,77.50000297456887,1,100,1.0,2,5.890235390306951e-08
2.605,0.967267334488097,77.5000062222234,0,100,1.0,2,1.2321234465270038e-07
2.61,0.7505869905515209,77.50001412492644,0,100,1.0,2,2.797015136113962e-07
2.615,0.4028369574773956,77.50003641983405,0,100,1.0,2,7.211848326008267e-07
2.62,0.04553881263121314,77.50010706994215,0,100,1.0,2,2.1201968741812684e-06
2.625,-0.189138810908105,77.50034212581059,0,100,1.0,2,6.774768526539258e-06
2.63,-0.22868072635956738,77.5011174452075,0,100,1.0,2,2.212762787125219e-05
2.635,-0.14104670682394166,77.50356855475515,0,100,1.0,2,7.066445059699122e-05
2.64,-0.051158381651102834,77.51086963859841,0,100,1.0,2,0.00021524036828529712
2.645,-0.008206426846427752,77.53118939740251,0,100,1.0,2,0.0006176118297527509
2.65,0.005350271385530505,77.5838025515997,0,100,1.0,2,0.001659456467320855
2.655,0.01084668799215426,77.71022945889035,0,100,1.0,2,0.004162959581987194
2.66,0.016256859896386415,77.99167912939262,0,100,1.0,2,0.009736220384012324
2.665,0.02345021205790711,78.5712635147241,0,100,1.0,2,0.021213138905427614
2.67,0.0330621597308209,79.67352667251653,0,100,1.0,2,0.043040132129040204
2.675,0.04559141319943196,81.60576661164305,0,100,1.0,2,0.0813023091414465
2.68,0.06149084917446989,84.71992636449431,0,100,1.0,2,0.1429688389008775
2.685,0.08111733445924295,89.3182428616724,0,100,1.0,2,0.23402461112222578
2.69,0.1046628598272375,95.50702080839233,0,100,1.0,2,0.3565746694731154
2.695,0.1320831047748631,103.03863252038366,0,100,1.0,2,0.5057154954531418
2.7,0.16303381314489318,111.21541053963608,0,100,1.0,2,0.6676318918739819
2.705,0.19682662652900276,118.93384620768896,0,100,1.0,2,0.8204722021324546
2.71,0.23241585813229,124.90436853284245,0,100,1.0,2,0.9387003669869793
2.715,0.26842527782774417,128.0,0,100,1.0,2,1.0
2.72,0.30321927900592993,127.60820170828875,0,100,1.0,2,0.9922416179859158
2.725,0.3350163137995362,123.83638395652297,0,100,1.0,2,0.9175521575549102
2.73,0.3620352400956416,117.47746650268306,0,100,1.0,2,0.7916330000531299
2.735,0.3826586036805073,109.75136675254107,0,100,1.0,2,0.6386409257928926
2.74,0.39559233134833227,101.93854206075709,0,100,1.0,2,0.48393152595558586
2.745,0.4,95.05631336589965,0,100,1.0,2,0.34764976962177535
2.75,0.39559233134833227,89.68561676959516,0,100,1.0,2,0.24129934197218134
2.755,0.3826586036805073,85.97066202095813,0,100,1.0,2,0.1677358816031313
2.76,0.3620352400956416,83.73963639863871,0,100,1.0,2,0.1235571564086873
2.765,0.3350163137995362,82.66506980421391,0,100,1.0,2,0.10227860998443394
2.77,0.3032192790059296,82.39769679500384,0,100,1.0,2,0.09698409495057106
2.775,0.26842527782774417,82.64426327774376,0,100,1.0,2,0.1018665995592824
2.78,0.23241585813229,83.1925217979524,0,100,1.0,2,0.1127232039198494
2.785,0.19682662652900276,83.90296821666257,0,100,1.0,2,0.12679144983490243
2.79,0.16303381314489318,84.68768921939152,0,100,1.0,2,0.1423304795919112
2.795,0.13208310477486307,85.48964936969762,0,100,1.0,2,0.15821087860787358
2.8,0.10466285982723562,86.2679527426403,0,100,1.0,2,0.1736228265869367
2.805,0.08111733445917907,86.9895179409416,0,100,1.0,2,0.18791124635527912
2.81,0.06149084917398798,87.62548740634166,0,100,1.0,2,0.20050470111567648
2.815,0.04559141333598128,88.15044219056064,0,100,1.0,2,0.21089984535763642
2.82,0.03306217087257399,88.54297359153537,0,100,1.0,2,0.21867274438683904
2.825,0.02345067901074276,88.78671463080131,0,100,1.0,2,0.22349929961982798
2.83,0.016268788896435526,88.87133001885871,0,100,1.0,2,0.2251748518585884
2.835,0.011039026374860051,88.79319881643394,0,100,1.0,2,0.2236276993353256
2.84,0.007326255555493689,88.55565877970061,0,100,1.0,2,0.2189239362316952
2.845,0.0047556414315231815,88.168766505288,0,100,1.0,2,0.21126270307501
2.85,0.0030193390635632803,87.64859039083257,0,100,1.0,2,0.20096218595708054
2.855,0.001874953127946523,87.01610373171393,0,100,1.0,2,0.18843769765770152
2.86,0.0011387927410965778,86.29578368219154,0,100,1.0,2,0.1741739343008226
2.865,0.0006765107634274089,85.51404620349248,0,100,1.0,2,0.15869398422757394
2.87,0.00039307957404427924,84.69765577968232,0,100,1.0,2,0.1425278372214321
2.875,0.00022338910511776318,83.87224160225274,0,100,1.0,2,0.12618300202480678
2.88,0.00012417073320013317,83.06103109428663,0,100,1.0,2,0.1101194276096363
2.885,6.750753468904987e-05,82.28388071988795,0,100,1.0,2,0.09473031128490983
2.89,3.5897234866245036e-05,81.5566476806962,0,100,1.0,2,0.08032965704348914
2.895,1.8670050400879738e-05,80.89090926252491,0,100,1.0,2,0.06714671806980028
2.9,9.497421874143672e-06,80.29400369189199,0,100,1.0,2,0.05532680578003935
2.905,4.725434140340885e-06,79.76934075119777,0,100,1.0,2,0.0449374406177777
2.91,2.299606063738814e-06,79.316914026084,0,100,1.0,2,0.03597849556601993
2.915,1.0945633976635486e-06,78.93393997639421,0,100,1.0,2,0.02839485101770721
2.92,5.095703414287532e-07,78.615551171725,0,100,1.0,2,0.02209012221237628
2.925,2.3202944964797243e-07,78.35548017624241,0,100,1.0,2,0.016940201509750674
2.93,1.0333746954038608e-07,78.14668432330618,0,100,1.0,2,0.012805630164478717
2.935,4.501406988770349e-08,77.98187749628777,0,100,1.0,2,0.009542128639361692
2.94,0.0,77.85395079052064,0,100,1.0,2,0.007008926544963209
2.945,0.0,77.7562778414269,0,100,1.0,2,0.005074808741126601
2.95,0.0,77.68291156154915,0,100,1.0,2,0.003622011119785098
2.955,0.0,77.62868655855223,0,100,1.0,2,0.002548248684202616
2.96,0.0,77.58924566817144,0,100,1.0,2,0.001767240953889971
2.965,0.0,77.56101028213665,0,100,1.0,2,0.0012081243987455367
2.97,0.0,77.5411131592637,0,100,1.0,2,0.0008141219656178606
2.975,0.0,77.52730993064118,0,100,1.0,2,0.0005407907057659567
2.98,0.0,77.51788225456453,0,100,1.0,2,0.0003541040507826946
2.985,0.0,77.51154212778609,0,100,1.0,2,0.00022855698586309104
2.99,0.0,77.50734364057384,0,100,1.0,2,0.00014541862522448112
2.995,0.0,77.5046057342584,0,100,1.0,2,9.120265858227597e-05
3.0,0.0,77.50284739861534,0,100,1.0,2,5.638413099691746e-05
3.005,0.0,77.5017352401662,0,100,1.0,2,3.436119140986301e-05
3.01,0.0,77.50104239625774,0,100,1.0,2,2.0641510054353e-05
3.015,0.0,77.50061725984372,0,100,1.0,2,1.2222967202410697e-05
3.02,0.0,77.50036030072403,0,100,1.0,2,7.134667802491473e-06
3.025,0.0,77.50020731187256,0,100,1.0,2,4.1051855952004966e-06
3.03,0.0,77.50011758316428,0,100,1.0,2,2.3283794907438456e-06
3.035,0.0,77.50006573974899,0,100,1.0,2,1.3017772077280752e-06
3.04,0.0,77.50003623037833,0,100,1.0,2,7.174332342113456e-07
3.045,0.0,77.50001968247125,0,100,1.0,2,3.8975190589121443e-07
3.05,0.0,77.5000105401869,0,100,1.0,2,2.0871657240361558e-07
3.055,0.001684486749771458,77.50000556389502,0,100,1.0,2,1.1017613892723638e-07
3.06,0.00456624331333666,77.50000289515268,0,100,1.0,2,5.732975595681565e-08
3.065,0.011079731271581421,77.50000148499826,0,100,1.0,2,2.9405906233667265e-08
3.07,0.024064571490409,77.50000075083126,0,100,1.0,2,1.486794578322768e-08
3.075,0.046784906529573234,77.50000037421457,0,100,1.0,2,7.410189408180333e-09
3.08,0.08141644351188804,77.50000018384885,0,100,1.0,2,3.6405713735172804e-09
3.085,0.12682276464025305,77.50000008903548,0,100,1.0,2,1.7630788358411057e-09
3.09,0.1768320708657512,77.50000004250376,0,100,1.0,2,8.416585536330182e-10
3.095,0.22070063230473494,77.50000002000107,0,100,1.0,2,3.9606074195863487e-10
3.1,0.24656126505113576,77.50000000927771,0,100,1.0,2,1.837170855489405e-10
3.105,0.24656126505724016,77.5000000042422,0,100,1.0,2,8.400387975985489e-11
3.11,0.220700632329898,77.50000000191207,0,100,1.0,2,3.786278221644415e-11
3.115,0.17683207093748562,77.50000000084952,0,100,1.0,2,1.6822275146035165e-11
3.12,0.12682276483597799,77.50000000037205,0,100,1.0,2,7.36741360987532e-12
3.125,0.08141644409447898,77.50000000016063,0,100,1.0,2,3.1806988286322427e-12
3.13,0.04678490952598309,77.50000000006835,0,100,1.0,2,1.3535487362400324e-12
3.135,0.024064605020532023,77.50000000002868,0,100,1.0,2,5.678713824807455e-13
3.14,0.011080171739334697,77.50000000001185,0,100,1.0,2,2.346901550985836e-13
3.145,0.004571212771509492,77.50000000000483,0,100,1.0,2,9.567704164690458e-14
3.15,0.0017299316936037438,77.50000000000195,0,100,1.0,2,3.85522197224292e-14
3.155,0.0008899431850697582,77.50000000000077,0,100,1.0,2,1.5195765438037787e-14
3.16,0.002128806368910263,77.5000000000003,0,100,1.0,2,5.909464337014694e-15
3.165,0.009309664818487698,77.50000000000011,0,100,1.0,2,2.2512245093389313e-15
3.17,0.03503263543368747,77.50000000000004,0,100,1.0,2,8.442091910020992e-16
3.175,0.10606267793605692,77.50000000000001,0,100,1.0,2,2.814030636673664e-16
3.18,0.25734927343160535,77.5,0,100,1.0,2,0.0
3.185,0.5003202479539708,77.5,0,100,1.0,2,0.0
3.19,0.7793067891790435,77.5,0,100,1.0,2,0.0
3.195,0.9720477407234077,77.50000295858096,1,100,1.0,2,5.85857616676936e-08
3.2,0.967267334488097,77.50000649780915,0,100,1.0,2,1.2866948817744662e-07
3.205,0.7505869905515209,77.50001571079831,0,100,1.0,2,3.111049170006436e-07
3.21,0.4028369574773956,77.50004401685699,0,100,1.0,2,8.716209304854448e-07
3.215,0.04553881263121314,77.50014199796655,0,100,1.0,2,2.8118409218087877e-06
3.22,-0.189138810908105,77.50049432191162,0,100,1.0,2,9.7885527052898e-06
3.225,-0.22868072635956738,77.50173211644027,0,100,1.0,2,3.42993354508107e-05
3.23,-0.14104670682394166,77.50584288582245,0,100,1.0,2,0.00011570070935536563
3.235,-0.051158381651102834,77.51854730297484,0,100,1.0,2,0.00036727332623441534
3.24,-0.008206426846427752,77.55481496280055,0,100,1.0,2,0.001085444807931663
3.245,0.005350271385530505,77.65008419708057,0,100,1.0,2,0.0029719642986252228
3.25,0.01084668799215426,77.87981851286148,0,100,1.0,2,0.00752115867052428
3.255,0.016256859896386415,78.38742298606793,0,100,1.0,2,0.017572732397384796
3.26,0.02345021205790711,79.41315942805718,0,100,1.0,2,0.03788434511004326
3.265,0.0330621597308209,81.30460163111171,0,100,1.0,2,0.0753386461606279
3.27,0.04559141319943196,84.47809489490693,0,100,1.0,2,0.1381800969288501
3.275,0.06149084917446989,89.30317826768169,0,100,1.0,2,0.23372630233033045
3.28,0.08111733445924295,95.91109716494718,0,100,1.0,2,0.36457618148410254
3.285,0.1046628598272375,103.98360250134391,0,100,1.0,2,0.5244277723038397
3.29,0.1320831047748631,112.63196549089727,0,100,1.0,2,0.6956824849682628
3.295,0.16303381314489318,120.48176915990015,0,100,1.0,2,0.851124141780201
3.3,0.19682662652900276,126.00411814452141,0,100,1.0,2,0.960477587020226
3.305,0.23241585813229,128.0,0,100,1.0,2,1.0
3.31,0.26842527782774417,126.03166825490115,0,100,1.0,2,0.9610231337604188
3.315,0.30321927900592993,120.59024835370354,0,100,1.0,2,0.8532722446277929
3.32,0.3350163137995362,112.91318697147013,0,100,1.0,2,0.7012512271578243
3.325,0.3620352400956416,104.54533238728061,0,100,1.0,2,0.5355511363817943
3.33,0.3826586036805073,96.85710937740994,0,100,1.0,2,0.38330909658237505
3.335,0.39559233134833227,90.72270386050883,0,100,1.0,2,0.2618357200100758
3.34,0.4,86.44535081746378,0,100,1.0,2,0.17713565975175793
3.345,0.39559233134833227,83.88417312505604,0,100,1.0,2,0.12641926980308985
3.35,0.3826586036805073,82.66571321886003,0,100,1.0,2,0.10229135086851553
3.355,0.3620352400956416,82.37202450792604,0,100,1.0,2,0.09647573283021865
3.36,0.3350163137995362,82.65192834843367,0,100,1.0,2,0.10201838313730041
3.365,0.3032192790059296,83.25634189984378,0,100,1.0,2,0.11398696831373813
3.37,0.26842527782774417,84.0264242558057,0,100,1.0,2,0.12923612387734046
3.375,0.23241585813229,84.86484526486245,0,100,1.0,2,0.1458385200962862
3.38,0.19682662652900276,85.70909511705845,0,100,1.0,2,0.16255633895165253
3.385,0.16303381314489318,86.51374059129739,0,100,1.0,2,0.17848991269895825
3.39,0.13208310477486307,87.24132622835091,0,100,1.0,2,0.19289754907625573
3.395,0.10466285982723562,87.85911768203138,0,100,1.0,2,0.20513104320854222
3.4,0.08111733445917907,88.33897458047528,0,100,1.0,2,0.2146331600094115
3.405,0.06149084917398798,88.65851542478347,0,100,1.0,2,0.22096070148086086
3.41,0.04559141333598128,88.80252600599808,0,100,1.0,2,0.22381239615837772
3.415,0.03306217087257399,88.76406271594287,0,100,1.0,2,0.22305074685035386
3.42,0.02345067901074276,88.5449807473852,0,100,1.0,2,0.21871249004723162
3.425,0.016268788896435526,88.15577906783629,0,100,1.0,2,0.21100552609576817
3.43,0.011039026374860051,87.61476482243962,0,100,1.0,2,0.20029237272157674
3.435,0.007326255555493689,86.94662571979583,0,100,1.0,2,0.18706189544150165
3.44,0.0047556414315231815,86.18056443389439,0,100,1.0,2,0.17189236502761168
3.445,0.0030193390635632803,85.34819090517139,0,100,1.0,2,0.15540972089448302
3.45,0.001874953127946523,84.48138340308783,0,100,1.0,2,0.13824521590272937
3.455,0.0011387927410965778,83.61031721315373,0,100,1.0,2,0.1209963804584898
3.46,0.0006765107634274089,82.7618245365926,0,100,1.0,2,0.10419454527906136
3.465,0.00039307957404427924,81.9581974975489,0,100,1.0,2,0.08828113856532464
3.47,0.00022338910511776318,81.21648669901883,0,100,1.0,2,0.07359379602017485
3.475,0.00012417073320013317,80.54828942211552,0,100,1.0,2,0.06036216677456468
3.48,6.750753468904987e-05,79.95997193468784,0,100,1.0,2,0.04871231553837313
3.485,3.5897234866245036e-05,79.45323475258576,0,100,1.0,2,0.038677915892787275
3.49,1.8670050400879738e-05,79.02591053115628,0,100,1.0,2,0.030216050121906632
3.495,9.497421874143672e-06,78.67288122682059,0,100,1.0,2,0.023225370828130552
3.5,4.725434140340885e-06,78.38701167635604,0,100,1.0,2,0.01756458765061463
3.505,2.299606063738814e-06,78.16001677799984,0,100,1.0,2,0.013069639168313722
3.51,1.0945633976635486e-06,77.98320447949557,0,100,1.0,2,0.009568405534565727
3.515,5.095703414287532e-07,77.84806252373428,0,100,1.0,2,0.0068923272026591076
3.52,2.3202944964797243e-07,77.74667998599702,0,100,1.0,2,0.0048847521979607815
3.525,1.0333746954038608e-07,77.6720128543322,0,100,1.0,2,0.0034061951352909866
3.53,4.501406988770349e-08,77.61801527615162,0,100,1.0,2,0.002336936161418297
3.535,0.0,77.5796646933126,0,100,1.0,2,0.0015775186794573105
3.54,0.0,77.5529107463042,0,100,1.0,2,0.0010477375505783498
3.545,0.0,77.53457579886194,0,100,1.0,2,0.000684669284394789
3.55,0.0,77.52223058524193,0,100,1.0,2,0.00044020960875105396
3.555,0.0,77.51406306247611,0,100,1.0,2,0.00027847648467547634
3.56,0.0,77.50875304685681,0,100,1.0,2,0.00017332766053089986
3.565,0.0,77.50536029803884,0,100,1.0,2,0.00010614451562054735
3.57,0.0,77.50322975038792,0,100,1.0,2,6.395545322606727e-05
3.575,0.0,77.501914693741,0,100,1.0,2,3.791472754455348e-05
3.58,0.0,77.50111681184963,0,100,1.0,2,2.211508613123163e-05
3.585,0.0,77.50064093065815,0,100,1.0,2,1.2691696200995961e-05
3.59,0.0,77.50036190319393,0,100,1.0,2,7.166399879875231e-06
3.595,0.0,77.50020105927997,0,100,1.0,2,3.981371880663213e-06
3.6,0.0,77.50010990214456,0,100,1.0,2,2.1762800902634618e-06
3.605,0.0,77.5000591069498,0,100,1.0,2,1.1704346496180103e-06
3.61,0.0,77.50003127672464,0,100,1.0,2,6.193410820062559e-07
3.615,0.001684486749771458,77.5000162837461,0,100,1.0,3,3.2245041794421114e-07
3.62,0.00456624331333666,77.50000834137632,0,100,1.0,3,1.651757686139006e-07
3.625,0.011079731271581421,77.50000420408458,0,100,1.0,3,8.324919951636469e-08
3.63,0.024064571490409,77.50000208475734,0,100,1.0,3,4.128232358378245e-08
3.635,0.046784906529573234,77.50000101716151,0,100,1.0,3,2.0141812055413483e-08
3.64,0.08141644351188804,77.50000048828643,0,100,1.0,3,9.669038252126268e-09
3.645,0.12682276464025305,77.50000023062678,0,100,1.0,3,4.5668669638034055e-09
3.65,0.1768320708657512,77.50000010717541,0,100,1.0,3,2.1222853441634805e-09
3.655,0.22070063230473494,77.50000004900393,0,100,1.0,3,9.703748475820447e-10
3.66,0.24656126505113576,77.50000002204536,0,100,1.0,3,4.365416982794402e-10
3.665,0.24656126505724016,77.50000000975783,0,100,1.0,3,1.9322428805494247e-10
3.67,0.220700632329898,77.50000000424953,0,100,1.0,3,8.414908374070725e-11
3.675,0.17683207093748562,77.50000000182087,0,100,1.0,3,3.605673735382699e-11
3.68,0.12682276483597799,77.50000000076766,0,100,1.0,3,1.5201112096247465e-11
3.685,0.08141644409447898,77.50000000031842,0,100,1.0,3,6.305398447594679e-12
3.69,0.04678490952598309,77.50000000012996,0,100,1.0,3,2.573431017238066e-12
3.695,0.024064605020532023,77.50000000005218,0,100,1.0,3,1.0333120497865694e-12
3.7,0.011080171739334697,77.50000000002062,0,100,1.0,3,4.0831584538134865e-13
3.705,0.004571212771509492,77.50000000000801,0,100,1.0,3,1.5871132790839464e-13
3.71,0.0017299316936037438,77.50000000000307,0,100,1.0,3,6.078306175215115e-14
3.715,0.0008899431850697582,77.50000000000115,0,100,1.0,3,2.279364815705668e-14
3.72,0.002128806368910263,77.50000000000043,0,100,1.0,3,8.442091910020992e-15
3.725,0.009309664818487698,77.50000000000016,0,100,1.0,3,3.0954337003410305e-15
3.73,0.03503263543368747,77.50000000000006,0,100,1.0,3,1.1256122546694657e-15
3.735,0.10606267793605692,77.50000000000001,0,100,1.0,3,2.814030636673664e-16
3.74,0.25734927343160535,77.5,0,100,1.0,3,0.0
3.745,0.5003202479539708,77.5,0,100,1.0,3,0.0
3.75,0.7793067891790435,77.5,0,100,1.0,3,0.0
3.755,0.9720477407234077,77.5000029632167,1,100,1.0,3,5.867755844249559e-08
3.76,0.967267334488097,77.50000611949993,0,100,1.0,3,1.2117821641611342e-07
3.765,0.7505869905515209,77.5000136661605,0,100,1.0,3,2.706170395714874e-07
3.77,0.4028369574773956,77.50003448761683,0,100,1.0,3,6.829231055424244e-07
3.775,0.04553881263121314,77.50009893563154,0,100,1.0,3,1.9591214166635243e-06
3.78,-0.189138810908105,77.50030887479707,0,100,1.0,3,6.1163326152625205e-06
3.785,-0.22868072635956738,77.50098936987865,0,100,1.0,3,1.9591482745598493e-05
3.79,-0.14104670682394166,77.50311109919818,0,100,1.0,3,6.160592471641763e-05
3.795,-0.051158381651102834,77.50936430658398,0,100,1.0,3,0.00018543181354407307
3.8,-0.008206426846427752,77.52663503308537,0,100,1.0,3,0.0005274263977300939
3.805,0.005350271385530505,77.57113795423459,0,100,1.0,3,0.0014086723610809244
3.81,0.01084668799215426,77.67785621339104,0,100,1.0,3,0.003521905215664127
3.815,0.016256859896386415,77.9156022259755,0,100,1.0,3,0.008229747049019897
3.82,0.02345021205790711,78.4069380257099,0,100,1.0,3,0.017959168825938725
3.825,0.0330621597308209,79.34748987799968,0,100,1.0,3,0.036583957980191636
3.83,0.04559141319943196,81.01228362930992,0,100,1.0,3,0.06955017087742416
3.835,0.06149084917446989,83.73079902637203,0,100,1.0,3,0.12338215893805991
3.84,0.08111733445924295,87.81367872264438,0,100,1.0,3,0.20423126183454224
3.845,0.1046628598272375,93.4288216152286,0,100,1.0,3,0.3154222102025465
3.85,0.1320831047748631,100.45351412056698,0,100,1.0,3,0.4545250320904352
3.855,0.16303381314489318,108.36134960751014,0,100,1.0,3,0.6111158338120819
3.86,0.19682662652900276,116.21652194472324,0,100,1.0,3,0.7666638008856087
3.865,0.23241585813229,122.82360122088085,0,100,1.0,3,0.8974970538788286
3.87,0.26842527782774417,127.01713839847308,0,100,1.0,3,0.9805373940291698
3.875,0.30321927900592993,128.0,0,100,1.0,3,1.0
3.88,0.3350163137995362,125.59701682575721,0,100,1.0,3,0.9524161747674694
3.885,0.3620352400956416,120.3140247604608,0,100,1.0,3,0.8478024705041742
3.89,0.3826586036805073,113.17578272521496,0,100,1.0,3,0.7064511430735635
3.895,0.39559233134833227,105.41460450461524,0,100,1.0,3,0.5527644456359454
3.9,0.4,98.1397912084383,0,100,1.0,3,0.40870873680075837
3.905,0.39559233134833227,92.10783014594557,0,100,1.0,3,0.2892639632860509
3.91,0.3826586036805073,87.64951021194136,0,100,1.0,3,0.2009804002364626
3.915,0.3620352400956416,84.73520644729147,0,100,1.0,3,0.143271414797851
3.92,0.3350163137995362,83.11302488416099,0,100,1.0,3,0.11114900760714837
3.925,0.3032192790059296,82.45012180045974,0,100,1.0,3,0.09802221387048991
3.93,0.26842527782774417,82.43311100444015,0,100,1.0,3,0.09768536642455743
3.935,0.23241585813229,82.8162323398421,0,100,1.0,3,0.10527192752162579
3.94,0.19682662652900276,83.42866618321837,0,100,1.0,3,0.11739933036075977
3.945,0.16303381314489318,84.1600622480566,0,100,1.0,3,0.13188242075359613
3.95,0.13208310477486307,84.940236624999,0,100,1.0,3,0.14733141831681193
3.955,0.10466285982723562,85.72195777553705,0,100,1.0,3,0.1628110450601396
3.96,0.08111733445917907,86.4696633299647,0,100,1.0,3,0.1776170956428654
3.965,0.06149084917398798,87.15353818842898,0,100,1.0,3,0.19115917204809865
3.97,0.04559141333598128,87.74725089071974,0,100,1.0,3,0.2029158592221731
3.975,0.03306217087257399,88.22774168238095,0,100,1.0,3,0.21243052836397924
3.98,0.02345067901074276,88.57593914149084,0,100,1.0,3,0.21932552755427395
3.985,0.016268788896435526,88.77773137510404,0,100,1.0,3,0.2233214133683968
3.99,0.011039026374860051,88.82481855964929,0,100,1.0,3,0.22425383286434233
3.995,0.007326255555493689,88.71524935893723,0,100,1.0,3,0.22208414572152926
4.0,0.0047556414315231815,88.45354650959632,0,100,1.0,3,0.21690191108111528
4.005,0.0030193390635632803,88.05039484238684,0,100,1.0,3,0.20891870975023438
4.01,0.001874953127946523,87.52191701266186,0,100,1.0,3,0.1984538022309279
4.015,0.0011387927410965778,86.88860404516025,0,100,1.0,3,0.18591295138931188
4.02,0.0006765107634274089,86.17399918548756,0,100,1.0,3,0.17176236010866455
4.025,0.00039307957404427924,85.40325259759987,0,100,1.0,3,0.15650005143762127
4.03,0.00022338910511776318,84.60166988532686,0,100,1.0,3,0.14062712644211597
4.035,0.00012417073320013317,83.79336949573046,0,100,1.0,3,0.12462117813327643
4.04,6.750753468904987e-05,83.00014467233905,0,100,1.0,3,0.10891375588790192
4.045,3.5897234866245036e-05,82.2405979846216,0,100,1.0,3,0.09387322741824954
4.05,1.8670050400879738e-05,81.52958456421845,0,100,1.0,3,0.07979375374690006
4.055,9.497421874143672e-06,80.8779681711764,0,100,1.0,3,0.06689045883517634
4.06,4.725434140340885e-06,80.29266578507671,0,100,1.0,3,0.05530031257577638
4.065,2.299606063738814e-06,79.77693434234938,0,100,1.0,3,0.045087808759393624
4.07,1.0945633976635486e-06,79.33083911757771,0,100,1.0,3,0.03625423995203387
4.075,5.095703414287532e-07,78.95183743607637,0,100,1.0,3,0.028749256159928207
4.08,2.3202944964797243e-07,78.63541317800785,0,100,1.0,3,0.022483429267482213
4.085,1.0333746954038608e-07,78.3757053491493,0,100,1.0,3,0.017340699983154448
4.09,4.501406988770349e-08,78.16608584846017,0,100,1.0,3,0.013189818781389513
4.095,0.0,77.99965535153865,0,100,1.0,3,0.00989416537700296
4.1,0.0,77.86964004284735,0,100,1.0,3,0.007319604808858435
4.105,0.0,77.7696842680522,0,100,1.0,3,0.005340282535687178
4.11,0.0,77.69404405685896,0,100,1.0,3,0.0038424565714644857
4.115,0.0,77.63769342762592,0,100,1.0,3,0.0027266025272459243
4.12,0.0,77.59635942692422,0,100,1.0,3,0.0019081074638460122
4.125,0.0,77.56650332172448,0,100,1.0,3,0.0013168974598907444
4.13,0.0,77.54526479938636,0,100,1.0,3,0.0008963326611160258
4.135,0.0,77.53038407321809,0,100,1.0,3,0.0006016648161997493
4.14,0.0,77.52011404975813,0,100,1.0,3,0.0003982980150125725
4.145,0.0,77.51313170683527,0,100,1.0,3,0.0002600337987181626
4.15,0.0,77.50845494854985,0,100,1.0,3,0.0001674247237594887
4.155,0.0,77.5053686969771,0,100,1.0,3,0.00010631083122971762
4.16,0.0,77.50336197861758,0,100,1.0,3,6.6573834011411e-05
4.165,0.0,77.50207629536354,0,100,1.0,3,4.1114759673998586e-05
4.17,0.0,77.5012645949802,0,100,1.0,3,2.5041484756421046e-05
4.175,0.0,77.50075959466382,0,100,1.0,3,1.5041478491465937e-05
4.18,0.0,77.50044996681824,0,100,1.0,3,8.910234024507182e-06
4.185,0.0,77.50026287374051,0,100,1.0,3,5.205420604165783e-06
4.19,0.0,77.50015145445519,0,100,1.0,3,2.9990981226213685e-06
4.195,0.0,77.5000860567684,0,100,1.0,3,1.7040944236790586e-06
4.2,0.0,77.50004822321333,0,100,1.0,3,9.549151153769704e-07
4.205,0.0,77.50002664988816,0,100,1.0,3,5.277205575409182e-07
4.21,0.0,77.50001452455274,0,100,1.0,3,2.87614905726802e-07
4.215,0.0,77.50000780689389,0,100,1.0,3,1.545919582269454e-07
4.22,0.001684486749771458,77.5000041382995,0,100,1.0,3,8.194652479579589e-08
4.225,0.00456624331333666,77.5000021633844,0,100,1.0,3,4.2839294936507795e-08
4.23,0.011079731271581421,77.50000111535623,0,100,1.0,3,2.2086261919461736e-08
4.235,0.024064571490409,77.50000056710259,0,100,1.0,3,1.1229754235419834e-08
4.24,0.046784906529573234,77.5000002843661,0,100,1.0,3,5.631011784469881e-09
4.245,0.08141644351188804,77.50000014062486,0,100,1.0,3,2.784650749811473e-09
4.25,0.12682276464025305,77.5000000685827,0,100,1.0,3,1.3580731346976763e-09
4.255,0.1768320708657512,77.5000000329864,0,100,1.0,3,6.53196168221455e-10
4.26,0.22070063230473494,77.50000001564673,0,100,1.0,3,3.0983631062338077e-10
4.265,0.24656126505113576,77.50000000731949,0,100,1.0,3,1.4494030618170475e-10
4.27,0.24656126505724016,77.5000000033768,0,100,1.0,3,6.686727739170327e-11
4.275,0.220700632329898,77.50000000153638,0,100,1.0,3,3.042332942226998e-11
4.28,0.17683207093748562,77.50000000068938,0,100,1.0,3,1.3651144021567612e-11
4.285,0.12682276483597799,77.50000000030506,0,100,1.0,3,6.0408795677473545e-12
4.29,0.08141644409447898,77.50000000013313,0,100,1.0,3,2.6361839004358887e-12
4.295,0.04678490952598309,77.5000000000573,0,100,1.0,3,1.1346171527068214e-12
4.3,0.024064605020532023,77.50000000002431,0,100,1.0,3,4.81480641934864e-13
4.305,0.011080171739334697,77.50000000001017,0,100,1.0,3,2.0148459358583435e-13
4.31,0.004571212771509492,77.5000000000042,0,100,1.0,3,8.329530684554046e-14
4.315,0.0017299316936037438,77.5000000000017,0,100,1.0,3,3.376836764008397e-14
4.32,0.0008899431850697582,77.50000000000068,0,100,1.0,3,1.3507347056033587e-14
4.325,0.002128806368910263,77.50000000000027,0,100,1.0,3,5.346658209679962e-15
4.33,0.009309664818487698,77.5000000000001,0,100,1.0,3,1.969821445671565e-15
4.335,0.03503263543368747,77.50000000000004,0,100,1.0,3,8.442091910020992e-16
4.34,0.10606267793605692,77.50000000000001,0,100,1.0,3,2.814030636673664e-16
4.345,0.25734927343160535,77.5,0,100,1.0,3,0.0
4.35,0.5003202479539708,77.5,0,100,1.0,3,0.0
4.355,0.7793067891790435,77.5,0,100,1.0,3,0.0
4.36,0.9720477407234077,77.5000029768749,1,100,1.0,3,5.8948017741016935e-08
4.365,0.967267334488097,77.50000639791868,0,100,1.0,3,1.2669145904861705e-07
4.37,0.7505869905515209,77.50001503914727,0,100,1.0,3,2.978048964657976e-07
4.375,0.4028369574773956,77.5000405977313,0,100,1.0,3,8.039154712749602e-07
4.38,0.04553881263121314,77.50012568133535,0,100,1.0,3,2.488739313818796e-06
4.385,-0.189138810908105,77.50042139469598,0,100,1.0,3,8.344449425278683e-06
4.39,-0.22868072635956738,77.50143220973679,0,100,1.0,3,2.8360588847345023e-05
4.395,-0.14104670682394166,77.5047186192955,0,100,1.0,3,9.343800585153338e-05
4.4,-0.051158381651102834,77.51471703980556,0,100,1.0,3,0.0002914265308031825
4.405,-0.008206426846427752,77.54295938552251,0,100,1.0,3,0.0008506809014357997
4.41,0.005350271385530505,77.6167303530177,0,100,1.0,3,0.002311492138964373
4.415,0.01084668799215426,77.79449447378158,0,100,1.0,3,0.005831573738249171
4.42,0.016256859896386415,78.1889498680611,0,100,1.0,3,0.013642571644774282
4.425,0.02345021205790711,78.9936054602403,0,100,1.0,3,0.029576345747332738
4.43,0.0330621597308209,80.4996856165681,0,100,1.0,3,0.059399715179566354
4.435,0.04559141319943196,83.07993103850617,0,100,1.0,3,0.11049368393081534
4.44,0.06149084917446989,87.11287313371587,0,100,1.0,3,0.19035392343991814
4.445,0.08111733445924295,92.83655963825184,0,100,1.0,3,0.3036942502624127
4.45,0.1046628598272375,100.1592760486476,0,100,1.0,3,0.44869853561678413
4.455,0.1320831047748631,108.50359714416015,0,100,1.0,3,0.6139326167160426
4.46,0.16303381314489318,116.78654847688122,0,100,1.0,3,0.777951454987747
4.465,0.19682662652900276,123.60821001847575,0,100,1.0,3,0.913033861751995
4.47,0.23241585813229,127.62847233815549,0,100,1.0,3,0.9926430165971384
4.475,0.26842527782774417,128.0,0,100,1.0,3,1.0
4.48,0.30321927900592993,124.66760400991004,0,100,1.0,3,0.934011960592278
4.485,0.3350163137995362,118.39038146372059,0,100,1.0,3,0.8097105240340711
4.49,0.3620352400956416,110.47562935409675,0,100,1.0,3,0.6529827594870644
4.495,0.3826586036805073,102.35298204453142,0,100,1.0,3,0.4921382583075528
4.5,0.39559233134833227,95.17874322086946,0,100,1.0,3,0.35007412318553394
4.505,0.4,89.61569511522995,0,100,1.0,3,0.23991475475702878
4.51,0.39559233134833227,85.82517009686714,0,100,1.0,3,0.16485485340330971
4.515,0.3826586036805073,83.6090618349903,0,100,1.0,3,0.12097152148495643
4.52,0.3620352400956416,82.59933730320935,0,100,1.0,3,0.1009769763011753
4.525,0.3350163137995362,82.41268319594003,0,100,1.0,3,0.09728085536514917
4.53,0.3032192790059296,82.73585255051967,0,100,1.0,3,0.10368024852514192
4.535,0.26842527782774417,83.34863649182353,0,100,1.0,3,0.11581458399650547
4.54,0.23241585813229,84.11012510513392,0,100,1.0,3,0.1308935664382954
4.545,0.19682662652900276,84.93289016428321,0,100,1.0,3,0.14718594384719225
4.55,0.16303381314489318,85.75985479737454,0,100,1.0,3,0.1635614811361296
4.555,0.13208310477486307,86.54900938892803,0,100,1.0,3,0.17918830473124805
4.56,0.10466285982723562,87.2655137876512,0,100,1.0,3,0.19337651064655845
4.565,0.08111733445917907,87.87880541393756,0,100,1.0,3,0.2055208992858922
4.57,0.06149084917398798,88.36243221298648,0,100,1.0,3,0.21509766758389062
4.575,0.04559141333598128,88.69504827525046,0,100,1.0,3,0.2216841242623853
4.58,0.03306217087257399,88.86166481029888,0,100,1.0,3,0.22498346159007676
4.585,0.02345067901074276,88.85467214111144,0,100,1.0,3,0.22484499289329576
4.59,0.016268788896435526,88.67438787319062,0,100,1.0,3,0.22127500738991338
4.595,0.011039026374860051,88.32902560186928,0,100,1.0,3,0.21443615053206486
4.6,0.007326255555493689,87.834072636083,0,100,1.0,3,0.20463510170461374
4.605,0.0047556414315231815,87.21113807884366,0,100,1.0,3,0.19229976393749823
4.61,0.0030193390635632803,86.48638950473932,0,100,1.0,3,0.177948307024541
4.615,0.001874953127946523,85.68873539894074,0,100,1.0,3,0.16215317621664824
4.62,0.0011387927410965778,84.84792859716677,0,100,1.0,3,0.14550353657755982
4.625,0.0006765107634274089,83.99276234682259,0,100,1.0,3,0.12856955142222945
4.63,0.00039307957404427924,83.14950732513329,0,100,1.0,3,0.11187143218085714
4.635,0.00022338910511776318,82.34069963296807,0,100,1.0,3,0.0958554382765954
4.64,0.00012417073320013317,81.58434279250736,0,100,1.0,3,0.08087807509915558
4.645,6.750753468904987e-05,80.89353805575186,0,100,1.0,3,0.06719877338122497
4.65,3.5897234866245036e-05,80.27651326693037,0,100,1.0,3,0.05498046073129437
4.655,1.8670050400879738e-05,79.73698603104926,0,100,1.0,3,0.04429675309008427
4.66,9.497421874143672e-06,79.27477491320202,0,100,1.0,3,0.03514405768716877
4.665,4.725434140340885e-06,78.88656355336967,0,100,1.0,3,0.027456704027122157
4.67,2.299606063738814e-06,78.56672572691414,0,100,1.0,3,0.02112328172107214
4.675,1.0945633976635486e-06,78.30813189638289,0,100,1.0,3,0.01600261180956216
4.68,5.095703414287532e-07,78.10287630828009,0,100,1.0,3,0.011938144718417582
4.685,2.3202944964797243e-07,77.94288469900617,0,100,1.0,3,0.008769994039726167
4.69,1.0333746954038608e-07,77.82038311916784,0,100,1.0,3,0.0063442201815414505
4.695,4.501406988770349e-08,77.72822597134211,0,100,1.0,3,0.004519326165190349
4.7,0.0,77.66009471412842,0,100,1.0,3,0.0031701923589786034
4.705,0.0,77.61058733996865,0,100,1.0,3,0.0021898483162108096
4.71,0.0,77.57522294299544,0,100,1.0,3,0.0014895632276324417
4.715,0.0,77.55038621312866,0,100,1.0,3,0.0009977467946269503
4.72,0.0,77.53323453510313,0,100,1.0,3,0.0006581096060026449
4.725,0.0,77.52158658720883,0,100,1.0,3,0.0004274571724520814
4.73,0.0,77.51380685790998,0,100,1.0,3,0.0002734031269303704
4.735,0.0,77.5086960537223,0,100,1.0,3,0.0001721990836099709
4.74,0.0,77.50539344261945,0,100,1.0,3,0.00010680084394950859
4.745,0.0,77.50329402128571,0,100,1.0,3,6.522814427151136e-05
4.75,0.0,77.50198108554771,0,100,1.0,3,3.922941678637255e-05
4.755,0.0,77.50117326616962,0,100,1.0,3,2.323299345773806e-05
4.76,0.0,77.50068423668777,0,100,1.0,3,1.3549241342076076e-05
4.765,0.0,77.5003929458036,0,100,1.0,3,7.781105021721677e-06
4.77,0.0,77.50022221606024,0,100,1.0,3,4.400318024499038e-06
4.775,0.0,77.5001237470122,0,100,1.0,3,2.4504358850775826e-06
4.78,0.0,77.5000678594742,0,100,1.0,3,1.3437519643534554e-06
4.785,0.0,77.50003664398938,0,100,1.0,3,7.256235519862727e-07
4.79,0.0,77.50001948549742,0,100,1.0,3,3.858514340249307e-07
4.795,0.001684486749771458,77.50001020320788,0,100,1.0,3,2.0204372036811162e-07
4.8,0.00456624331333666,77.50000526112309,0,100,1.0,3,1.0418065530171985e-07
4.805,0.011079731271581421,77.50000267138621,0,100,1.0,3,5.289873688480379e-08
4.81,0.024064571490409,77.50000133570758,0,100,1.0,3,2.6449655051422243e-08
4.815,0.046784906529573234,77.50000065766176,0,100,1.0,3,1.3023005107747354e-08
4.82,0.08141644351188804,77.5000003188675,0,100,1.0,4,6.3142080519058494e-09
4.825,0.12682276464025305,77.500000152242,0,100,1.0,4,3.0146929705074623e-09
4.83,0.1768320708657512,77.50000007157726,0,100,1.0,4,1.4173715138859185e-09
4.835,0.22070063230473494,77.50000003313846,0,100,1.0,4,6.562071810026957e-10
4.84,0.24656126505113576,77.50000001510796,0,100,1.0,4,2.991674762705599e-10
4.845,0.24656126505724016,77.5000000067826,0,100,1.0,4,1.3430889843635165e-10
4.85,0.220700632329898,77.50000000299849,0,100,1.0,4,5.937604643381431e-11
4.855,0.17683207093748562,77.50000000130535,0,100,1.0,4,2.584855981622961e-11
4.86,0.12682276483597799,77.50000000055958,0,100,1.0,4,1.1080808438029887e-11
4.865,0.08141644409447898,77.50000000023623,0,100,1.0,4,4.677763127342632e-12
4.87,0.04678490952598309,77.5000000000982,0,100,1.0,4,1.944495169941502e-12
4.875,0.024064605020532023,77.50000000004019,0,100,1.0,4,7.958078640513122e-13
4.88,0.011080171739334697,77.5000000000162,0,100,1.0,4,3.207994925807977e-13
4.885,0.004571212771509492,77.50000000000644,0,100,1.0,4,1.27475587841317e-13
4.89,0.0017299316936037438,77.50000000000252,0,100,1.0,4,4.9808342269123855e-14
4.895,0.0008899431850697582,77.50000000000097,0,100,1.0,4,1.9135408329380917e-14
4.9,0.002128806368910263,77.50000000000037,0,100,1.0,4,7.316479655351527e-15
4.905,0.009309664818487698,77.50000000000014,0,100,1.0,4,2.8140306366736642e-15
4.91,0.03503263543368747,77.50000000000004,0,100,1.0,4,8.442091910020992e-16
4.915,0.10606267793605692,77.50000000000001,0,100,1.0,4,2.814030636673664e-16
4.92,0.25734927343160535,77.5,0,100,1.0,4,0.0
4.925,0.5003202479539708,77.5,0,100,1.0,4,0.0
4.93,0.7793067891790435,77.5,0,100,1.0,4,0.0
4.935,0.9720477407234077,77.500002961856,1,100,1.0,4,5.865061381774638e-08
4.94,0.967267334488097,77.500006041423,0,100,1.0,4,1.1963213873878877e-07
4.945,0.7505869905515209,77.50001328138595,0,100,1.0,4,2.629977415165173e-07
4.95,0.4028369574773956,77.50003283321637,0,100,1.0,4,6.501627003199426e-07
4.955,0.04553881263121314,77.50009198824264,0,100,1.0,4,1.8215493592959877e-06
4.96,-0.189138810908105,77.50028074560149,0,100,1.0,4,5.559318841314602e-06
4.965,-0.22868072635956738,77.50088215537116,0,100,1.0,4,1.7468423191256096e-05
4.97,-0.14104670682394166,77.5027317136506,0,100,1.0,4,5.409333961592487e-05
4.975,-0.051158381651102834,77.50812515206187,0,100,1.0,4,0.00016089410023495125
4.98,-0.008206426846427752,77.52290585167412,0,100,1.0,4,0.0004535812212697967
4.985,0.005350271385530505,77.5607994860294,0,100,1.0,4,0.0012039502184038745
4.99,0.01084668799215426,77.65144697964095,0,100,1.0,4,0.0029989500919000286
4.995,0.016256859896386415,77.85343089561607,0,100,1.0,4,0.00699863159635785
5.0,0.02345021205790711,78.27206809920676,0,100,1.0,4,0.015288477212015105
5.005,0.0330621597308209,79.07802187804528,0,100,1.0,4,0.031247957981094594
5.01,0.04559141319943196,80.51693895137673,0,100,1.0,4,0.05974136537379663
5.015,0.06149084917446989,82.89454088046219,0,100,1.0,4,0.10682259169232054
5.02,0.08111733445924295,86.52074732919208,0,100,1.0,4,0.17862865998400151
5.025,0.1046628598272375,91.60628022891433,0,100,1.0,4,0.2793322817606798
5.03,0.1320831047748631,98.12800786254579,0,100,1.0,4,0.40847540321872844
5.035,0.16303381314489318,105.70840989696592,0,100,1.0,4,0.5585823741973449
5.04,0.19682662652900276,113.57344353324595,0,100,1.0,4,0.7143256145197218
5.045,0.23241585813229,120.64276888442222,0,100,1.0,4,0.8543122551370738
5.05,0.26842527782774417,125.75956336367835,0,100,1.0,4,0.9556349180926407
5.055,0.30321927900592993,128.0,0,100,1.0,4,1.0
5.06,0.3350163137995362,126.95061745029365,0,100,1.0,4,0.9792201475305673
5.065,0.3620352400956416,122.84001560912182,0,100,1.0,4,0.897822091269739
5.07,0.3826586036805073,116.46801010317881,0,100,1.0,4,0.7716437644193824
5.075,0.39559233134833227,108.96296573740314,0,100,1.0,4,0.6230290245030324
5.08,0.4,101.46881286087532,0,100,1.0,4,0.4746299576410954
5.085,0.39559233134833227,94.88053871179497,0,100,1.0,4,0.34416908340188057
5.09,0.3826586036805073,89.70779311233117,0,100,1.0,4,0.24173847747190444
5.095,0.3620352400956416,86.07956026661839,0,100,1.0,4,0.1698922825072948
5.1,0.3350163137995362,83.84687409322002,0,100,1.0,4,0.1256806751132678
5.105,0.3032192790059296,82.7187027867249,0,100,1.0,4,0.10334064924207731
5.11,0.26842527782774417,82.37771688222631,0,100,1.0,4,0.09658845311339226
5.115,0.23241585813229,82.55072048744152,0,100,1.0,4,0.10001426707804997
5.12,0.19682662652900276,83.03453037589074,0,100,1.0,4,0.1095946609087275
5.125,0.16303381314489318,83.69208055632127,0,100,1.0,4,0.12261545656081728
5.13,0.13208310477486307,84.43544696634281,0,100,1.0,4,0.1373355834919368
5.135,0.10466285982723562,85.20760297898806,0,100,1.0,4,0.15262580156412006
5.14,0.08111733445917907,85.96850260217812,0,100,1.0,4,0.1676931208352103
5.145,0.06149084917398798,86.6865931944108,0,100,1.0,4,0.18191273652298623
5.15,0.04559141333598128,87.33469336179016,0,100,1.0,4,0.19474640320376552
5.155,0.03306217087257399,87.88866412777621,0,100,1.0,4,0.20571612134210315
5.16,0.02345067901074276,88.32756689971691,0,100,1.0,4,0.21440726534092897
5.165,0.016268788896435526,88.63444229094094,0,100,1.0,4,0.22048400576120672
5.17,0.011039026374860051,88.7972016808272,0,100,1.0,4,0.22370696397677625
5.175,0.007326255555493689,88.80935150413694,0,100,1.0,4,0.22394755453736517
5.18,0.0047556414315231815,88.67040269484706,0,100,1.0,4,0.22119609296726842
5.185,0.0030193390635632803,88.38589749796584,0,100,1.0,4,0.21556232669239292
5.19,0.001874953127946523,87.96704111602165,0,100,1.0,4,0.20726814091131976
5.195,0.0011387927410965778,87.42996910265714,0,100,1.0,4,0.19663305153776514
5.2,0.0006765107634274089,86.79471636674512,0,100,1.0,4,0.18405378944049744
5.205,0.00039307957404427924,86.08397933237504,0,100,1.0,4,0.16997978875990172
5.21,0.00022338910511776318,85.32177758289465,0,100,1.0,4,0.15488668480979514
5.215,0.00012417073320013317,84.53212429988861,0,100,1.0,4,0.13924998613640807
5.22,6.750753468904987e-05,83.7378064113005,0,100,1.0,4,0.1235209190356534
5.225,3.5897234866245036e-05,82.95935736032456,0,100,1.0,4,0.1081060863430606
5.23,1.8670050400879738e-05,82.21428063285789,0,100,1.0,4,0.09335209173976025
5.235,9.497421874143672e-06,81.51655406697313,0,100,1.0,4,0.0795357240984778
5.24,4.725434140340885e-06,80.8764170164331,0,100,1.0,4,0.06685974289966524
5.245,2.299606063738814e-06,80.30041774319758,0,100,1.0,4,0.05545381669698188
5.25,1.0945633976635486e-06,79.7916792805792,0,100,1.0,4,0.04537978773424164
5.255,5.095703414287532e-07,79.35032975682887,0,100,1.0,4,0.03664019320453208
5.26,2.3202944964797243e-07,78.97403808767992,0,100,1.0,4,0.029188873023364655
5.265,1.0333746954038608e-07,78.65859741440458,0,100,1.0,4,0.022942523057516477
5.27,4.501406988770349e-08,78.39850537991533,0,100,1.0,4,0.01779218574089772
5.275,0.0,78.1875006071592,0,100,1.0,4,0.01361387340909295
5.28,0.0,78.01902678123402,0,100,1.0,4,0.010277758044237983
5.285,0.0,77.8866079019436,0,100,1.0,4,0.007655602018685262
5.29,0.0,77.78412926151917,0,100,1.0,4,0.0056263220102805754
5.295,0.0,77.70602763440992,0,100,1.0,4,0.004079755136830114
5.3,0.0,77.64740060525696,0,100,1.0,4,0.002918823866474497
5.305,0.0,77.604048862077,0,100,1.0,4,0.0020603735064751187
5.31,0.0,77.57246689949535,0,100,1.0,4,0.0014349881088188759
5.315,0.0,77.54979735814472,0,100,1.0,4,0.000986086299895357
5.32,0.0,77.53376270259416,0,100,1.0,4,0.0006685683682011887
5.325,0.0,77.52258563891289,0,100,1.0,4,0.000447240374512603
5.33,0.0,77.51490705436474,0,100,1.0,4,0.0002951891953414091
5.335,0.0,77.50970768257822,0,100,1.0,4,0.00019223133818265054
5.34,0.0,77.50623739972342,0,100,1.0,4,0.000123512865810248
5.345,0.0,77.50395417479393,0,100,1.0,4,7.830049096895945e-05
5.35,0.0,77.50247327511215,0,100,1.0,4,4.8975744795087046e-05
5.355,0.0,77.50152634696913,0,100,1.0,4,3.0224692458002417e-05
5.36,0.0,77.50092939083888,0,100,1.0,4,1.840377898766332e-05
5.365,0.0,77.50055835162344,0,100,1.0,4,1.1056467790881876e-05
5.37,0.0,77.50033096453323,0,100,1.0,4,6.553753133339972e-06
5.375,0.0,77.50019356169078,0,100,1.0,4,3.832904767894361e-06
5.38,0.0,77.50011169188872,0,100,1.0,4,2.2117205686966075e-06
5.385,0.0,77.50006358989972,0,100,1.0,4,1.2592059351395573e-06
5.39,0.0,77.5000357206146,0,100,1.0,4,7.07338903067007e-07
5.395,0.0,77.50001979766552,0,100,1.0,4,3.920329805119349e-07
5.4,0.0,77.50001082613204,0,100,1.0,4,2.1437885228950486e-07
5.405,0.0,77.50000584113084,0,100,1.0,4,1.156659572873173e-07
5.41,0.001684486749771458,77.50000310945893,0,100,1.0,4,6.157344416513495e-08
5.415,0.00456624331333666,77.50000163319106,0,100,1.0,4,3.234041705942254e-08
5.42,0.011079731271581421,77.50000084635671,0,100,1.0,4,1.6759538865618098e-08
5.425,0.024064571490409,77.5000004327471,0,100,1.0,4,8.569249512400364e-09
5.43,0.046784906529573234,77.50000021831278,0,100,1.0,4,4.323025299671295e-09
5.435,0.08141644351188804,77.5000001086647,0,100,1.0,4,2.151776103832757e-09
5.44,0.12682276464025305,77.50000005336567,0,100,1.0,4,1.0567458899134695e-09
5.445,0.1768320708657512,77.50000002585828,0,100,1.0,4,5.120452356950949e-10
5.45,0.22070063230473494,77.50000001236238,0,100,1.0,4,2.447995601608337e-10
5.455,0.24656126505113576,77.50000000583134,0,100,1.0,4,1.154720587575218e-10
5.46,0.24656126505724016,77.50000000271393,0,100,1.0,4,5.374123148693897e-11
5.465,0.220700632329898,77.50000000124622,0,100,1.0,4,2.4677641668309697e-11
5.47,0.17683207093748562,77.50000000056461,0,100,1.0,4,1.1180425122568135e-11
5.475,0.12682276483597799,77.50000000025238,0,100,1.0,4,4.997718410732428e-12
5.48,0.08141644409447898,77.50000000011131,0,100,1.0,4,2.204230197706481e-12
5.485,0.04678490952598309,77.50000000004844,0,100,1.0,4,9.59303044042052e-13
5.49,0.024064605020532023,77.5000000000208,0,100,1.0,4,4.1197408520902444e-13
5.495,0.011080171739334697,77.50000000000881,0,100,1.0,4,1.7446989947376718e-13
5.5,0.004571212771509492,77.50000000000368,0,100,1.0,4,7.28833934898479e-14
5.505,0.0017299316936037438,77.50000000000152,0,100,1.0,4,3.011012781240821e-14
5.51,0.0008899431850697582,77.50000000000061,0,100,1.0,4,1.2100331737696755e-14
5.515,0.002128806368910263,77.50000000000024,0,100,1.0,4,4.783852082345229e-15
5.52,0.009309664818487698,77.5000000000001,0,100,1.0,4,1.969821445671565e-15
5.525,0.03503263543368747,77.50000000000004,0,100,1.0,4,8.442091910020992e-16
5.53,0.10606267793605692,77.50000000000001,0,100,1.0,4,2.814030636673664e-16
5.535,0.25734927343160535,77.5,0,100,1.0,4,0.0
5.54,0.5003202479539708,77.5,0,100,1.0,4,0.0
5.545,0.7793067891790435,77.5,0,100,1.0,4,0.0
5.55,0.9720477407234077,77.5000029632167,1,100,1.0,4,5.867755844249559e-08
5.555,0.967267334488097,77.50000632443192,0,100,1.0,4,1.252362756864692e-07
5.56,0.7505869905515209,77.50001473324576,0,100,1.0,4,2.917474408505849e-07
5.565,0.4028369574773956,77.50003930345265,0,100,1.0,4,7.782861911378535e-07
5.57,0.04553881263121314,77.50012007178523,0,100,1.0,4,2.37765911352014e-06
5.575,-0.189138810908105,77.50039768906025,0,100,1.0,4,7.875030896043021e-06
5.58,-0.22868072635956738,77.50133813309903,0,100,1.0,4,2.6497685129220596e-05
5.585,-0.14104670682394166,77.50437429970992,0,100,1.0,4,8.661979623609861e-05
5.59,-0.051158381651102834,77.51356283545961,0,100,1.0,4,0.0002685709992001851
5.595,-0.008206426846427752,77.539423280672,0,100,1.0,4,0.0007806590232078606
5.6,0.005350271385530505,77.60683292766095,0,100,1.0,4,0.0021155035180385365
5.605,0.01084668799215426,77.7691843879838,0,100,1.0,4,0.005330383920471266
5.61,0.016256859896386415,78.1298195737859,0,100,1.0,4,0.012471674728433559
5.615,0.02345021205790711,78.8674564682652,0,100,1.0,4,0.027078345906241648
5.62,0.0330621597308209,80.25416185836706,0,100,1.0,4,0.05453785858152585
5.625,0.04559141319943196,82.64472323642266,0,100,1.0,4,0.10187570765193393
5.63,0.06149084917446989,86.41224109374863,0,100,1.0,4,0.17648002165838877
5.635,0.08111733445924295,91.81665598492147,0,100,1.0,4,0.2834981383152766
5.64,0.1046628598272375,98.826395638257,0,100,1.0,4,0.42230486412390095
5.645,0.1320831047748631,106.95895384922622,0,100,1.0,4,0.5833456207767568
5.65,0.16303381314489318,115.23602411394728,0,100,1.0,4,0.7472480022563818
5.655,0.19682662652900276,122.32971667135199,0,100,1.0,4,0.8877171618089502
5.66,0.23241585813229,126.89775582948093,0,100,1.0,4,0.9781733827619986
5.665,0.26842527782774417,128.0,0,100,1.0,4,1.0
5.67,0.30321927900592993,125.42125272540896,0,100,1.0,4,0.9489356975328508
5.675,0.3350163137995362,119.74965133212939,0,100,1.0,4,0.8366267590520671
5.68,0.3620352400956416,112.17257946470455,0,100,1.0,4,0.6865857319743476
5.685,0.3826586036805073,104.08785511981466,0,100,1.0,4,0.5264921805903894
5.69,0.39559233134833227,96.70488803956961,0,100,1.0,4,0.38029481266474474
5.695,0.4,90.78889417401182,0,100,1.0,4,0.2631464192873627
5.7,0.39559233134833227,86.60772759605685,0,100,1.0,4,0.18035104150607617
5.705,0.3826586036805073,84.04089578195409,0,100,1.0,4,0.12952268875156617
5.71,0.3620352400956416,82.75786879881116,0,100,1.0,4,0.10411621383784475
5.715,0.3350163137995362,82.37959366821764,0,100,1.0,4,0.09662561719242846
5.72,0.3032192790059296,82.57856812118584,0,100,1.0,4,0.1005657053700166
5.725,0.26842527782774417,83.11531036543767,0,100,1.0,4,0.11119426466213198
5.73,0.23241585813229,83.83263983129649,0,100,1.0,4,0.12539880854052454
5.735,0.19682662652900276,84.63250912217958,0,100,1.0,4,0.14123780439959574
5.74,0.16303381314489318,85.45226040314074,0,100,1.0,4,0.1574705030324899
5.745,0.13208310477486307,86.2475629773933,0,100,1.0,4,0.1732190688592733
5.75,0.10466285982723562,86.98281595132833,0,100,1.0,4,0.18777853368966999
5.755,0.08111733445917907,87.62707318852279,0,100,1.0,4,0.20053610274302547
5.76,0.06149084917398798,88.15320332098976,0,100,1.0,4,0.21095452120771804
5.765,0.04559141333598128,88.5385782151131,0,100,1.0,4,0.21858570722996248
5.77,0.03306217087257399,88.76624892522591,0,100,1.0,4,0.22309403812328532
5.775,0.02345067901074276,88.82603771663241,0,100,1.0,4,0.22427797458678045
5.78,0.016268788896435526,88.71524935893723,0,100,1.0,4,0.22208414572152926
5.785,0.011039026374860051,88.43886075670979,0,100,1.0,4,0.2166111040932631
5.79,0.007326255555493689,88.00914720955005,0,100,1.0,4,0.20810192494158516
5.795,0.0047556414315231815,87.44477763798974,0,100,1.0,4,0.19692628986118307
5.8,0.0030193390635632803,86.76946988444872,0,100,1.0,4,0.18355385909799454
5.805,0.001874953127946523,86.0103405328122,0,100,1.0,4,0.16852159470915234
5.81,0.0011387927410965778,85.1961087935566,0,100,1.0,4,0.15239819393181395
5.815,0.0006765107634274089,84.35531914558466,0,100,1.0,4,0.13574889397197343
5.82,0.00039307957404427924,83.51473332893123,0,100,1.0,4,0.11910363027586592
5.825,0.00022338910511776318,82.69801221580293,0,100,1.0,4,0.10293093496639472
5.83,0.00012417073320013317,81.92476728085217,0,100,1.0,4,0.08761915407628051
5.835,6.750753468904987e-05,81.2100160794701,0,100,1.0,4,0.07346566494000187
5.84,3.5897234866245036e-05,80.56403251225963,0,100,1.0,4,0.06067391113385405
5.845,1.8670050400879738e-05,79.99254590939884,0,100,1.0,4,0.04935734474057114
5.85,9.497421874143672e-06,79.49721667177356,0,100,1.0,4,0.039548844985615
5.855,4.725434140340885e-06,79.07630197143015,0,100,1.0,4,0.031213900424359505
5.86,2.299606063738814e-06,78.72542256815419,0,100,1.0,4,0.024265793428795777
5.865,1.0945633976635486e-06,78.43834933264405,0,100,1.0,4,0.018581174903842604
5.87,5.095703414287532e-07,78.20774277436361,0,100,1.0,4,0.01401470840323979
5.875,2.3202944964797243e-07,78.02579755035103,0,100,1.0,4,0.010411832680218405
5.88,1.0333746954038608e-07,77.88476352268945,0,100,1.0,4,0.007619079657216909
5.885,4.501406988770349e-08,77.77733293361308,0,100,1.0,4,0.005491741259664978
5.89,0.0,77.69689796089891,0,100,1.0,4,0.0038989695227506687
5.895,0.0,77.63769342762592,0,100,1.0,4,0.0027266025272459243
5.9,0.0,77.59484565128201,0,100,1.0,4,0.0018781317085547404
5.905,0.0,77.56435078582085,0,100,1.0,4,0.0012742729865514734
5.91,0.0,77.54300535190977,0,100,1.0,4,0.0008515911269261333
5.915,0.0,77.52830892491497,0,100,1.0,4,0.0005605727705934027
5.92,0.0,77.5183550878223,0,100,1.0,4,0.0003634670855901034
5.925,0.0,77.51172254143796,0,100,1.0,4,0.0002321295334249863
5.93,0.0,77.50737427460564,0,100,1.0,4,0.00014602523971560832
5.935,0.0,77.50456929349846,0,100,1.0,4,9.04810593755032e-05
5.94,0.0,77.5027887592473,0,100,1.0,4,5.522295539198113e-05
5.945,0.0,77.50167650638357,0,100,1.0,4,3.319814620940318e-05
5.95,0.0,77.50099273108047,0,100,1.0,4,1.9658041197479378e-05
5.955,0.0,77.50057901557518,0,100,1.0,4,1.1465654954136962e-05
5.96,0.0,77.50033264507117,0,100,1.0,4,6.587031112242738e-06
5.965,0.0,77.50018823663869,0,100,1.0,4,3.727458191926218e-06
5.97,0.0,77.50010492028098,0,100,1.0,4,2.0776293262437016e-06
5.975,0.0,77.50005760324511,0,100,1.0,4,1.1406583190242906e-06
5.98,0.0,77.50003115061858,0,100,1.0,4,6.168439323245015e-07
5.985,0.0,77.50001659275955,0,100,1.0,4,3.285694960465149e-07
5.99,0.001684486749771458,77.5000087056817,0,100,1.0,4,1.7238973650999488e-07
5.995,0.00456624331333666,77.50000449903288,0,100,1.0,4,8.908976006201592e-08
6.0,0.011079731271581421,77.50000229017026,0,100,1.0,4,4.5349906096618887e-08
6.005,0.024064571490409,77.5000011482821,0,100,1.0,4,2.2738259310631967e-08
6.01,0.046784906529573234,77.50000056710259,0,100,1.0,4,1.1229754235419834e-08
6.015,0.08141644351188804,77.50000027587154,0,100,1.0,4,5.4628028217596484e-09
6.02,0.12682276464025305,77.50000013218568,0,100,1.0,4,2.617538133437289e-09
6.025,0.1768320708657512,77.500000062387,0,100,1.0,5,1.235386182790787e-09
6.03,0.22070063230473494,77.50000002900254,0,100,1.0,5,5.743076333529454e-10
6.035,0.24656126505113576,77.50000001328037,0,100,1.0,5,2.629776352676183e-10
6.04,0.24656126505724016,77.50000000598986,0,100,1.0,5,1.1861110993273127e-10
6.045,0.220700632329898,77.50000000266107,0,100,1.0,5,5.2694412090096365e-11
6.05,0.17683207093748562,77.50000000116447,0,100,1.0,5,2.3058729843031337e-11
6.055,0.12682276483597799,77.50000000050191,0,100,1.0,5,9.938874805667714e-12
6.06,0.08141644409447898,77.50000000021309,0,100,1.0,5,4.219638939692159e-12
6.065,0.04678490952598309,77.50000000008912,0,100,1.0,5,1.7646786122580548e-12
6.07,0.024064605020532023,77.5000000000367,0,100,1.0,5,7.268641134528074e-13
6.075,0.011080171739334697,77.5000000000149,0,100,1.0,5,2.949104107234e-13
6.08,0.004571212771509492,77.50000000000595,0,100,1.0,5,1.1790788367662653e-13
6.085,0.0017299316936037438,77.50000000000234,0,100,1.0,5,4.6431505505115455e-14
6.09,0.0008899431850697582,77.50000000000091,0,100,1.0,5,1.800979607471145e-14
6.095,0.002128806368910263,77.50000000000034,0,100,1.0,5,6.7536735280167935e-15
6.1,0.009309664818487698,77.50000000000013,0,100,1.0,5,2.5326275730062976e-15
6.105,0.03503263543368747,77.50000000000004,0,100,1.0,5,8.442091910020992e-16
6.11,0.10606267793605692,77.50000000000001,0,100,1.0,5,2.814030636673664e-16
6.115,0.25734927343160535,77.5,0,100,1.0,5,0.0
6.12,0.5003202479539708,77.5,0,100,1.0,5,0.0
6.125,0.7793067891790435,77.5,0,100,1.0,5,0.0
6.13,0.9720477407234077,77.5000029761183,1,100,1.0,5,5.8933035560504224e-08
6.135,0.967267334488097,77.50000618532628,0,100,1.0,5,1.2248170861258217e-07
6.14,0.7505869905515209,77.50001392552794,0,100,1.0,5,2.7575302847298647e-07
6.145,0.4028369574773956,77.50003551779191,0,100,1.0,5,7.033226121719882e-07
6.15,0.04553881263121314,77.50010313559092,0,100,1.0,5,2.0422889290915523e-06
6.155,-0.189138810908105,77.50032572609189,0,100,1.0,5,6.450021621528529e-06
6.16,-0.22868072635956738,77.50105352781613,0,100,1.0,5,2.0861936952983477e-05
6.165,-0.14104670682394166,77.50333849843346,0,100,1.0,5,6.610887987058545e-05
6.17,-0.051158381651102834,77.51010867794061,0,100,1.0,5,0.00020017184040806803
6.175,-0.008206426846427752,77.52887923627338,0,100,1.0,5,0.0005718660648194646
6.18,0.005350271385530505,77.57736547743413,0,100,1.0,5,0.0015319896521609532
6.185,0.01084668799215426,77.6937614840257,0,100,1.0,5,0.003836861069815838
6.19,0.016256859896386415,77.95299178483792,0,100,1.0,5,0.008970134353226137
6.195,0.02345021205790711,78.48782060961162,0,100,1.0,5,0.019560804150725097
6.2,0.0330621597308209,79.50840637712494,0,100,1.0,5,0.03977042330940479
6.205,0.04559141319943196,81.30639038119868,0,100,1.0,5,0.07537406695442934
6.21,0.06149084917446989,84.22371682098306,0,100,1.0,5,0.13314290734619916
6.215,0.08111733445924295,88.56905596488694,0,100,1.0,5,0.2191892270274642
6.22,0.1046628598272375,94.48254071967199,0,100,1.0,5,0.3362879350430097
6.225,0.1320831047748631,101.78187771882364,0,100,1.0,5,0.4808292617588839
6.23,0.16303381314489318,109.85607098931862,0,100,1.0,5,0.6407142770162104
6.235,0.19682662652900276,117.68289868067583,0,100,1.0,5,0.7957009639737789
6.24,0.23241585813229,124.01296766753546,0,100,1.0,5,0.9210488647036725
6.245,0.26842527782774417,127.69015041412591,0,100,1.0,5,0.9938643646361566
6.25,0.30321927900592993,128.0,0,100,1.0,5,1.0
6.255,0.3350163137995362,124.90331438199323,0,100,1.0,5,0.9386794927127372
6.26,0.3620352400956416,119.0509908262225,0,100,1.0,5,0.8227918975489604
6.265,0.3826586036805073,111.57334395352093,0,100,1.0,5,0.6747196822479392
6.27,0.39559233134833227,103.73799888891169,0,100,1.0,5,0.5195643344338948
6.275,0.4,96.61848240541384,0,100,1.0,5,0.3785838100081949
6.28,0.39559233134833227,90.88948241854119,0,100,1.0,5,0.265138265713687
6.285,0.3826586036805073,86.7893676493135,0,100,1.0,5,0.18394787424383177
6.29,0.3620352400956416,84.21448228450262,0,100,1.0,5,0.13296004523767568
6.295,0.3350163137995362,82.8706742557033,0,100,1.0,5,0.10634998526145162
6.3,0.3032192790059296,82.41285373443978,0,100,1.0,5,0.09728423236514412
6.305,0.26842527782774417,82.53508919471457,0,100,1.0,5,0.09970473652900144
6.31,0.23241585813229,83.00723630449004,0,100,1.0,5,0.10905418424732743
6.315,0.19682662652900276,83.67399525905368,0,100,1.0,5,0.12225733186244916
6.32,0.16303381314489318,84.43655035035052,0,100,1.0,5,0.13735743268020822
6.325,0.13208310477486307,85.23167363197578,0,100,1.0,5,0.15310244815793625
6.33,0.10466285982723562,86.01556443973125,0,100,1.0,5,0.1686250384105198
6.335,0.08111733445917907,86.75400535564901,0,100,1.0,5,0.18324763080493095
6.34,0.06149084917398798,87.41763420030695,0,100,1.0,5,0.19638879604568216
6.345,0.04559141333598128,87.98046505761806,0,100,1.0,5,0.20753396153699133
6.35,0.03306217087257399,88.42010861624007,0,100,1.0,5,0.2162397745790113
6.355,0.02345067901074276,88.71867720825321,0,100,1.0,5,0.22215202392580616
6.36,0.016268788896435526,88.86378878992376,0,100,1.0,5,0.2250255205925497
6.365,0.011039026374860051,88.84935272165478,0,100,1.0,5,0.22473965785455013
6.37,0.007326255555493689,88.67597412457343,0,100,1.0,5,0.22130641830838474
6.375,0.0047556414315231815,88.3509063891692,0,100,1.0,5,0.21486943344889498
6.38,0.0030193390635632803,87.88754641372572,0,100,1.0,5,0.20569398839060823
6.385,0.001874953127946523,87.30451845386142,0,100,1.0,5,0.19414888027448354
6.39,0.0011387927410965778,86.62443306399382,0,100,1.0,5,0.18068184285136277
6.395,0.0006765107634274089,85.87243609243906,0,100,1.0,5,0.16579081371166454
6.4,0.00039307957404427924,85.07467708397961,0,100,1.0,5,0.1499936056233586
6.405,0.00022338910511776318,84.25682600304509,0,100,1.0,5,0.13379853471376418
6.41,0.00012417073320013317,83.4427529734118,0,100,1.0,5,0.11767827670122376
6.415,6.750753468904987e-05,82.65346049137668,0,100,1.0,5,0.10204872260151836
6.42,3.5897234866245036e-05,81.90632528007868,0,100,1.0,5,0.087253965942152
6.425,1.8670050400879738e-05,81.21467213191562,0,100,1.0,5,0.07355786399832911
6.43,9.497421874143672e-06,80.58766909939999,0,100,1.0,5,0.06114196236435621
6.435,4.725434140340885e-06,80.03050585017243,0,100,1.0,5,0.05010902673608776
6.44,2.299606063738814e-06,79.54479733357823,0,100,1.0,5,0.04049103630847982
6.445,1.0945633976635486e-06,79.12914419384192,0,100,1.0,5,0.03226028106617671
6.45,5.095703414287532e-07,78.77977938473101,0,100,1.0,5,0.025342166034277518
6.455,2.3202944964797243e-07,78.49123590647207,0,100,1.0,5,0.019628433791526147
6.46,1.0333746954038608e-07,78.25698150946495,0,100,1.0,5,0.014989732860692077
6.465,4.501406988770349e-08,78.06998030229119,0,100,1.0,5,0.01128673865923139
6.47,0.0,77.9231562441036,0,100,1.0,5,0.008379331566407817
6.475,0.0,77.80974762879951,0,100,1.0,5,0.006133616411871556
6.48,0.0,77.72355354312545,0,100,1.0,5,0.004426802834167279
6.485,0.0,77.65908215107021,0,100,1.0,5,0.0031501416053506637
6.49,0.0,77.61161631556492,0,100,1.0,5,0.002210224070592399
6.495,0.0,77.5772147447986,0,100,1.0,5,0.0015290048474969466
6.5,0.0,77.55266706642777,0,100,1.0,5,0.001042912206490556
6.505,0.0,77.53541965668042,0,100,1.0,5,0.0007013793402062909
6.51,0.0,77.52348636988228,0,100,1.0,5,0.0004650766313322339
6.515,0.0,77.51535513982303,0,100,1.0,5,0.00030406217471344875
6.52,0.0,77.50989824011825,0,100,1.0,5,0.0001960047548167684
6.525,0.0,77.50629112804937,0,100,1.0,5,0.00012457679305681935
6.53,0.0,77.50394244274653,0,100,1.0,5,7.80681731987105e-05
6.535,0.0,77.50243595126653,0,100,1.0,5,4.8236658743251e-05
6.54,0.0,77.50148401443865,0,100,1.0,5,2.9386424527632303e-05
6.545,0.0,77.50089140278692,0,100,1.0,5,1.7651540335041004e-05
6.55,0.0,77.50052792980212,0,100,1.0,5,1.045405548748337e-05
6.555,0.0,77.50030827953894,0,100,1.0,5,6.104545325579148e-06
6.56,0.0,77.50017749231459,0,100,1.0,5,3.5146992988441947e-06
6.565,0.0,77.5001007582777,0,100,1.0,5,1.995213419730693e-06
6.57,0.0,77.50005639599301,0,100,1.0,5,1.1167523368975266e-06
6.575,0.0,77.50003112304574,0,100,1.0,5,6.162979355277718e-07
6.58,0.0,77.5000169348855,0,100,1.0,5,3.35344267206424e-07
6.585,0.0,77.50000908549865,0,100,1.0,5,1.7991086429217397e-07
6.59,0.001684486749771458,77.50000480597605,0,100,1.0,5,9.516784252179542e-08
6.595,0.00456624331333666,77.50000250657536,0,100,1.0,5,4.963515556762041e-08
6.6,0.011079731271581421,77.50000128898024,0,100,1.0,5,2.5524361256042774e-08
6.605,0.024064571490409,77.5000006535489,0,100,1.0,5,1.2941562277269936e-08
6.61,0.046784906529573234,77.5000003267204,0,100,1.0,5,6.469710822082309e-09
6.615,0.08141644351188804,77.50000016104258,0,100,1.0,5,3.1889619481937712e-09
6.62,0.12682276464025305,77.50000007826571,0,100,1.0,5,1.5498161170254738e-09
6.625,0.1768320708657512,77.50000003750323,0,100,1.0,5,7.426381621866816e-10
6.63,0.22070063230473494,77.50000001771872,0,100,1.0,5,3.508657215152738e-10
6.635,0.24656126505113576,77.50000000825395,0,100,1.0,5,1.6344452743927976e-10
6.64,0.24656126505724016,77.50000000379104,0,100,1.0,5,7.5070176697607e-11
6.645,0.220700632329898,77.5000000017168,0,100,1.0,5,3.399602271859087e-11
6.65,0.17683207093748562,77.50000000076656,0,100,1.0,5,1.517944406034508e-11
6.655,0.12682276483597799,77.50000000033748,0,100,1.0,5,6.682759955972617e-12
6.66,0.08141644409447898,77.50000000014649,0,100,1.0,5,2.900702780283213e-12
6.665,0.04678490952598309,77.5000000000627,0,100,1.0,5,1.2415503169004206e-12
6.67,0.024064605020532023,77.50000000002646,0,100,1.0,5,5.239725045486363e-13
6.675,0.011080171739334697,77.50000000001101,0,100,1.0,5,2.1808737434220896e-13
6.68,0.004571212771509492,77.50000000000452,0,100,1.0,5,8.948617424622252e-14
6.685,0.0017299316936037438,77.50000000000182,0,100,1.0,5,3.60195921494229e-14
6.69,0.0008899431850697582,77.50000000000072,0,100,1.0,5,1.4351556247035687e-14
6.695,0.002128806368910263,77.50000000000028,0,100,1.0,5,5.6280612733473285e-15
6.7,0.009309664818487698,77.50000000000011,0,100,1.0,5,2.2512245093389313e-15
6.705,0.03503263543368747,77.50000000000004,0,100,1.0,5,8.442091910020992e-16
6.71,0.10606267793605692,77.50000000000001,0,100,1.0,5,2.814030636673664e-16
6.715,0.25734927343160535,77.5,0,100,1.0,5,0.0
6.72,0.5003202479539708,77.5,0,100,1.0,5,0.0
6.725,0.7793067891790435,77.5,0,100,1.0,5,0.0
6.73,0.9720477407234077,77.50000297262514,1,100,1.0,5,5.8863864154827213e-08
6.735,0.967267334488097,77.50000602692357,0,100,1.0,5,1.193450212231075e-07
6.74,0.7505869905515209,77.50001314884915,0,100,1.0,5,2.603732504761829e-07
6.745,0.4028369574773956,77.50003218277465,0,100,1.0,5,6.372826662597374e-07
6.75,0.04553881263121314,77.5000891336331,0,100,1.0,5,1.7650224375563202e-06
6.755,-0.189138810908105,77.5002690214767,0,100,1.0,5,5.32715795439925e-06
6.76,-0.22868072635956738,77.50083732265789,0,100,1.0,5,1.6580646690828313e-05
6.765,-0.14104670682394166,77.50257317183726,0,100,1.0,5,5.09538977674351e-05
6.77,-0.051158381651102834,77.5076082097914,0,100,1.0,5,0.00015065761963167613
6.775,-0.008206426846427752,77.52135258747315,0,100,1.0,5,0.0004228235143197217
6.78,0.005350271385530505,77.55649700924465,0,100,1.0,5,0.0011187526583099309
6.785,0.01084668799215426,77.64045440057028,0,100,1.0,5,0.0027812752588173757
6.79,0.016256859896386415,77.82751617390053,0,100,1.0,5,0.006485468790109587
6.795,0.02345021205790711,78.21569569973141,0,100,1.0,5,0.014172192073889358
6.8,0.0330621597308209,78.96491975294279,0,100,1.0,5,0.029008311939461205
6.805,0.04559141319943196,80.30785299502509,0,100,1.0,5,0.05560104940643736
6.81,0.06149084917446989,82.53901529227541,0,100,1.0,5,0.0997824810351566
6.815,0.08111733445924295,85.96626012174221,0,100,1.0,5,0.16764871528202394
6.82,0.1046628598272375,90.81658192531896,0,100,1.0,5,0.2636946915904744
6.825,0.1320831047748631,97.10833980159956,0,100,1.0,5,0.38828395646731795
6.83,0.16303381314489318,104.52938760793602,0,100,1.0,5,0.5352353981769508
6.835,0.19682662652900276,112.38094101245923,0,100,1.0,5,0.6907117032170145
6.84,0.23241585813229,119.64223165483207,0,100,1.0,5,0.834499636729348
6.845,0.26842527782774417,125.1719099748606,0,100,1.0,5,0.9439982173239723
6.85,0.30321927900592993,128.0,0,100,1.0,5,1.0
6.855,0.3350163137995362,127.6101393237791,0,100,1.0,5,0.992279986609487
6.86,0.3620352400956416,124.10010403781507,0,100,1.0,5,0.9227743373824767
6.865,0.3826586036805073,118.15277378027952,0,100,1.0,5,0.8050054213916736
6.87,0.39559233134833227,110.8299379581053,0,100,1.0,5,0.6599987714476298
6.875,0.4,103.27489006078626,0,100,1.0,5,0.510393862589827
6.88,0.39559233134833227,96.43814350154825,0,100,1.0,5,0.3750127426049159
6.885,0.3826586036805073,90.9137835998359,0,100,1.0,5,0.26561947722447316
6.89,0.3620352400956416,86.9136909261355,0,100,1.0,5,0.1864097213096139
6.895,0.3350163137995362,84.34894125219122,0,100,1.0,5,0.13562259905329158
6.9,0.3032192790059296,82.95851223358169,0,100,1.0,5,0.10808935116003339
6.905,0.26842527782774417,82.42961246934831,0,100,1.0,5,0.09761608850194681
6.91,0.23241585813229,82.47825904809713,0,100,1.0,5,0.09857938709103227
6.915,0.19682662652900276,82.88510695734854,0,100,1.0,5,0.10663578133363447
6.92,0.16303381314489318,83.49817142324218,0,100,1.0,5,0.11877567174736997
6.925,0.13208310477486307,84.218703403949,0,100,1.0,5,0.1330436317613662
6.93,0.10466285982723562,84.98313005843968,0,100,1.0,5,0.14818079323642938
6.935,0.08111733445917907,85.74806308660983,0,100,1.0,5,0.163327981913066
6.94,0.06149084917398798,86.48049615879853,0,100,1.0,5,0.17783160710492138
6.945,0.04559141333598128,87.1526196872008,0,100,1.0,5,0.19114098390496628
6.95,0.03306217087257399,87.73979816955085,0,100,1.0,5,0.20276828058516538
6.955,0.02345067901074276,88.22034613356011,0,100,1.0,5,0.2122840818526755
6.96,0.016268788896435526,88.57613991279077,0,100,1.0,5,0.2193295032235795
6.965,0.011039026374860051,88.79347868239333,0,100,1.0,5,0.22363324123551145
6.97,0.007326255555493689,88.86386439984123,0,100,1.0,5,0.2250270178186383
6.975,0.0047556414315231815,88.78452238775425,0,100,1.0,5,0.22345588886642082
6.98,0.0030193390635632803,88.55857365850133,0,100,1.0,5,0.21898165660398675
6.985,0.001874953127946523,88.19482866332193,0,100,1.0,5,0.2117787854123154
6.99,0.0011387927410965778,87.70721657209255,0,100,1.0,5,0.2021231004374762
6.995,0.0006765107634274089,87.11390019357708,0,100,1.0,5,0.1903742612589521
7.0,0.00039307957404427924,86.43615452975533,0,100,1.0,5,0.17695355504465995
7.005,0.00022338910511776318,85.6971052748557,0,100,1.0,5,0.16231891633377626
7.01,0.00012417073320013317,84.92043109401514,0,100,1.0,5,0.14693922958445826
7.015,6.750753468904987e-05,84.12913009206147,0,100,1.0,5,0.13126990281309847
7.02,3.5897234866245036e-05,83.3444376315581,0,100,1.0,5,0.11573143824867513
7.025,1.8670050400879738e-05,82.58496182074326,0,100,1.0,5,0.10069231328204475
7.03,9.497421874143672e-06,81.86607755524824,0,100,1.0,5,0.08645698129204434
7.035,4.725434140340885e-06,81.1995932352933,0,100,1.0,5,0.07325927198600607
7.04,2.299606063738814e-06,80.59367928154045,0,100,1.0,5,0.061260975872088036
7.045,1.0945633976635486e-06,80.05302685084085,0,100,1.0,5,0.05055498714536339
7.05,5.095703414287532e-07,79.5791903812813,0,100,1.0,5,0.041172086758045415
7.055,2.3202944964797243e-07,79.17105949996414,0,100,1.0,5,0.03309028712800286
7.06,1.0333746954038608e-07,78.82540422739977,0,100,1.0,5,0.026245628265342033
7.065,4.501406988770349e-08,78.53744138964515,0,100,1.0,5,0.02054339385435946
7.07,0.0,78.30137828670698,0,100,1.0,5,0.01586887696449461
7.075,0.0,78.11090032048983,0,100,1.0,5,0.012097036049303622
7.08,0.0,77.95958084176635,0,100,1.0,5,0.009100610728046602
7.085,0.0,77.84120254425764,0,100,1.0,5,0.006756486024903777
7.09,0.0,77.74998928072644,0,100,1.0,5,0.004950282786662154
7.095,0.0,77.68075457337353,0,100,1.0,5,0.0035792984826442343
7.1,0.0,77.62897810246339,0,100,1.0,5,0.0025540218309582667
7.105,0.0,77.59082417329567,0,100,1.0,5,0.0017984984811024256
7.11,0.0,77.56311690651798,0,100,1.0,5,0.0012498397330292315
7.115,0.0,77.54328612787634,0,100,1.0,5,0.0008571510470562883
7.12,0.0,77.52929615012752,0,100,1.0,5,0.0005801217847033963
7.125,0.0,77.51956731102686,0,100,1.0,5,0.00038747150548240573
7.13,0.0,77.51289764815891,0,100,1.0,5,0.00025539897344380267
7.135,0.0,77.5083897435128,0,100,1.0,5,0.00016613353490680706
7.14,0.0,77.5053857429786,0,100,1.0,5,0.00010664837581393074
7.145,0.0,77.50341193968492,0,100,1.0,5,6.756316207769271e-05
7.15,0.0,77.50213312275217,0,100,1.0,5,4.224005449841435e-05
7.155,0.0,77.50131610073626,0,100,1.0,5,2.606140071804367e-05
7.16,0.0,77.5008013480742,0,100,1.0,5,1.586827869713002e-05
7.165,0.0,77.50048151746557,0,100,1.0,5,9.53499931828185e-06
7.17,0.0,77.5002855365269,0,100,1.0,5,5.654188651540086e-06
7.175,0.0,77.50016709755003,0,100,1.0,5,3.3088623768948633e-06
7.18,0.0,77.50009650221315,0,100,1.0,5,1.910934913937153e-06
7.185,0.0,77.50005500007046,0,100,1.0,5,1.0891103061517737e-06
7.19,0.0,77.50003093484894,0,100,1.0,5,6.125712660728949e-07
7.195,0.0,77.50001717083974,0,100,1.0,5,3.400166285205565e-07
7.2,0.0,77.5000094057591,0,100,1.0,5,1.862526554723805e-07
7.205,0.0,77.50000508457842,0,100,1.0,5,1.0068472116328471e-07
7.21,0.001684486749771458,77.50000271253174,0,100,1.0,5,5.371349977782068e-08
7.215,0.00456624331333666,77.50000142808314,0,100,1.0,5,2.8278874019138535e-08
7.22,0.011079731271581421,77.50000074197783,0,100,1.0,5,1.4692630267547591e-08
7.225,0.024064571490409,77.50000038044087,0,100,1.0,5,7.533482502286362e-09
7.23,0.046784906529573234,77.50000019250507,0,100,1.0,6,3.811981577479792e-09
7.235,0.08141644351188804,77.50000009612934,0,100,1.0,6,1.9035513055809637e-09
7.24,0.12682276464025305,77.50000004737274,0,100,1.0,6,9.38073996918986e-10
7.245,0.1768320708657512,77.5000000230388,0,100,1.0,6,4.562137422512348e-10
7.25,0.22070063230473494,77.50000001105732,0,100,1.0,6,2.1895690980894113e-10
7.255,0.24656126505113576,77.5000000052372,0,100,1.0,6,1.0370687806865288e-10
7.26,0.24656126505724016,77.50000000244798,0,100,1.0,6,4.8474773150404206e-11
7.265,0.220700632329898,77.50000000112921,0,100,1.0,6,2.2360568842072603e-11
7.27,0.17683207093748562,77.50000000051404,0,100,1.0,6,1.0178911618975978e-11
7.275,0.12682276483597799,77.50000000023093,0,100,1.0,6,4.5727997845947045e-12
7.28,0.08141644409447898,77.50000000010237,0,100,1.0,6,2.0272276706597077e-12
7.285,0.04678490952598309,77.50000000004479,0,100,1.0,6,8.869824566795389e-13
7.29,0.024064605020532023,77.50000000001934,0,100,1.0,6,3.829895696512857e-13
7.295,0.011080171739334697,77.50000000000824,0,100,1.0,6,1.632137769270725e-13
7.3,0.004571212771509492,77.50000000000347,0,100,1.0,6,6.86623475348374e-14
7.305,0.0017299316936037438,77.50000000000144,0,100,1.0,6,2.842170943040401e-14
7.31,0.0008899431850697582,77.50000000000058,0,100,1.0,6,1.1537525610362024e-14
7.315,0.002128806368910263,77.50000000000024,0,100,1.0,6,4.783852082345229e-15
7.32,0.009309664818487698,77.5000000000001,0,100,1.0,6,1.969821445671565e-15
7.325,0.03503263543368747,77.50000000000004,0,100,1.0,6,8.442091910020992e-16
7.33,0.10606267793605692,77.50000000000001,0,100,1.0,6,2.814030636673664e-16
7.335,0.25734927343160535,77.5,0,100,1.0,6,0.0
7.34,0.5003202479539708,77.5,0,100,1.0,6,0.0
7.345,0.7793067891790435,77.5,0,100,1.0,6,0.0
7.35,0.9720477407234077,77.5000029761183,1,100,1.0,6,5.8933035560504224e-08
7.355,0.967267334488097,77.50000618532628,0,100,1.0,6,1.2248170861258217e-07
7.36,0.7505869905515209,77.50001392552794,0,100,1.0,6,2.7575302847298647e-07
7.365,0.4028369574773956,77.50003551779191,0,100,1.0,6,7.033226121719882e-07
7.37,0.04553881263121314,77.50010313559092,0,100,1.0,6,2.0422889290915523e-06
7.375,-0.189138810908105,77.50032572609189,0,100,1.0,6,6.450021621528529e-06
7.38,-0.22868072635956738,77.50105352781613,0,100,1.0,6,2.0861936952983477e-05
7.385,-0.14104670682394166,77.50333849843346,0,100,1.0,6,6.610887987058545e-05
7.39,-0.051158381651102834,77.51010867794061,0,100,1.0,6,0.00020017184040806803
7.395,-0.008206426846427752,77.52887923627338,0,100,1.0,6,0.0005718660648194646
7.4,0.005350271385530505,77.57736547743413,0,100,1.0,6,0.0015319896521609532
7.405,0.01084668799215426,77.6937614840257,0,100,1.0,6,0.003836861069815838
7.41,0.016256859896386415,77.95299178483792,0,100,1.0,6,0.008970134353226137
7.415,0.02345021205790711,78.48782060961162,0,100,1.0,6,0.019560804150725097
7.42,0.0330621597308209,79.50840637712494,0,100,1.0,6,0.03977042330940479
7.425,0.04559141319943196,81.30639038119868,0,100,1.0,6,0.07537406695442934
7.43,0.06149084917446989,84.22371682098306,0,100,1.0,6,0.13314290734619916
7.435,0.08111733445924295,88.56905596488694,0,100,1.0,6,0.2191892270274642
7.44,0.1046628598272375,94.48254071967199,0,100,1.0,6,0.3362879350430097
7.445,0.1320831047748631,101.78187771882364,0,100,1.0,6,0.4808292617588839
7.45,0.16303381314489318,109.85607098931862,0,100,1.0,6,0.6407142770162104
7.455,0.19682662652900276,117.68289868067583,0,100,1.0,6,0.7957009639737789
7.46,0.23241585813229,124.01296766753546,0,100,1.0,6,0.9210488647036725
7.465,0.26842527782774417,127.69015041412591,0,100,1.0,6,0.9938643646361566
7.47,0.30321927900592993,128.0,0,100,1.0,6,1.0
7.475,0.3350163137995362,124.90331438199323,0,100,1.0,6,0.9386794927127372
7.48,0.3620352400956416,119.0509908262225,0,100,1.0,6,0.8227918975489604
7.485,0.3826586036805073,111.57334395352093,0,100,1.0,6,0.6747196822479392
7.49,0.39559233134833227,103.73799888891169,0,100,1.0,6,0.5195643344338948
7.495,0.4,96.61848240541384,0,100,1.0,6,0.3785838100081949
7.5,0.39559233134833227,90.88948241854119,0,100,1.0,6,0.265138265713687
7.505,0.3826586036805073,86.7893676493135,0,100,1.0,6,0.18394787424383177
7.51,0.3620352400956416,84.21448228450262,0,100,1.0,6,0.13296004523767568
7.515,0.3350163137995362,82.8706742557033,0,100,1.0,6,0.10634998526145162
7.52,0.3032192790059296,82.41285373443978,0,100,1.0,6,0.09728423236514412
7.525,0.26842527782774417,82.53508919471457,0,100,1.0,6,0.09970473652900144
7.53,0.23241585813229,83.00723630449004,0,100,1.0,6,0.10905418424732743
7.535,0.19682662652900276,83.67399525905368,0,100,1.0,6,0.12225733186244916
7.54,0.16303381314489318,84.43655035035052,0,100,1.0,6,0.13735743268020822
7.545,0.13208310477486307,85.23167363197578,0,100,1.0,6,0.15310244815793625
7.55,0.10466285982723562,86.01556443973125,0,100,1.0,6,0.1686250384105198
7.555,0.08111733445917907,86.75400535564901,0,100,1.0,6,0.18324763080493095
7.56,0.06149084917398798,87.41763420030695,0,100,1.0,6,0.19638879604568216
7.565,0.04559141333598128,87.98046505761806,0,100,1.0,6,0.20753396153699133
7.57,0.03306217087257399,88.42010861624007,0,100,1.0,6,0.2162397745790113
7.575,0.02345067901074276,88.71867720825321,0,100,1.0,6,0.22215202392580616
7.58,0.016268788896435526,88.86378878992376,0,100,1.0,6,0.2250255205925497
7.585,0.011039026374860051,88.84935272165478,0,100,1.0,6,0.22473965785455013
7.59,0.007326255555493689,88.67597412457343,0,100,1.0,6,0.22130641830838474
7.595,0.0047556414315231815,88.3509063891692,0,100,1.0,6,0.21486943344889498
7.6,0.0030193390635632803,87.88754641372572,0,100,1.0,6,0.20569398839060823
7.605,0.001874953127946523,87.30451845386142,0,100,1.0,6,0.19414888027448354
7.61,0.0011387927410965778,86.62443306399382,0,100,1.0,6,0.18068184285136277
7.615,0.0006765107634274089,85.87243609243906,0,100,1.0,6,0.16579081371166454
7.62,0.00039307957404427924,85.07467708397961,0,100,1.0,6,0.1499936056233586
7.625,0.00022338910511776318,84.25682600304509,0,100,1.0,6,0.13379853471376418
7.63,0.00012417073320013317,83.4427529734118,0,100,1.0,6,0.11767827670122376
7.635,6.750753468904987e-05,82.65346049137668,0,100,1.0,6,0.10204872260151836
7.64,3.5897234866245036e-05,81.90632528007868,0,100,1.0,6,0.087253965942152
7.645,1.8670050400879738e-05,81.21467213191562,0,100,1.0,6,0.07355786399832911
7.65,9.497421874143672e-06,80.58766909939999,0,100,1.0,6,0.06114196236435621
7.655,4.725434140340885e-06,80.03050585017243,0,100,1.0,6,0.05010902673608776
7.66,2.299606063738814e-06,79.54479733357823,0,100,1.0,6,0.04049103630847982
7.665,1.0945633976635486e-06,79.12914419384192,0,100,1.0,6,0.03226028106617671
7.67,5.095703414287532e-07,78.77977938473101,0,100,1.0,6,0.025342166034277518
7.675,2.3202944964797243e-07,78.49123590647207,0,100,1.0,6,0.019628433791526147
7.68,1.0333746954038608e-07,78.25698150946495,0,100,1.0,6,0.014989732860692077
7.685,4.501406988770349e-08,78.06998030229119,0,100,1.0,6,0.01128673865923139
7.69,0.0,77.9231562441036,0,100,1.0,6,0.008379331566407817
7.695,0.0,77.80974762879951,0,100,1.0,6,0.006133616411871556
7.7,0.0,77.72355354312545,0,100,1.0,6,0.004426802834167279
7.705,0.0,77.65908215107021,0,100,1.0,6,0.0031501416053506637
7.71,0.0,77.61161631556492,0,100,1.0,6,0.002210224070592399
7.715,0.0,77.5772147447986,0,100,1.0,6,0.0015290048474969466
7.72,0.0,77.55266706642777,0,100,1.0,6,0.001042912206490556
7.725,0.0,77.53541965668042,0,100,1.0,6,0.0007013793402062909
7.73,0.0,77.52348636988228,0,100,1.0,6,0.0004650766313322339
7.735,0.0,77.51535513982303,0,100,1.0,6,0.00030406217471344875
7.74,0.0,77.50989824011825,0,100,1.0,6,0.0001960047548167684
7.745,0.0,77.50629112804937,0,100,1.0,6,0.00012457679305681935
7.75,0.0,77.50394244274653,0,100,1.0,6,7.80681731987105e-05
7.755,0.0,77.50243595126653,0,100,1.0,6,4.8236658743251e-05
7.76,0.0,77.50148401443865,0,100,1.0,6,2.9386424527632303e-05
7.765,0.0,77.50089140278692,0,100,1.0,6,1.7651540335041004e-05
7.77,0.0,77.50052792980212,0,100,1.0,6,1.045405548748337e-05
7.775,0.0,77.50030827953894,0,100,1.0,6,6.104545325579148e-06
7.78,0.0,77.50017749231459,0,100,1.0,6,3.5146992988441947e-06
7.785,0.0,77.5001007582777,0,100,1.0,6,1.995213419730693e-06
7.79,0.0,77.50005639599301,0,100,1.0,6,1.1167523368975266e-06
7.795,0.0,77.50003112304574,0,100,1.0,6,6.162979355277718e-07
7.8,0.0,77.5000169348855,0,100,1.0,6,3.35344267206424e-07
7.805,0.0,77.50000908549865,0,100,1.0,6,1.7991086429217397e-07
7.81,0.001684486749771458,77.50000480597605,0,100,1.0,6,9.516784252179542e-08
7.815,0.00456624331333666,77.50000250657536,0,100,1.0,6,4.963515556762041e-08
7.82,0.011079731271581421,77.50000128898024,0,100,1.0,6,2.5524361256042774e-08
7.825,0.024064571490409,77.5000006535489,0,100,1.0,6,1.2941562277269936e-08
7.83,0.046784906529573234,77.5000003267204,0,100,1.0,6,6.469710822082309e-09
7.835,0.08141644351188804,77.50000016104258,0,100,1.0,6,3.1889619481937712e-09
7.84,0.12682276464025305,77.50000007826571,0,100,1.0,6,1.5498161170254738e-09
7.845,0.1768320708657512,77.50000003750323,0,100,1.0,6,7.426381621866816e-10
7.85,0.22070063230473494,77.50000001771872,0,100,1.0,6,3.508657215152738e-10
7.855,0.24656126505113576,77.50000000825395,0,100,1.0,6,1.6344452743927976e-10
7.86,0.24656126505724016,77.50000000379104,0,100,1.0,6,7.5070176697607e-11
7.865,0.220700632329898,77.5000000017168,0,100,1.0,6,3.399602271859087e-11
7.87,0.17683207093748562,77.50000000076656,0,100,1.0,6,1.517944406034508e-11
7.875,0.12682276483597799,77.50000000033748,0,100,1.0,6,6.682759955972617e-12
7.88,0.08141644409447898,77.50000000014649,0,100,1.0,6,2.900702780283213e-12
7.885,0.04678490952598309,77.5000000000627,0,100,1.0,6,1.2415503169004206e-12
7.89,0.024064605020532023,77.50000000002646,0,100,1.0,6,5.239725045486363e-13
7.895,0.011080171739334697,77.50000000001101,0,100,1.0,6,2.1808737434220896e-13
7.9,0.004571212771509492,77.50000000000452,0,100,1.0,6,8.948617424622252e-14
7.905,0.0017299316936037438,77.50000000000182,0,100,1.0,6,3.60195921494229e-14
7.91,0.0008899431850697582,77.50000000000072,0,100,1.0,6,1.4351556247035687e-14
7.915,0.002128806368910263,77.50000000000028,0,100,1.0,6,5.6280612733473285e-15
7.92,0.009309664818487698,77.50000000000011,0,100,1.0,6,2.2512245093389313e-15
7.925,0.03503263543368747,77.50000000000004,0,100,1.0,6,8.442091910020992e-16
7.93,0.10606267793605692,77.50000000000001,0,100,1.0,6,2.814030636673664e-16
7.935,0.25734927343160535,77.5,0,100,1.0,6,0.0
7.94,0.5003202479539708,77.5,0,100,1.0,6,0.0
7.945,0.7793067891790435,77.5,0,100,1.0,6,0.0
7.95,0.9720477407234077,77.50000297947125,1,100,1.0,6,5.8999430643555095e-08
7.955,0.967267334488097,77.50000669548267,0,100,1.0,6,1.3258381520497303e-07
7.96,0.7505869905515209,77.50001668432624,0,100,1.0,6,3.303826978332503e-07
7.965,0.4028369574773956,77.50004864066203,0,100,1.0,6,9.63181426330644e-07
7.97,0.04553881263121314,77.5001638762621,0,100,1.0,6,3.245074497168515e-06
7.975,-0.189138810908105,77.50059305601808,0,100,1.0,6,1.1743683526253451e-05
7.98,-0.22868072635956738,77.50214361864761,0,100,1.0,6,4.244789401204033e-05
7.985,-0.14104670682394166,77.50740440946578,0,100,1.0,6,0.0001466219696193647
7.99,-0.051158381651102834,77.52391675045838,0,100,1.0,6,0.0004735990189778864
7.995,-0.008206426846427752,77.5715281770081,0,100,1.0,6,0.001416399544714948
8.0,0.005350271385530505,77.69717852300056,0,100,1.0,6,0.003904525207931869
8.005,0.01084668799215426,77.99996608244125,0,100,1.0,6,0.009900318464183116
8.01,0.016256859896386415,78.66488444994854,0,100,1.0,6,0.023067018810862275
8.015,0.02345021205790711,79.99269205274055,0,100,1.0,6,0.04936023866812973
8.02,0.0330621597308209,82.39762966193258,0,100,1.0,6,0.09698276558282344
8.025,0.04559141319943196,86.33439214585457,0,100,1.0,6,0.17493845833375377
8.03,0.06149084917446989,92.12891580999748,0,100,1.0,6,0.2896815011880689
8.035,0.08111733445924295,99.73729946877143,0,100,1.0,6,0.44034256373804803
8.04,0.1046628598272375,108.53063759966085,0,100,1.0,6,0.6144680712804128
8.045,0.1320831047748631,117.25196435735869,0,100,1.0,6,0.7871676110368057
8.05,0.16303381314489318,124.25521878140476,0,100,1.0,6,0.9258459164634607
8.055,0.19682662652900276,128.0,0,100,1.0,6,1.0
8.06,0.23241585813229,127.60821013993106,0,100,1.0,6,0.99224178494913
8.065,0.26842527782774417,123.21009401234988,0,100,1.0,6,0.9051503764821759
8.07,0.30321927900592993,115.89514598451852,0,100,1.0,6,0.7602999204855153
8.075,0.3350163137995362,107.29447867544081,0,100,1.0,6,0.5899896767414022
8.08,0.3620352400956416,99.01424251870807,0,100,1.0,6,0.42602460433085293
8.085,0.3826586036805073,92.18796047940592,0,100,1.0,6,0.2908507025624934
8.09,0.39559233134833227,87.30619325917266,0,100,1.0,6,0.19418204473609224
8.095,0.4,84.31153753264881,0,100,1.0,6,0.13488193133958046
8.1,0.39559233134833227,82.8311073691211,0,100,1.0,6,0.10556648255685346
8.105,0.3826586036805073,82.40599310593515,0,100,1.0,6,0.09714837833534956
8.11,0.3620352400956416,82.63713816175672,0,100,1.0,6,0.10172550815359849
8.115,0.3350163137995362,83.23817846509434,0,100,1.0,6,0.1136272963385017
8.12,0.3032192790059296,84.02691167312304,0,100,1.0,6,0.1292457757054067
8.125,0.26842527782774417,84.89307467702398,0,100,1.0,6,0.1463975183569104
8.13,0.23241585813229,85.76705880776896,0,100,1.0,6,0.16370413480730617
8.135,0.19682662652900276,86.59894936510275,0,100,1.0,6,0.1801772151505496
8.14,0.16303381314489318,87.34785757910886,0,100,1.0,6,0.1950070807744329
8.145,0.13208310477486307,87.97819166628076,0,100,1.0,6,0.20748894388674782
8.15,0.10466285982723562,88.45958304429135,0,100,1.0,6,0.2170214464216109
8.155,0.08111733445917907,88.76826866188912,0,100,1.0,6,0.22313403290869552
8.16,0.06149084917398798,88.88869777488769,0,100,1.0,6,0.22551876781955818
8.165,0.04559141333598128,88.8147323001406,0,100,1.0,6,0.22405410495327932
8.17,0.03306217087257399,88.55013959537686,0,100,1.0,6,0.21881464545300716
8.175,0.02345067901074276,88.1082683696946,0,100,1.0,6,0.21006472019197225
8.18,0.016268788896435526,87.51093131541633,0,100,1.0,6,0.19823626367161049
8.185,0.011039026374860051,86.78662085692815,0,100,1.0,6,0.18389348231540897
8.19,0.007326255555493689,85.96826028051984,0,100,1.0,6,0.16768832238653153
8.195,0.0047556414315231815,85.09073675815792,0,100,1.0,6,0.1503116189734241
8.2,0.0030193390635632803,84.18847199298509,0,100,1.0,6,0.1324449899601007
8.205,0.001874953127946523,83.29326166418531,0,100,1.0,6,0.11471805275614473
8.21,0.0011387927410965778,82.4325628331511,0,100,1.0,6,0.09767451154754644
8.215,0.0006765107634274089,81.6283390472271,0,100,1.0,6,0.08174928806390298
8.22,0.00039307957404427924,80.89649780311149,0,100,1.0,6,0.06725738223983142
8.225,0.00022338910511776318,80.24688557285587,0,100,1.0,6,0.05439377371991829
8.23,0.00012417073320013317,79.68375065546115,0,100,1.0,6,0.04324258723685453
8.235,6.750753468904987e-05,79.2065490600829,0,100,1.0,6,0.03379305069471102
8.24,3.5897234866245036e-05,78.81095491810038,0,100,1.0,6,0.02595950332872037
8.245,1.8670050400879738e-05,78.48994253721577,0,100,1.0,6,0.019602822519124118
8.25,9.497421874143672e-06,78.23482760765253,0,100,1.0,6,0.014551041735693738
8.255,4.725434140340885e-06,78.03618442262216,0,100,1.0,6,0.010617513319250621
8.26,2.299606063738814e-06,77.88458839065662,0,100,1.0,6,0.007615611696170638
8.265,1.0945633976635486e-06,77.77116360414196,0,100,1.0,6,0.005369576319642791
8.27,5.095703414287532e-07,77.68794028219736,0,100,1.0,6,0.0037215897464823746
8.275,2.3202944964797243e-07,77.62804469831093,0,100,1.0,6,0.0025355385804144556
8.28,1.0333746954038608e-07,77.58575443254034,0,100,1.0,6,0.001698107575056257
8.285,4.501406988770349e-08,77.55645531088335,0,100,1.0,6,0.0011179269481851636
8.29,0.0,77.5365347616806,0,100,1.0,6,0.0007234606273385961
8.295,0.0,77.52324133142528,0,100,1.0,6,0.00046022438465905734
8.3,0.0,77.51453345862433,0,100,1.0,6,0.00028779125988768274
8.305,0.0,77.508933676106,0,100,1.0,6,0.00017690447734647176
8.31,0.0,77.50539814662669,0,100,1.0,6,0.00010689399260770349
8.315,0.0,77.50320636087476,0,100,1.0,6,6.349229454963054e-05
8.32,0.0,77.50187211866701,0,100,1.0,6,3.707165677245948e-05
8.325,0.0,77.50107450291127,0,100,1.0,6,2.1277285371594854e-05
8.33,0.0,77.50060622671245,0,100,1.0,6,1.2004489355428569e-05
8.335,0.0,77.50033621399805,0,100,1.0,6,6.6577029317591265e-06
8.34,0.0,77.50018329463894,0,100,1.0,6,3.6295968107757594e-06
8.345,0.0,77.50009822838055,0,100,1.0,6,1.9451164465602115e-06
8.35,0.0,77.50005174607993,0,100,1.0,6,1.0246748501577884e-06
8.355,0.001684486749771458,77.50002679607444,0,100,1.0,6,5.30615335379696e-07
8.36,0.00456624331333666,77.50001364011858,0,100,1.0,6,2.701013580454036e-07
8.365,0.011079731271581421,77.50000682524689,0,100,1.0,6,1.3515340366337672e-07
8.37,0.024064571490409,77.50000335715842,0,100,1.0,6,6.647838454858237e-08
8.375,0.046784906529573234,77.50000162322436,0,100,1.0,6,3.214305670913781e-08
8.38,0.08141644351188804,77.5000007715046,0,100,1.0,6,1.5277318859919224e-08
8.385,0.12682276464025305,77.50000036045557,0,100,1.0,6,7.1377341177283975e-09
8.39,0.1768320708657512,77.50000016554581,0,100,1.0,6,3.2781349208301317e-09
8.395,0.22070063230473494,77.50000007473739,0,100,1.0,6,1.4799482387658855e-09
8.4,0.24656126505113576,77.50000003316735,0,100,1.0,6,6.567792734311315e-10
8.405,0.24656126505724016,77.50000001446895,0,100,1.0,6,2.8651390610969314e-10
8.41,0.220700632329898,77.50000000620464,0,100,1.0,6,1.2286423583699984e-10
8.415,0.17683207093748562,77.50000000261547,0,100,1.0,6,5.179138965878779e-11
8.42,0.12682276483597799,77.50000000108376,0,100,1.0,6,2.1460641844464365e-11
8.425,0.08141644409447898,77.50000000044145,0,100,1.0,6,8.74150476976307e-12
8.43,0.04678490952598309,77.50000000017675,0,100,1.0,6,3.5000913058947033e-12
8.435,0.024064605020532023,77.50000000006956,0,100,1.0,7,1.3774679966517585e-12
8.44,0.011080171739334697,77.50000000002692,0,100,1.0,7,5.32977402585992e-13
8.445,0.004571212771509492,77.50000000001023,0,100,1.0,7,2.0261020584050382e-13
8.45,0.0017299316936037438,77.50000000000382,0,100,1.0,7,7.569742412652157e-14
8.455,0.0008899431850697582,77.5000000000014,0,100,1.0,7,2.7858903303069274e-14
8.46,0.002128806368910263,77.50000000000051,0,100,1.0,7,1.013051029202519e-14
8.465,0.009309664818487698,77.50000000000018,0,100,1.0,7,3.6582398276757634e-15
8.47,0.03503263543368747,77.50000000000006,0,100,1.0,7,1.1256122546694657e-15
8.475,0.10606267793605692,77.50000000000001,0,100,1.0,7,2.814030636673664e-16
8.48,0.25734927343160535,77.5,0,100,1.0,7,0.0
8.485,0.5003202479539708,77.5,0,100,1.0,7,0.0
8.49,0.7793067891790435,77.5,0,100,1.0,7,0.0
8.495,0.9720477407234077,77.50000297456887,1,100,1.0,7,5.890235390306951e-08
8.5,0.967267334488097,77.5000062222234,0,100,1.0,7,1.2321234465270038e-07
8.505,0.7505869905515209,77.50001412492644,0,100,1.0,7,2.797015136113962e-07
8.51,0.4028369574773956,77.50003641983405,0,100,1.0,7,7.211848326008267e-07
8.515,0.04553881263121314,77.50010706994215,0,100,1.0,7,2.1201968741812684e-06
8.52,-0.189138810908105,77.50034212581059,0,100,1.0,7,6.774768526539258e-06
8.525,-0.22868072635956738,77.5011174452075,0,100,1.0,7,2.212762787125219e-05
8.53,-0.14104670682394166,77.50356855475515,0,100,1.0,7,7.066445059699122e-05
8.535,-0.051158381651102834,77.51086963859841,0,100,1.0,7,0.00021524036828529712
8.54,-0.008206426846427752,77.53118939740251,0,100,1.0,7,0.0006176118297527509
8.545,0.005350271385530505,77.5838025515997,0,100,1.0,7,0.001659456467320855
8.55,0.01084668799215426,77.71022945889035,0,100,1.0,7,0.004162959581987194
8.555,0.016256859896386415,77.99167912939262,0,100,1.0,7,0.009736220384012324
8.56,0.02345021205790711,78.5712635147241,0,100,1.0,7,0.021213138905427614
8.565,0.0330621597308209,79.67352667251653,0,100,1.0,7,0.043040132129040204
