Time,ECG,Pressure,R_Peaks,mean_hr,hrv_scale,Phase_Bin,Normalized_Pressure
0.0,0.001684486749771458,77.5,0,100,1.0,0,0.0
0.005,0.00456624331333666,77.5,0,100,1.0,0,0.0
0.01,0.011079731271581421,77.5,0,100,1.0,0,0.0
0.015,0.024064571490409,77.5,0,100,1.0,0,0.0
0.02,0.046784906529573234,77.5,0,100,1.0,0,0.0
0.025,0.08141644351188804,77.5,0,100,1.0,0,0.0
0.03,0.12682276464025305,77.5,0,100,1.0,0,0.0
0.035,0.1768320708657512,77.5,0,100,1.0,0,0.0
0.04,0.22070063230473494,77.5,0,100,1.0,0,0.0
0.045,0.24656126505113576,77.5,0,100,1.0,0,0.0
0.05,0.24656126505724016,77.5,0,100,1.0,0,0.0
0.055,0.220700632329898,77.5,0,100,1.0,0,0.0
0.06,0.17683207093748562,77.5,0,100,1.0,0,0.0
0.065,0.12682276483597799,77.5,0,100,1.0,0,0.0
0.07,0.08141644409447898,77.5,0,100,1.0,0,0.0
0.075,0.04678490952598309,77.5,0,100,1.0,0,0.0
0.08,0.024064605020532023,77.5,0,100,1.0,0,0.0
0.085,0.011080171739334697,77.5,0,100,1.0,0,0.0
0.09,0.004571212771509492,77.5,0,100,1.0,0,0.0
0.095,0.0017299316936037438,77.5,0,100,1.0,0,0.0
0.1,0.0008899431850697582,77.5,0,100,1.0,0,0.0
0.105,0.002128806368910263,77.5,0,100,1.0,0,0.0
0.11,0.009309664818487698,77.5,0,100,1.0,0,0.0
0.115,0.03503263543368747,77.5,0,100,1.0,0,0.0
0.12,0.10606267793605692,77.5,0,100,1.0,0,0.0
0.125,0.25734927343160535,77.5,0,100,1.0,0,0.0
0.13,0.5003202479539708,77.5,0,100,1.0,0,0.0
0.135,0.7793067891790435,77.5,0,100,1.0,0,0.0
0.14,0.9720477407234077,77.5,0,100,1.0,0,0.0
0.145,0.967267334488097,77.5,0,100,1.0,0,0.0
0.15,0.7505869905515209,77.5,0,100,1.0,0,0.0
0.155,0.4028369574773956,77.5,0,100,1.0,0,0.0
0.16,0.04553881263121314,77.5,0,100,1.0,0,0.0
0.165,-0.189138810908105,77.5,0,100,1.0,0,0.0
0.17,-0.22868072635956738,77.5,0,100,1.0,0,0.0
0.175,-0.14104670682394166,77.5,0,100,1.0,0,0.0
0.18,-0.051158381651102834,77.5,0,100,1.0,0,0.0
0.185,-0.008206426846427752,77.5,0,100,1.0,0,0.0
0.19,0.005350271385530505,77.5,0,100,1.0,0,0.0
0.195,0.01084668799215426,77.5,0,100,1.0,0,0.0
0.2,0.016256859896386415,77.5,0,100,1.0,0,0.0
0.205,0.02345021205790711,77.5,0,100,1.0,0,0.0
0.21,0.0330621597308209,77.5,0,100,1.0,0,0.0
0.215,0.04559141319943196,77.5,0,100,1.0,0,0.0
0.22,0.06149084917446989,77.5,0,100,1.0,0,0.0
0.225,0.08111733445924295,77.5,0,100,1.0,0,0.0
0.23,0.1046628598272375,77.5,0,100,1.0,0,0.0
0.235,0.1320831047748631,77.5,0,100,1.0,0,0.0
0.24,0.16303381314489318,77.5,0,100,1.0,0,0.0
0.245,0.19682662652900276,77.5,0,100,1.0,0,0.0
0.25,0.23241585813229,77.5,0,100,1.0,0,0.0
0.255,0.26842527782774417,77.5,0,100,1.0,0,0.0
0.26,0.30321927900592993,77.5,0,100,1.0,0,0.0
0.265,0.3350163137995362,77.5,0,100,1.0,0,0.0
0.27,0.3620352400956416,77.5,0,100,1.0,0,0.0
0.275,0.3826586036805073,77.5,0,100,1.0,0,0.0
0.28,0.39559233134833227,77.5,0,100,1.0,0,0.0
0.285,0.4,77.5,0,100,1.0,0,0.0
0.29,0.39559233134833227,77.5,0,100,1.0,0,0.0
0.295,0.3826586036805073,77.5,0,100,1.0,0,0.0
0.3,0.3620352400956416,77.5,0,100,1.0,0,0.0
0.305,0.3350163137995362,77.5,0,100,1.0,0,0.0
0.31,0.3032192790059296,77.5,0,100,1.0,0,0.0
0.315,0.26842527782774417,77.5,0,100,1.0,0,0.0
0.32,0.23241585813229,77.5,0,100,1.0,0,0.0
0.325,0.19682662652900276,77.5,0,100,1.0,0,0.0
0.33,0.16303381314489318,77.5,0,100,1.0,0,0.0
0.335,0.13208310477486307,77.5,0,100,1.0,0,0.0
0.34,0.10466285982723562,77.5,0,100,1.0,0,0.0
0.345,0.08111733445917907,77.5,0,100,1.0,0,0.0
0.35,0.06149084917398798,77.5,0,100,1.0,0,0.0
0.355,0.04559141333598128,77.5,0,100,1.0,0,0.0
0.36,0.03306217087257399,77.5,0,100,1.0,0,0.0
0.365,0.02345067901074276,77.5,0,100,1.0,0,0.0
0.37,0.016268788896435526,77.5,0,100,1.0,0,0.0
0.375,0.011039026374860051,77.5,0,100,1.0,0,0.0
0.38,0.007326255555493689,77.5,0,100,1.0,0,0.0
0.385,0.0047556414315231815,77.5,0,100,1.0,0,0.0
0.39,0.0030193390635632803,77.5,0,100,1.0,0,0.0
0.395,0.001874953127946523,77.5,0,100,1.0,0,0.0
0.4,0.0011387927410965778,77.5,0,100,1.0,0,0.0
0.405,0.0006765107634274089,77.5,0,100,1.0,0,0.0
0.41,0.00039307957404427924,77.5,0,100,1.0,0,0.0
0.415,0.00022338910511776318,77.5,0,100,1.0,0,0.0
0.42,0.00012417073320013317,77.5,0,100,1.0,0,0.0
0.425,6.750753468904987e-05,77.5,0,100,1.0,0,0.0
0.43,3.5897234866245036e-05,77.5,0,100,1.0,0,0.0
0.435,1.8670050400879738e-05,77.5,0,100,1.0,0,0.0
0.44,9.497421874143672e-06,77.5,0,100,1.0,0,0.0
0.445,4.725434140340885e-06,77.5,0,100,1.0,0,0.0
0.45,2.299606063738814e-06,77.5,0,100,1.0,0,0.0
0.455,1.0945633976635486e-06,77.5,0,100,1.0,0,0.0
0.46,5.095703414287532e-07,77.5,0,100,1.0,0,0.0
0.465,2.3202944964797243e-07,77.5,0,100,1.0,0,0.0
0.47,1.0333746954038608e-07,77.5,0,100,1.0,0,0.0
0.475,4.501406988770349e-08,77.5,0,100,1.0,0,0.0
0.48,0.0,77.5,0,100,1.0,0,0.0
0.485,0.0,77.5,0,100,1.0,0,0.0
0.49,0.0,77.5,0,100,1.0,0,0.0
0.495,0.0,77.5,0,100,1.0,0,0.0
0.5,0.0,77.5,0,100,1.0,0,0.0
0.505,0.0,77.5,0,100,1.0,0,0.0
0.51,0.0,77.5,0,100,1.0,0,0.0
0.515,0.0,77.5,0,100,1.0,0,0.0
0.52,0.0,77.5,0,100,1.0,0,0.0
0.525,0.0,77.5,0,100,1.0,0,0.0
0.53,0.0,77.5,0,100,1.0,0,0.0
0.535,0.0,77.5,0,100,1.0,0,0.0
0.54,0.0,77.5,0,100,1.0,0,0.0
0.545,0.0,77.5,0,100,1.0,0,0.0
0.55,0.0,77.5,0,100,1.0,0,0.0
0.555,0.001684486749771458,77.5,0,100,1.0,0,0.0
0.56,0.00456624331333666,77.5,0,100,1.0,0,0.0
0.565,0.011079731271581421,77.5,0,100,1.0,0,0.0
0.57,0.024064571490409,77.5,0,100,1.0,0,0.0
0.575,0.046784906529573234,77.5,0,100,1.0,0,0.0
0.58,0.08141644351188804,77.5,0,100,1.0,0,0.0
0.585,0.12682276464025305,77.5,0,100,1.0,0,0.0
0.59,0.1768320708657512,77.5,0,100,1.0,0,0.0
0.595,0.22070063230473494,77.5,0,100,1.0,0,0.0
0.6,0.24656126505113576,77.5,0,100,1.0,0,0.0
0.605,0.24656126505724016,77.5,0,100,1.0,0,0.0
0.61,0.220700632329898,77.5,0,100,1.0,0,0.0
0.615,0.17683207093748562,77.5,0,100,1.0,0,0.0
0.62,0.12682276483597799,77.5,0,100,1.0,0,0.0
0.625,0.08141644409447898,77.5,0,100,1.0,0,0.0
0.63,0.04678490952598309,77.5,0,100,1.0,0,0.0
0.635,0.024064605020532023,77.5,0,100,1.0,0,0.0
0.64,0.011080171739334697,77.5,0,100,1.0,0,0.0
0.645,0.004571212771509492,77.5,0,100,1.0,0,0.0
0.65,0.0017299316936037438,77.5,0,100,1.0,0,0.0
0.655,0.0008899431850697582,77.5,0,100,1.0,0,0.0
0.66,0.002128806368910263,77.5,0,100,1.0,0,0.0
0.665,0.009309664818487698,77.5,0,100,1.0,0,0.0
0.67,0.03503263543368747,77.5,0,100,1.0,0,0.0
0.675,0.10606267793605692,77.5,0,100,1.0,0,0.0
0.68,0.25734927343160535,77.5,0,100,1.0,0,0.0
0.685,0.5003202479539708,77.5,0,100,1.0,0,0.0
0.69,0.7793067891790435,77.5,0,100,1.0,0,0.0
0.695,0.9720477407234077,77.50000297262514,1,100,1.0,0,5.8863864154827213e-08
0.7,0.967267334488097,77.50000602692357,0,100,1.0,0,1.193450212231075e-07
0.705,0.7505869905515209,77.50001314884915,0,100,1.0,0,2.603732504761829e-07
0.71,0.4028369574773956,77.50003218277465,0,100,1.0,0,6.372826662597374e-07
0.715,0.04553881263121314,77.5000891336331,0,100,1.0,0,1.7650224375563202e-06
0.72,-0.189138810908105,77.5002690214767,0,100,1.0,0,5.32715795439925e-06
0.725,-0.22868072635956738,77.50083732265789,0,100,1.0,0,1.6580646690828313e-05
0.73,-0.14104670682394166,77.50257317183726,0,100,1.0,0,5.09538977674351e-05
0.735,-0.051158381651102834,77.5076082097914,0,100,1.0,0,0.00015065761963167613
0.74,-0.008206426846427752,77.52135258747315,0,100,1.0,0,0.0004228235143197217
0.745,0.005350271385530505,77.55649700924465,0,100,1.0,0,0.0011187526583099309
0.75,0.01084668799215426,77.64045440057028,0,100,1.0,0,0.0027812752588173757
0.755,0.016256859896386415,77.82751617390053,0,100,1.0,0,0.006485468790109587
0.76,0.02345021205790711,78.21569569973141,0,100,1.0,0,0.014172192073889358
0.765,0.0330621597308209,78.96491975294279,0,100,1.0,0,0.029008311939461205
0.77,0.04559141319943196,80.30785299502509,0,100,1.0,0,0.05560104940643736
0.775,0.06149084917446989,82.53901529227541,0,100,1.0,0,0.0997824810351566
0.78,0.08111733445924295,85.96626012174221,0,100,1.0,0,0.16764871528202394
0.785,0.1046628598272375,90.81658192531896,0,100,1.0,0,0.2636946915904744
0.79,0.1320831047748631,97.10833980159956,0,100,1.0,0,0.38828395646731795
0.795,0.16303381314489318,104.52938760793602,0,100,1.0,0,0.5352353981769508
0.8,0.19682662652900276,112.38094101245923,0,100,1.0,0,0.6907117032170145
0.805,0.23241585813229,119.64223165483207,0,100,1.0,0,0.834499636729348
0.81,0.26842527782774417,125.1719099748606,0,100,1.0,0,0.9439982173239723
0.815,0.30321927900592993,128.0,0,100,1.0,0,1.0
0.82,0.3350163137995362,127.6101393237791,0,100,1.0,0,0.992279986609487
0.825,0.3620352400956416,124.10010403781507,0,100,1.0,0,0.9227743373824767
0.83,0.3826586036805073,118.15277378027952,0,100,1.0,0,0.8050054213916736
0.835,0.39559233134833227,110.8299379581053,0,100,1.0,0,0.6599987714476298
0.84,0.4,103.27489006078626,0,100,1.0,0,0.510393862589827
0.845,0.39559233134833227,96.43814350154825,0,100,1.0,0,0.3750127426049159
0.85,0.3826586036805073,90.9137835998359,0,100,1.0,0,0.26561947722447316
0.855,0.3620352400956416,86.9136909261355,0,100,1.0,0,0.1864097213096139
0.86,0.3350163137995362,84.34894125219122,0,100,1.0,0,0.13562259905329158
0.865,0.3032192790059296,82.95851223358169,0,100,1.0,0,0.10808935116003339
0.87,0.26842527782774417,82.42961246934831,0,100,1.0,0,0.09761608850194681
0.875,0.23241585813229,82.47825904809713,0,100,1.0,0,0.09857938709103227
0.88,0.19682662652900276,82.88510695734854,0,100,1.0,0,0.10663578133363447
0.885,0.16303381314489318,83.49817142324218,0,100,1.0,0,0.11877567174736997
0.89,0.13208310477486307,84.218703403949,0,100,1.0,0,0.1330436317613662
0.895,0.10466285982723562,84.98313005843968,0,100,1.0,0,0.14818079323642938
0.9,0.08111733445917907,85.74806308660983,0,100,1.0,0,0.163327981913066
0.905,0.06149084917398798,86.48049615879853,0,100,1.0,0,0.17783160710492138
0.91,0.04559141333598128,87.1526196872008,0,100,1.0,0,0.19114098390496628
0.915,0.03306217087257399,87.73979816955085,0,100,1.0,0,0.20276828058516538
0.92,0.02345067901074276,88.22034613356011,0,100,1.0,0,0.2122840818526755
0.925,0.016268788896435526,88.57613991279077,0,100,1.0,0,0.2193295032235795
0.93,0.011039026374860051,88.79347868239333,0,100,1.0,0,0.22363324123551145
0.935,0.007326255555493689,88.86386439984123,0,100,1.0,0,0.2250270178186383
0.94,0.0047556414315231815,88.78452238775425,0,100,1.0,0,0.22345588886642082
0.945,0.0030193390635632803,88.55857365850133,0,100,1.0,0,0.21898165660398675
0.95,0.001874953127946523,88.19482866332193,0,100,1.0,0,0.2117787854123154
0.955,0.0011387927410965778,87.70721657209255,0,100,1.0,0,0.2021231004374762
0.96,0.0006765107634274089,87.11390019357708,0,100,1.0,0,0.1903742612589521
0.965,0.00039307957404427924,86.43615452975533,0,100,1.0,0,0.17695355504465995
0.97,0.00022338910511776318,85.6971052748557,0,100,1.0,0,0.16231891633377626
0.975,0.00012417073320013317,84.92043109401514,0,100,1.0,0,0.14693922958445826
0.98,6.750753468904987e-05,84.12913009206147,0,100,1.0,0,0.13126990281309847
0.985,3.5897234866245036e-05,83.3444376315581,0,100,1.0,0,0.11573143824867513
0.99,1.8670050400879738e-05,82.58496182074326,0,100,1.0,0,0.10069231328204475
0.995,9.497421874143672e-06,81.86607755524824,0,100,1.0,0,0.08645698129204434
1.0,4.725434140340885e-06,81.1995932352933,0,100,1.0,0,0.07325927198600607
1.005,2.299606063738814e-06,80.59367928154045,0,100,1.0,0,0.061260975872088036
1.01,1.0945633976635486e-06,80.05302685084085,0,100,1.0,0,0.05055498714536339
1.015,5.095703414287532e-07,79.5791903812813,0,100,1.0,0,0.041172086758045415
1.02,2.3202944964797243e-07,79.17105949996414,0,100,1.0,0,0.03309028712800286
1.025,1.0333746954038608e-07,78.82540422739977,0,100,1.0,0,0.026245628265342033
1.03,4.501406988770349e-08,78.53744138964515,0,100,1.0,0,0.02054339385435946
1.035,0.0,78.30137828670698,0,100,1.0,0,0.01586887696449461
1.04,0.0,78.11090032048983,0,100,1.0,0,0.012097036049303622
1.045,0.0,77.95958084176635,0,100,1.0,0,0.009100610728046602
1.05,0.0,77.84120254425764,0,100,1.0,0,0.006756486024903777
1.055,0.0,77.74998928072644,0,100,1.0,0,0.004950282786662154
1.06,0.0,77.68075457337353,0,100,1.0,0,0.0035792984826442343
1.065,0.0,77.62897810246339,0,100,1.0,0,0.0025540218309582667
1.07,0.0,77.59082417329567,0,100,1.0,0,0.0017984984811024256
1.075,0.0,77.56311690651798,0,100,1.0,0,0.0012498397330292315
1.08,0.0,77.54328612787634,0,100,1.0,0,0.0008571510470562883
1.085,0.0,77.52929615012752,0,100,1.0,0,0.0005801217847033963
1.09,0.0,77.51956731102686,0,100,1.0,0,0.00038747150548240573
1.095,0.0,77.51289764815891,0,100,1.0,0,0.00025539897344380267
1.1,0.0,77.5083897435128,0,100,1.0,0,0.00016613353490680706
1.105,0.0,77.5053857429786,0,100,1.0,0,0.00010664837581393074
1.11,0.0,77.50341193968492,0,100,1.0,0,6.756316207769271e-05
1.115,0.0,77.50213312275217,0,100,1.0,0,4.224005449841435e-05
1.12,0.0,77.50131610073626,0,100,1.0,0,2.606140071804367e-05
1.125,0.0,77.5008013480742,0,100,1.0,0,1.586827869713002e-05
1.13,0.0,77.50048151746557,0,100,1.0,0,9.53499931828185e-06
1.135,0.0,77.5002855365269,0,100,1.0,0,5.654188651540086e-06
1.14,0.0,77.50016709755003,0,100,1.0,0,3.3088623768948633e-06
1.145,0.0,77.50009650221315,0,100,1.0,0,1.910934913937153e-06
1.15,0.0,77.50005500007046,0,100,1.0,0,1.0891103061517737e-06
1.155,0.0,77.50003093484894,0,100,1.0,0,6.125712660728949e-07
1.16,0.0,77.50001717083974,0,100,1.0,0,3.400166285205565e-07
1.165,0.0,77.5000094057591,0,100,1.0,0,1.862526554723805e-07
1.17,0.0,77.50000508457842,0,100,1.0,0,1.0068472116328471e-07
1.175,0.001684486749771458,77.50000271253174,0,100,1.0,0,5.371349977782068e-08
1.18,0.00456624331333666,77.50000142808314,0,100,1.0,0,2.8278874019138535e-08
1.185,0.011079731271581421,77.50000074197783,0,100,1.0,0,1.4692630267547591e-08
1.19,0.024064571490409,77.50000038044087,0,100,1.0,0,7.533482502286362e-09
1.195,0.046784906529573234,77.50000019250507,0,100,1.0,0,3.811981577479792e-09
1.2,0.08141644351188804,77.50000009612934,0,100,1.0,0,1.9035513055809637e-09
1.205,0.12682276464025305,77.50000004737274,0,100,1.0,1,9.38073996918986e-10
1.21,0.1768320708657512,77.5000000230388,0,100,1.0,1,4.562137422512348e-10
1.215,0.22070063230473494,77.50000001105732,0,100,1.0,1,2.1895690980894113e-10
1.22,0.24656126505113576,77.5000000052372,0,100,1.0,1,1.0370687806865288e-10
1.225,0.24656126505724016,77.50000000244798,0,100,1.0,1,4.8474773150404206e-11
1.23,0.220700632329898,77.50000000112921,0,100,1.0,1,2.2360568842072603e-11
1.235,0.17683207093748562,77.50000000051404,0,100,1.0,1,1.0178911618975978e-11
1.24,0.12682276483597799,77.50000000023093,0,100,1.0,1,4.5727997845947045e-12
1.245,0.08141644409447898,77.50000000010237,0,100,1.0,1,2.0272276706597077e-12
1.25,0.04678490952598309,77.50000000004479,0,100,1.0,1,8.869824566795389e-13
1.255,0.024064605020532023,77.50000000001934,0,100,1.0,1,3.829895696512857e-13
1.26,0.011080171739334697,77.50000000000824,0,100,1.0,1,1.632137769270725e-13
1.265,0.004571212771509492,77.50000000000347,0,100,1.0,1,6.86623475348374e-14
1.27,0.0017299316936037438,77.50000000000144,0,100,1.0,1,2.842170943040401e-14
1.275,0.0008899431850697582,77.50000000000058,0,100,1.0,1,1.1537525610362024e-14
1.28,0.002128806368910263,77.50000000000024,0,100,1.0,1,4.783852082345229e-15
1.285,0.009309664818487698,77.5000000000001,0,100,1.0,1,1.969821445671565e-15
1.29,0.03503263543368747,77.50000000000004,0,100,1.0,1,8.442091910020992e-16
1.295,0.10606267793605692,77.50000000000001,0,100,1.0,1,2.814030636673664e-16
1.3,0.25734927343160535,77.5,0,100,1.0,1,0.0
1.305,0.5003202479539708,77.5,0,100,1.0,1,0.0
1.31,0.7793067891790435,77.5,0,100,1.0,1,0.0
1.315,0.9720477407234077,77.50000297094563,1,100,1.0,1,5.8830606533747686e-08
1.32,0.967267334488097,77.50000585321456,0,100,1.0,1,1.1590523881480268e-07
1.325,0.7505869905515209,77.50001231859999,0,100,1.0,1,2.4393267297833374e-07
1.33,0.4028369574773956,77.5000287685175,0,100,1.0,1,5.696736137690438e-07
1.335,0.04553881263121314,77.50007544225073,0,100,1.0,1,1.493905955103941e-06
1.34,-0.189138810908105,77.50021580677046,0,100,1.0,1,4.2734013951609664e-06
1.345,-0.22868072635956738,77.50064122197105,0,100,1.0,1,1.2697464773291268e-05
1.35,-0.14104670682394166,77.50189764285709,0,100,1.0,1,3.7577086278971173e-05
1.355,-0.051158381651102834,77.50544678588247,0,100,1.0,1,0.00010785714618751257
1.36,-0.008206426846427752,77.51494354533021,0,100,1.0,1,0.00029591178871706545
1.365,0.005350271385530505,77.53889317447089,0,100,1.0,1,0.0007701618707106056
1.37,0.01084668799215426,77.59565760011441,0,100,1.0,1,0.0018942099032555873
1.375,0.016256859896386415,77.72188223512214,0,100,1.0,1,0.004393707626180944
1.38,0.02345021205790711,77.98486749911095,0,100,1.0,1,0.00960133661605837
1.385,0.0330621597308209,78.4976358334839,0,100,1.0,1,0.01975516501948312
1.39,0.04559141319943196,79.43210578788607,0,100,1.0,1,0.03825952055219946
1.395,0.06149084917446989,81.02144467284691,0,100,1.0,1,0.06973157768013685
1.4,0.08111733445924295,83.53943824352314,0,100,1.0,1,0.11959283650540864
1.405,0.1046628598272375,87.24612635035874,0,100,1.0,1,0.1929926009972027
1.41,0.1320831047748631,92.29836240213126,0,100,1.0,1,0.29303687925012395
1.415,0.16303381314489318,98.6415242177682,0,100,1.0,1,0.41864404391620186
1.42,0.19682662652900276,105.91856224009601,0,100,1.0,1,0.5627438067345745
1.425,0.23241585813229,113.44355699129795,0,100,1.0,1,0.7117536037880783
1.43,0.26842527782774417,120.27731578487735,0,100,1.0,1,0.8470755600965811
1.435,0.30321927900592993,125.40886924748625,0,100,1.0,1,0.9486904801482426
1.44,0.3350163137995362,128.0,0,100,1.0,1,1.0
1.445,0.3620352400956416,127.61297446918879,0,100,1.0,1,0.9923361281027482
1.45,0.3826586036805073,124.33696161207922,0,100,1.0,1,0.9274645863778064
1.455,0.39559233134833227,118.76344665656188,0,100,1.0,1,0.8170979535952848
1.46,0.4,111.82039289833824,0,100,1.0,1,0.6796117405611533
1.465,0.39559233134833227,104.52944873576625,0,100,1.0,1,0.5352366086290347
1.47,0.3826586036805073,97.77357003237384,0,100,1.0,1,0.40145683232423446
1.475,0.3620352400956416,92.14593155860807,0,100,1.0,1,0.2900184467051103
1.48,0.3350163137995362,87.90825613345055,0,100,1.0,1,0.20610408185050594
1.485,0.3032192790059296,85.04198682162858,0,100,1.0,1,0.1493462736956155
1.49,0.26842527782774417,83.34911037832367,0,100,1.0,1,0.11582396788759747
1.495,0.23241585813229,82.55716877843483,0,100,1.0,1,0.10014195600861046
1.5,0.19682662652900276,82.39818228678223,0,100,1.0,1,0.09699370864915308
1.505,0.16303381314489318,82.65144010719679,0,100,1.0,1,0.10200871499399586
1.51,0.13208310477486307,83.15544646601765,0,100,1.0,1,0.11198903893104259
1.515,0.10466285982723562,83.80098496712186,0,100,1.0,1,0.12477197954696759
1.52,0.08111733445917907,84.51679817502719,0,100,1.0,1,0.13894649851538993
1.525,0.06149084917398798,85.25545908263547,0,100,1.0,1,0.15357344718090035
1.53,0.04559141333598128,85.98282074337618,0,100,1.0,1,0.16797664838368673
1.535,0.03306217087257399,86.67155747492474,0,100,1.0,1,0.1816149995034602
1.54,0.02345067901074276,87.29795930335597,0,100,1.0,1,0.19401899610605874
1.545,0.016268788896435526,87.84083911807926,0,100,1.0,1,0.20476909144711405
1.55,0.011039026374860051,88.28160151207733,0,100,1.0,1,0.21349705964509563
1.555,0.007326255555493689,88.60482836895572,0,100,1.0,1,0.21989759146446974
1.56,0.0047556414315231815,88.79899114489746,0,100,1.0,1,0.22374239890886052
1.565,0.0030193390635632803,88.85706779854773,0,100,1.0,1,0.22489243165441053
1.57,0.001874953127946523,88.77694250763581,0,100,1.0,1,0.22330579223041205
1.575,0.0011387927410965778,88.56152685954629,0,100,1.0,1,0.21904013583259982
1.58,0.0006765107634274089,88.21858228046267,0,100,1.0,1,0.2122491540685677
1.585,0.00039307957404427924,87.76025532372388,0,100,1.0,1,0.20317337274700756
1.59,0.00022338910511776318,87.20236355807309,0,100,1.0,1,0.19212601105095226
1.595,0.00012417073320013317,86.5634902866797,0,100,1.0,1,0.17947505518177614
1.6,6.750753468904987e-05,85.86396018771272,0,100,1.0,1,0.16562297401411327
1.605,3.5897234866245036e-05,85.12477432033205,0,100,1.0,1,0.15098563010558516
1.61,1.8670050400879738e-05,84.36658158555097,0,100,1.0,1,0.13597191258516783
1.615,9.497421874143672e-06,83.60875530007408,0,100,1.0,1,0.12096545148661544
1.62,4.725434140340885e-06,82.86862941840498,0,100,1.0,1,0.10630949343376195
1.625,2.299606063738814e-06,82.1609310518812,0,100,1.0,1,0.09229566439368726
1.63,1.0945633976635486e-06,81.49742647014536,0,100,1.0,1,0.07915695980485854
1.635,5.095703414287532e-07,80.88677888145745,0,100,1.0,1,0.06706492834569198
1.64,2.3202944964797243e-07,80.33459982381898,0,100,1.0,1,0.05613068958057379
1.645,1.0333746954038608e-07,79.84366331563119,0,100,1.0,1,0.04640917456695426
1.65,4.501406988770349e-08,79.4142437702478,0,100,1.0,1,0.03790581723262958
1.655,0.0,79.04453522094083,0,100,1.0,1,0.030584855860214453
1.66,0.0,78.73111024024065,0,100,1.0,1,0.024378420598824817
1.665,0.0,78.46938127165673,0,100,1.0,1,0.01919566874567781
1.67,0.0,78.25403387991976,0,100,1.0,1,0.014931363958807127
1.675,0.0,78.07940954909407,0,100,1.0,1,0.011473456417704283
1.68,0.0,77.93982406759571,0,100,1.0,1,0.00870938747714274
1.685,0.0,77.8298153669202,0,100,1.0,1,0.006530997364756453
1.69,0.0,77.74432130323292,0,100,1.0,1,0.004838045608572724
1.695,0.0,77.67879292921928,0,100,1.0,1,0.0035404540439462227
1.7,0.0,77.62925218591911,0,100,1.0,1,0.00255944922612107
1.705,0.0,77.59230474085237,0,100,1.0,1,0.0018278166505419813
1.71,0.0,77.56511914230262,0,100,1.0,1,0.0012894879663885247
1.715,0.0,77.54538286297166,0,100,1.0,1,0.0008986705538943354
1.72,0.0,77.5312445059329,0,100,1.0,1,0.0006187030877802698
1.725,0.0,77.52124975792847,0,100,1.0,1,0.00042078728571233557
1.73,0.0,77.51427686543666,0,100,1.0,1,0.00028271020666646127
1.735,0.0,77.50947567810488,0,100,1.0,1,0.00018763719019558933
1.74,0.0,77.50621278444058,0,100,1.0,1,0.0001230254344668898
1.745,0.0,77.50402402644141,0,100,1.0,1,7.968369190918322e-05
1.75,0.0,77.50257474319895,0,100,1.0,1,5.098501384056795e-05
1.755,0.0,77.50162744217775,0,100,1.0,1,3.222657777721924e-05
1.76,0.0,77.50101619199279,0,100,1.0,1,2.0122613718605393e-05
1.765,0.0,77.50062682242242,0,100,1.0,1,1.2412325196408455e-05
1.77,0.0,77.50038195467684,0,100,1.0,1,7.56345894732215e-06
1.775,0.0,77.50022992049958,0,100,1.0,1,4.552881179760973e-06
1.78,0.0,77.50013672316726,0,100,1.0,1,2.7073894506708647e-06
1.785,0.0,77.50008031655649,0,100,1.0,1,1.5904268612230947e-06
1.79,0.0,77.50004660865855,0,100,1.0,1,9.22943733672078e-07
1.795,0.0,77.50002671939872,0,100,1.0,1,5.29097004325852e-07
1.8,0.0,77.500015131616,0,100,1.0,1,2.996359603119993e-07
1.805,0.0,77.50000846530277,0,100,1.0,1,1.67629757819362e-07
1.81,0.0,77.50000467840951,0,100,1.0,1,9.264177248438176e-08
1.815,0.0,77.50000255418604,0,100,1.0,1,5.057794137743744e-08
1.82,0.001684486749771458,77.50000137754365,0,100,1.0,1,2.7278092163511912e-08
1.825,0.00456624331333666,77.5000007339336,0,100,1.0,1,1.4533338686521915e-08
1.83,0.011079731271581421,77.500000386284,0,100,1.0,1,7.649188125586728e-09
1.835,0.024064571490409,77.50000020084232,0,100,1.0,1,3.9770756896782906e-09
1.84,0.046784906529573234,77.50000010315784,0,100,1.0,1,2.0427296026310154e-09
1.845,0.08141644351188804,77.5000000523417,0,100,1.0,1,1.0364693921609173e-09
1.85,0.12682276464025305,77.50000002623567,0,100,1.0,1,5.195181754538455e-10
1.855,0.1768320708657512,77.50000001299077,0,100,1.0,1,2.57242922233141e-10
1.86,0.22070063230473494,77.50000000635443,0,100,1.0,1,1.2583022412805389e-10
1.865,0.24656126505113576,77.50000000307055,0,100,1.0,1,6.080304136967153e-11
1.87,0.24656126505724016,77.50000000146574,0,100,1.0,1,2.9024474792779507e-11
1.875,0.220700632329898,77.50000000069117,0,100,1.0,1,1.36866008075897e-11
1.88,0.17683207093748562,77.50000000032198,0,100,1.0,1,6.3757492135115204e-12
1.885,0.12682276483597799,77.50000000014816,0,100,1.0,1,2.9339083417959623e-12
1.89,0.08141644409447898,77.50000000006736,0,100,1.0,1,1.3338505217833169e-12
1.895,0.04678490952598309,77.50000000003025,0,100,1.0,1,5.991071225478231e-13
1.9,0.024064605020532023,77.50000000001342,0,100,1.0,1,2.656444921019939e-13
1.905,0.011080171739334697,77.50000000000588,0,100,1.0,1,1.165008683582897e-13
1.91,0.004571212771509492,77.50000000000254,0,100,1.0,1,5.037114839645859e-14
1.915,0.0017299316936037438,77.5000000000011,0,100,1.0,1,2.1668035902387214e-14
1.92,0.0008899431850697582,77.50000000000045,0,100,1.0,1,9.004898037355725e-15
1.925,0.002128806368910263,77.50000000000018,0,100,1.0,1,3.6582398276757634e-15
1.93,0.009309664818487698,77.50000000000009,0,100,1.0,1,1.6884183820041984e-15
1.935,0.03503263543368747,77.50000000000003,0,100,1.0,1,5.628061273347328e-16
1.94,0.10606267793605692,77.50000000000001,0,100,1.0,1,2.814030636673664e-16
1.945,0.25734927343160535,77.5,0,100,1.0,1,0.0
1.95,0.5003202479539708,77.5,0,100,1.0,1,0.0
1.955,0.7793067891790435,77.5,0,100,1.0,1,0.0
1.96,0.9720477407234077,77.50000295858521,1,100,1.0,1,5.858584580720963e-08
1.965,0.967267334488097,77.50000627158161,0,100,1.0,1,1.2418973487865964e-07
1.97,0.7505869905515209,77.50001448202111,0,100,1.0,1,2.867726953417611e-07
1.975,0.4028369574773956,77.5000381880034,0,100,1.0,1,7.56198087153937e-07
1.98,0.04553881263121314,77.50011515393722,0,100,1.0,1,2.2802759844742666e-06
1.985,-0.189138810908105,77.5003768133724,0,100,1.0,1,7.461650938574905e-06
1.99,-0.22868072635956738,77.50125530195008,0,100,1.0,1,2.4857464358047304e-05
1.995,-0.14104670682394166,77.50407161723201,0,100,1.0,1,8.062608380226824e-05
2.0,-0.051158381651102834,77.5125498908563,0,100,1.0,1,0.00024851269022388076
2.005,-0.008206426846427752,77.53632357375037,0,100,1.0,1,0.0007192786881260548
2.01,0.005350271385530505,77.59816032657108,0,100,1.0,1,0.0019437688429916036
2.015,0.01084668799215426,77.74699421583978,0,100,1.0,1,0.004890974571084695
2.02,0.016256859896386415,78.0778955905149,0,100,1.0,1,0.011443477039898991
2.025,0.02345021205790711,78.75638253739591,0,100,1.0,1,0.024878862126651635
2.03,0.0330621597308209,80.03714578164362,0,100,1.0,1,0.050240510527596365
2.035,0.04559141319943196,82.2581074321164,0,100,1.0,1,0.09421994915081988
2.04,0.06149084917446989,85.78593960996649,0,100,1.0,1,0.16407801207854436
2.045,0.08111733445924295,90.89811556558197,0,100,1.0,1,0.26530921912043515
2.05,0.1046628598272375,97.61546592808551,0,100,1.0,1,0.39832605798189136
2.055,0.1320831047748631,105.5415466537269,0,100,1.0,1,0.5552781515589484
2.06,0.16303381314489318,113.79708988561208,0,100,1.0,1,0.7187542551606353
2.065,0.19682662652900276,121.12822094684294,0,100,1.0,1,0.8639251672642168
2.07,0.23241585813229,126.20143333597863,0,100,1.0,1,0.9643848185342304
2.075,0.26842527782774417,128.0,0,100,1.0,1,1.0
2.08,0.30321927900592993,126.16275066678318,0,100,1.0,1,0.9636188250848154
2.085,0.3350163137995362,121.1116044575634,0,100,1.0,1,0.8635961278725426
2.09,0.3620352400956416,113.90717007869759,0,100,1.0,1,0.7209340609643087
2.095,0.3826586036805073,105.90088318147954,0,100,1.0,1,0.5623937263659315
2.1,0.39559233134833227,98.34046706321053,0,100,1.0,1,0.41268251610317874
2.105,0.4,92.08499814602648,0,100,1.0,1,0.28881184447577185
2.11,0.39559233134833227,87.50864038323002,0,100,1.0,1,0.1981908986778221
2.115,0.3826586036805073,84.57442275691706,0,100,1.0,1,0.14008757934489227
2.12,0.3620352400956416,82.99710802083918,0,100,1.0,1,0.10885362417503323
2.125,0.3350163137995362,82.40804661099806,0,100,1.0,1,0.09718904180194171
2.13,0.3032192790059296,82.46851319639717,0,100,1.0,1,0.0983863999286568
2.135,0.26842527782774417,82.92004890238644,0,100,1.0,1,0.10732770103735526
2.14,0.23241585813229,83.58796849171559,0,100,1.0,1,0.12055383151912051
2.145,0.19682662652900276,84.36197804515345,0,100,1.0,1,0.13588075336937525
2.15,0.16303381314489318,85.17248310799981,0,100,1.0,1,0.15193035857425366
2.155,0.13208310477486307,85.97196310008664,0,100,1.0,1,0.1677616455462701
2.16,0.10466285982723562,86.72363196440325,0,100,1.0,1,0.18264617751293571
2.165,0.08111733445917907,87.39605351764324,0,100,1.0,1,0.1959614557949156
2.17,0.06149084917398798,87.9615095120021,0,100,1.0,1,0.20715860419806129
2.175,0.04559141333598128,88.39629447802281,0,100,1.0,1,0.2157682074856002
2.18,0.03306217087257399,88.6817572080628,0,100,1.0,1,0.22142093481312486
2.185,0.02345067901074276,88.80541912343043,0,100,1.0,1,0.2238696856124837
2.19,0.016268788896435526,88.761813641984,0,100,1.0,1,0.22300621073235655
2.195,0.011039026374860051,88.55286824522712,0,100,1.0,1,0.21886867812330923
2.2,0.007326255555493689,88.18775826412227,0,100,1.0,1,0.2116387775073716
2.205,0.0047556414315231815,87.68223746822366,0,100,1.0,1,0.20162846471730023
2.21,0.0030193390635632803,87.05751062541435,0,100,1.0,1,0.18925763614681884
2.215,0.001874953127946523,86.33875969754904,0,100,1.0,1,0.17502494450592151
2.22,0.0011387927410965778,85.55346606508107,0,100,1.0,1,0.15947457554615976
2.225,0.0006765107634274089,84.72968388537797,0,100,1.0,1,0.14316205713619734
2.23,0.00039307957404427924,83.8944140290608,0,100,1.0,1,0.12662205998140194
2.235,0.00022338910511776318,83.07220603434823,0,100,1.0,1,0.11034071355145003
2.24,0.00012417073320013317,82.2840812711329,0,100,1.0,1,0.09473428259669119
2.245,6.750753468904987e-05,81.54682943609703,0,100,1.0,1,0.08013523635835698
2.25,3.5897234866245036e-05,80.87268841585063,0,100,1.0,1,0.06678590922476499
2.255,1.8670050400879738e-05,80.26937973963246,0,100,1.0,1,0.054839202764999116
2.26,9.497421874143672e-06,79.7404423296401,0,100,1.0,1,0.04436519464633868
2.265,4.725434140340885e-06,79.28578839837682,0,100,1.0,1,0.03536214650251135
2.27,2.299606063738814e-06,78.90239771037702,0,100,1.0,1,0.02777025169063399
2.275,1.0945633976635486e-06,78.58506900977153,0,100,1.0,1,0.021486515044980795
2.28,5.095703414287532e-07,78.32715803895881,0,100,1.0,1,0.016379367108095323
2.285,2.3202944964797243e-07,78.12124742111936,0,100,1.0,1,0.012301929131076509
2.29,1.0333746954038608e-07,77.95971182173484,0,100,1.0,1,0.009103204390788959
2.295,4.501406988770349e-08,77.83515963913185,0,100,1.0,1,0.006636824537264261
2.3,0.0,77.74074802073012,0,100,1.0,1,0.004767287539210363
2.305,0.0,77.67038003596295,0,100,1.0,1,0.003373862098276232
2.31,0.0,77.61880087924757,0,100,1.0,1,0.0023524926583677777
2.315,0.0,77.5816141709287,0,100,1.0,1,0.001616122196607968
2.32,0.0,77.5552403549693,0,100,1.0,1,0.0010938684152336571
2.325,0.0,77.53683768391573,0,100,1.0,1,0.0007294590874402959
2.33,0.0,77.52420321967791,0,100,1.0,1,0.00047927167679039497
2.335,0.0,77.51566747236087,0,100,1.0,1,0.0003102469774430597
2.34,0.0,77.50999239747283,0,100,1.0,1,0.00019786925688769166
2.345,0.0,77.50627892699517,0,100,1.0,1,0.00012433518802307088
2.35,0.0,77.50388728278739,0,100,1.0,1,7.697589677997649e-05
2.355,0.0,77.50237111056772,0,100,1.0,1,4.695268450935074e-05
2.36,0.0,77.50142495925365,0,100,1.0,1,2.8217014923849084e-05
2.365,0.0,77.5008437194384,0,100,1.0,1,1.6707315611742756e-05
2.37,0.0,77.50049219662667,0,100,1.0,1,9.746467854781015e-06
2.375,0.0,77.50028289428887,0,100,1.0,1,5.601867106388634e-06
2.38,0.0,77.500160197117,0,100,1.0,1,3.172220138565373e-06
2.385,0.0,77.50008937790716,0,100,1.0,1,1.769859547701092e-06
2.39,0.0,77.50004913043793,0,100,1.0,1,9.728799590006794e-07
2.395,0.0,77.50002660823445,0,100,1.0,1,5.268957316743446e-07
2.4,0.0,77.50001419797643,0,100,1.0,1,2.811480480503822e-07
2.405,0.001684486749771458,77.50000746417498,0,100,1.0,1,1.4780544524280167e-07
2.41,0.00456624331333666,77.50000386618065,0,100,1.0,2,7.6558032643865e-08
2.415,0.011079731271581421,77.50000197300162,0,100,1.0,2,3.906933893676528e-08
2.42,0.024064571490409,77.5000009920138,0,100,1.0,2,1.9643837535707885e-08
2.425,0.046784906529573234,77.50000049142014,0,100,1.0,2,9.731091848710877e-09
2.43,0.08141644351188804,77.50000023984637,0,100,1.0,2,4.749433110821946e-09
2.435,0.12682276464025305,77.50000011533426,0,100,1.0,2,2.2838467223006982e-09
2.44,0.1768320708657512,77.50000005464224,0,100,1.0,2,1.0820246085257727e-09
2.445,0.22070063230473494,77.50000002550607,0,100,1.0,2,5.050706607620992e-10
2.45,0.24656126505113576,77.50000001173015,0,100,1.0,2,2.3228021926133627e-10
2.455,0.24656126505724016,77.50000000531507,0,100,1.0,2,1.0524896685755005e-10
2.46,0.220700632329898,77.50000000237279,0,100,1.0,2,4.698586954054017e-11
2.465,0.17683207093748562,77.50000000104365,0,100,1.0,2,2.066624099573139e-11
2.47,0.12682276483597799,77.50000000045226,0,100,1.0,2,8.955652501213936e-12
2.475,0.08141644409447898,77.5000000001931,0,100,1.0,2,3.823704829112175e-12
2.48,0.04678490952598309,77.50000000008123,0,100,1.0,2,1.6084999119226663e-12
2.485,0.024064605020532023,77.50000000003367,0,100,1.0,2,6.66643857827991e-13
2.49,0.011080171739334697,77.50000000001374,0,100,1.0,2,2.7211676256634333e-13
2.495,0.004571212771509492,77.50000000000553,0,100,1.0,2,1.0946579176660553e-13
2.5,0.0017299316936037438,77.50000000000219,0,100,1.0,2,4.333607180477443e-14
2.505,0.0008899431850697582,77.50000000000085,0,100,1.0,2,1.6884183820041984e-14
2.51,0.002128806368910263,77.50000000000033,0,100,1.0,2,6.472270464349428e-15
2.515,0.009309664818487698,77.50000000000013,0,100,1.0,2,2.5326275730062976e-15
2.52,0.03503263543368747,77.50000000000004,0,100,1.0,2,8.442091910020992e-16
2.525,0.10606267793605692,77.50000000000001,0,100,1.0,2,2.814030636673664e-16
2.53,0.25734927343160535,77.5,0,100,1.0,2,0.0
2.535,0.5003202479539708,77.5,0,100,1.0,2,0.0
2.54,0.7793067891790435,77.5,0,100,1.0,2,0.0
2.545,0.9720477407234077,77.50000297682912,1,100,1.0,2,5.894711134174887e-08
2.55,0.967267334488097,77.50000644330252,0,100,1.0,2,1.2759014899835742e-07
2.555,0.7505869905515209,77.5000152857257,0,100,1.0,2,3.026876375243584e-07
2.56,0.4028369574773956,77.50004176629017,0,100,1.0,2,8.27055250828389e-07
2.565,0.04553881263121314,77.50013105560434,0,100,1.0,2,2.5951604820222365e-06
2.57,-0.189138810908105,77.50044488722678,0,100,1.0,2,8.809648054995417e-06
2.575,-0.22868072635956738,77.50152741496863,0,100,1.0,2,3.0245840963066212e-05
2.58,-0.14104670682394166,77.50507191996074,0,100,1.0,2,0.0001004340586285428
2.585,-0.051158381651102834,77.51591237767056,0,100,1.0,2,0.0003150965875358389
2.59,-0.008206426846427752,77.54664318495337,0,100,1.0,2,0.0009236274248191628
2.595,0.005350271385530505,77.62707313229895,0,100,1.0,2,0.0025162996494840838
2.6,0.01084668799215426,77.82095772461896,0,100,1.0,2,0.006355598507306216
2.605,0.016256859896386415,78.25065421083119,0,100,1.0,2,0.01486443981843933
2.61,0.02345021205790711,79.12465661250958,0,100,1.0,2,0.03217141806949668
2.615,0.0330621597308209,80.75291471256554,0,100,1.0,2,0.06441415272407013
2.62,0.04559141319943196,83.52418692756659,0,100,1.0,2,0.11929083024884335
2.625,0.06149084917446989,87.8180869015123,0,100,1.0,2,0.2043185525051941
2.63,0.08111733445924295,93.84389846636032,0,100,1.0,2,0.3236415537893132
2.635,0.1046628598272375,101.44211177113385,0,100,1.0,2,0.47410122319076936
2.64,0.1320831047748631,109.93592006093229,0,100,1.0,2,0.6422954467511345
2.645,0.16303381314489318,118.14132463767484,0,100,1.0,2,0.8047787056965315
2.65,0.19682662652900276,124.60095505949394,0,100,1.0,2,0.9326921793959196
2.655,0.23241585813229,128.0,0,100,1.0,2,1.0
2.66,0.26842527782774417,127.6074388486669,0,100,1.0,2,0.9922265118547902
2.665,0.30321927900592993,123.54146413142652,0,100,1.0,2,0.911712161018347
2.67,0.3350163137995362,116.72845096846851,0,100,1.0,2,0.7768010092766041
2.675,0.3620352400956416,108.57594924757062,0,100,1.0,2,0.6153653316350618
2.68,0.3826586036805073,100.51841012567104,0,100,1.0,2,0.4558101014984364
2.685,0.39559233134833227,93.63583866964807,0,100,1.0,2,0.3195215578148132
2.69,0.4,88.4768062592669,0,100,1.0,2,0.21736250018350284
2.695,0.39559233134833227,85.09678201200113,0,100,1.0,2,0.15043132697031938
2.7,0.3826586036805073,83.22880029248734,0,100,1.0,2,0.11344158995024427
2.705,0.3620352400956416,82.47816456850022,0,100,1.0,2,0.09857751620792513
2.71,0.3350163137995362,82.46582560396621,0,100,1.0,2,0.0983331802765586
2.715,0.3032192790059296,82.89742970194244,0,100,1.0,2,0.10687979607806818
2.72,0.26842527782774417,83.57340218280083,0,100,1.0,2,0.12026538975843235
2.725,0.23241585813229,84.36864280982073,0,100,1.0,2,0.13601272890734115
2.73,0.19682662652900276,85.20533717654936,0,100,1.0,2,0.15258093418909632
2.735,0.16303381314489318,86.03115850518294,0,100,1.0,2,0.16893383178580088
2.74,0.13208310477486307,86.80599422385167,0,100,1.0,2,0.18427711334359742
2.745,0.10466285982723562,87.4957153338043,0,100,1.0,2,0.1979349571050356
2.75,0.08111733445917907,88.07034988573457,0,100,1.0,2,0.20931385912345687
2.755,0.06149084917398798,88.50447395532824,0,100,1.0,2,0.2179103753530344
2.76,0.04559141333598128,88.77842588279614,0,100,1.0,2,0.2233351659959632
2.765,0.03306217087257399,88.87956664624946,0,100,1.0,2,0.22533795339107837
2.77,0.02345067901074276,88.80318162209397,0,100,1.0,2,0.2238253786553262
2.775,0.016268788896435526,88.55282711877172,0,100,1.0,2,0.2188678637380538
2.78,0.011039026374860051,88.1400513820406,0,100,1.0,2,0.2106940867730811
2.785,0.007326255555493689,87.58351034332568,0,100,1.0,2,0.19967347214506306
2.79,0.0047556414315231815,86.90756971644608,0,100,1.0,2,0.18628850923655596
2.795,0.0030193390635632803,86.14053864781572,0,100,1.0,2,0.1710997752042716
2.8,0.001874953127946523,85.3127128609072,0,100,1.0,2,0.15470718536449896
2.805,0.0011387927410965778,84.4544146804433,0,100,1.0,2,0.13771118179095657
2.81,0.0006765107634274089,83.5942038620777,0,100,1.0,2,0.12067730419955852
2.815,0.00039307957404427924,82.75740031791543,0,100,1.0,2,0.10410693698842428
2.82,0.00022338910511776318,81.96501364486748,0,100,1.0,2,0.08841611177955412
2.825,0.00012417073320013317,81.23312221494596,0,100,1.0,2,0.07392321217714781
2.83,6.750753468904987e-05,80.57269391319508,0,100,1.0,2,0.06084542402366498
2.835,3.5897234866245036e-05,79.98979772895345,0,100,1.0,2,0.049302925325810855
2.84,1.8670050400879738e-05,79.48612467581856,0,100,1.0,2,0.039329201501357595
2.845,9.497421874143672e-06,79.0597199322176,0,100,1.0,2,0.03088554321222978
2.85,4.725434140340885e-06,78.70582535496604,0,100,1.0,2,0.02387772980130768
2.855,2.299606063738814e-06,78.41774045282362,0,100,1.0,2,0.018173078273735096
2.86,1.0945633976635486e-06,78.18762714596294,0,100,1.0,2,0.013616379127978912
2.865,5.095703414287532e-07,78.0072053498429,0,100,1.0,2,0.010043670293918923
2.87,2.3202944964797243e-07,77.8683089838995,0,100,1.0,2,0.007293247205930613
2.875,1.0333746954038608e-07,77.76329249106546,0,100,1.0,2,0.005213712694365477
2.88,4.501406988770349e-08,77.685294406265,0,100,1.0,2,0.003669196163663387
2.885,0.0,77.6283759937939,0,100,1.0,2,0.002542098887007828
2.89,0.0,77.58755944551955,0,100,1.0,2,0.001733850406327632
2.895,0.0,77.55879222021566,0,100,1.0,2,0.0011642023805082133
2.9,0.0,77.5388628274054,0,100,1.0,2,0.000769560938720707
2.905,0.0,77.52528987023435,0,100,1.0,2,0.0005007895095910062
2.91,0.0,77.51620154690102,0,100,1.0,2,0.0003208227109112023
2.915,0.0,77.51021795623286,0,100,1.0,2,0.00020233576698741322
2.92,0.0,77.50634408901792,0,100,1.0,2,0.00012562552510723103
2.925,0.0,77.50387768183894,0,100,1.0,2,7.678577898898334e-05
2.93,0.0,77.50233331166066,0,100,1.0,2,4.6204191300270086e-05
2.935,0.0,77.50138220036888,0,100,1.0,2,2.7370304334260372e-05
2.94,0.0,77.50080605918664,0,100,1.0,2,1.596156805235431e-05
2.945,0.0,77.50046276503086,0,100,1.0,2,9.163663977438088e-06
2.95,0.0,77.5002615482448,0,100,1.0,2,5.1791731642303e-06
2.955,0.0,77.50014552605633,0,100,1.0,2,2.8817040857228505e-06
2.96,0.0,77.50007971267532,0,100,1.0,2,1.5784688181305106e-06
2.965,0.0,77.5000429844807,0,100,1.0,2,8.511778356469312e-07
2.97,0.0,77.50002281884497,0,100,1.0,2,4.5185831620281283e-07
2.975,0.001684486749771458,77.50001192540962,0,100,1.0,2,2.3614672521502917e-07
2.98,0.00456624331333666,77.50000613550942,0,100,1.0,2,1.2149523610274303e-07
2.985,0.011079731271581421,77.50000310760366,0,100,1.0,2,6.153670615096398e-08
2.99,0.024064571490409,77.50000154952396,0,100,1.0,2,3.06836427333308e-08
2.995,0.046784906529573234,77.50000076062157,0,100,1.0,2,1.5061813358686166e-08
3.0,0.08141644351188804,77.50000036756713,0,100,1.0,2,7.2785569342825216e-09
3.005,0.12682276464025305,77.50000017486478,0,100,1.0,2,3.4626689194728987e-09
3.01,0.1768320708657512,77.50000008189657,0,100,1.0,2,1.6217143183894223e-09
3.015,0.22070063230473494,77.50000003775955,0,100,1.0,2,7.4771382924605e-10
3.02,0.24656126505113576,77.500000017139,0,100,1.0,2,3.393861649360273e-10
3.025,0.24656126505724016,77.50000000765847,0,100,1.0,2,1.516528948624261e-10
3.03,0.220700632329898,77.50000000336895,0,100,1.0,2,6.671194290055889e-11
3.035,0.17683207093748562,77.50000000145897,0,100,1.0,2,2.889052693447384e-11
3.04,0.12682276483597799,77.50000000062201,0,100,1.0,2,1.2317012096720628e-11
3.045,0.08141644409447898,77.50000000026107,0,100,1.0,2,5.169655682633189e-12
3.05,0.04678490952598309,77.50000000010786,0,100,1.0,2,2.135849253235311e-12
3.055,0.024064605020532023,77.50000000004387,0,100,1.0,2,8.686912575411601e-13
3.06,0.011080171739334697,77.50000000001756,0,100,1.0,2,3.478141866928649e-13
3.065,0.004571212771509492,77.50000000000692,0,100,1.0,2,1.3704329200600744e-13
3.07,0.0017299316936037438,77.50000000000269,0,100,1.0,2,5.3185179033132255e-14
3.075,0.0008899431850697582,77.50000000000102,0,100,1.0,2,2.026102058405038e-14
3.08,0.002128806368910263,77.50000000000038,0,100,1.0,2,7.597882719018894e-15
3.085,0.009309664818487698,77.50000000000014,0,100,1.0,2,2.8140306366736642e-15
3.09,0.03503263543368747,77.50000000000006,0,100,1.0,2,1.1256122546694657e-15
3.095,0.10606267793605692,77.50000000000001,0,100,1.0,2,2.814030636673664e-16
3.1,0.25734927343160535,77.5,0,100,1.0,2,0.0
3.105,0.5003202479539708,77.5,0,100,1.0,2,0.0
3.11,0.7793067891790435,77.5,0,100,1.0,2,0.0
3.115,0.9720477407234077,77.5000029632167,1,100,1.0,2,5.867755844249559e-08
3.12,0.967267334488097,77.50000611949993,0,100,1.0,2,1.2117821641611342e-07
3.125,0.7505869905515209,77.5000136661605,0,100,1.0,2,2.706170395714874e-07
3.13,0.4028369574773956,77.50003448761683,0,100,1.0,2,6.829231055424244e-07
3.135,0.04553881263121314,77.50009893563154,0,100,1.0,2,1.9591214166635243e-06
3.14,-0.189138810908105,77.50030887479707,0,100,1.0,2,6.1163326152625205e-06
3.145,-0.22868072635956738,77.50098936987865,0,100,1.0,2,1.9591482745598493e-05
3.15,-0.14104670682394166,77.50311109919818,0,100,1.0,2,6.160592471641763e-05
3.155,-0.051158381651102834,77.50936430658398,0,100,1.0,2,0.00018543181354407307
3.16,-0.008206426846427752,77.52663503308537,0,100,1.0,2,0.0005274263977300939
3.165,0.005350271385530505,77.57113795423459,0,100,1.0,2,0.0014086723610809244
3.17,0.01084668799215426,77.67785621339104,0,100,1.0,2,0.003521905215664127
3.175,0.016256859896386415,77.9156022259755,0,100,1.0,2,0.008229747049019897
3.18,0.02345021205790711,78.4069380257099,0,100,1.0,2,0.017959168825938725
3.185,0.0330621597308209,79.34748987799968,0,100,1.0,2,0.036583957980191636
3.19,0.04559141319943196,81.01228362930992,0,100,1.0,2,0.06955017087742416
3.195,0.06149084917446989,83.73079902637203,0,100,1.0,2,0.12338215893805991
3.2,0.08111733445924295,87.81367872264438,0,100,1.0,2,0.20423126183454224
3.205,0.1046628598272375,93.4288216152286,0,100,1.0,2,0.3154222102025465
3.21,0.1320831047748631,100.45351412056698,0,100,1.0,2,0.4545250320904352
3.215,0.16303381314489318,108.36134960751014,0,100,1.0,2,0.6111158338120819
3.22,0.19682662652900276,116.21652194472324,0,100,1.0,2,0.7666638008856087
3.225,0.23241585813229,122.82360122088085,0,100,1.0,2,0.8974970538788286
3.23,0.26842527782774417,127.01713839847308,0,100,1.0,2,0.9805373940291698
3.235,0.30321927900592993,128.0,0,100,1.0,2,1.0
3.24,0.3350163137995362,125.59701682575721,0,100,1.0,2,0.9524161747674694
3.245,0.3620352400956416,120.3140247604608,0,100,1.0,2,0.8478024705041742
3.25,0.3826586036805073,113.17578272521496,0,100,1.0,2,0.7064511430735635
3.255,0.39559233134833227,105.41460450461524,0,100,1.0,2,0.5527644456359454
3.26,0.4,98.1397912084383,0,100,1.0,2,0.40870873680075837
3.265,0.39559233134833227,92.10783014594557,0,100,1.0,2,0.2892639632860509
3.27,0.3826586036805073,87.64951021194136,0,100,1.0,2,0.2009804002364626
3.275,0.3620352400956416,84.73520644729147,0,100,1.0,2,0.143271414797851
3.28,0.3350163137995362,83.11302488416099,0,100,1.0,2,0.11114900760714837
3.285,0.3032192790059296,82.45012180045974,0,100,1.0,2,0.09802221387048991
3.29,0.26842527782774417,82.43311100444015,0,100,1.0,2,0.09768536642455743
3.295,0.23241585813229,82.8162323398421,0,100,1.0,2,0.10527192752162579
3.3,0.19682662652900276,83.42866618321837,0,100,1.0,2,0.11739933036075977
3.305,0.16303381314489318,84.1600622480566,0,100,1.0,2,0.13188242075359613
3.31,0.13208310477486307,84.940236624999,0,100,1.0,2,0.14733141831681193
3.315,0.10466285982723562,85.72195777553705,0,100,1.0,2,0.1628110450601396
3.32,0.08111733445917907,86.4696633299647,0,100,1.0,2,0.1776170956428654
3.325,0.06149084917398798,87.15353818842898,0,100,1.0,2,0.19115917204809865
3.33,0.04559141333598128,87.74725089071974,0,100,1.0,2,0.2029158592221731
3.335,0.03306217087257399,88.22774168238095,0,100,1.0,2,0.21243052836397924
3.34,0.02345067901074276,88.57593914149084,0,100,1.0,2,0.21932552755427395
3.345,0.016268788896435526,88.77773137510404,0,100,1.0,2,0.2233214133683968
3.35,0.011039026374860051,88.82481855964929,0,100,1.0,2,0.22425383286434233
3.355,0.007326255555493689,88.71524935893723,0,100,1.0,2,0.22208414572152926
3.36,0.0047556414315231815,88.45354650959632,0,100,1.0,2,0.21690191108111528
3.365,0.0030193390635632803,88.05039484238684,0,100,1.0,2,0.20891870975023438
3.37,0.001874953127946523,87.52191701266186,0,100,1.0,2,0.1984538022309279
3.375,0.0011387927410965778,86.88860404516025,0,100,1.0,2,0.18591295138931188
3.38,0.0006765107634274089,86.17399918548756,0,100,1.0,2,0.17176236010866455
3.385,0.00039307957404427924,85.40325259759987,0,100,1.0,2,0.15650005143762127
3.39,0.00022338910511776318,84.60166988532686,0,100,1.0,2,0.14062712644211597
3.395,0.00012417073320013317,83.79336949573046,0,100,1.0,2,0.12462117813327643
3.4,6.750753468904987e-05,83.00014467233905,0,100,1.0,2,0.10891375588790192
3.405,3.5897234866245036e-05,82.2405979846216,0,100,1.0,2,0.09387322741824954
3.41,1.8670050400879738e-05,81.52958456421845,0,100,1.0,2,0.07979375374690006
3.415,9.497421874143672e-06,80.8779681711764,0,100,1.0,2,0.06689045883517634
3.42,4.725434140340885e-06,80.29266578507671,0,100,1.0,2,0.05530031257577638
3.425,2.299606063738814e-06,79.77693434234938,0,100,1.0,2,0.045087808759393624
3.43,1.0945633976635486e-06,79.33083911757771,0,100,1.0,2,0.03625423995203387
3.435,5.095703414287532e-07,78.95183743607637,0,100,1.0,2,0.028749256159928207
3.44,2.3202944964797243e-07,78.63541317800785,0,100,1.0,2,0.022483429267482213
3.445,1.0333746954038608e-07,78.3757053491493,0,100,1.0,2,0.017340699983154448
3.45,4.501406988770349e-08,78.16608584846017,0,100,1.0,2,0.013189818781389513
3.455,0.0,77.99965535153865,0,100,1.0,2,0.00989416537700296
3.46,0.0,77.86964004284735,0,100,1.0,2,0.007319604808858435
3.465,0.0,77.7696842680522,0,100,1.0,2,0.005340282535687178
3.47,0.0,77.69404405685896,0,100,1.0,2,0.0038424565714644857
3.475,0.0,77.63769342762592,0,100,1.0,2,0.0027266025272459243
3.48,0.0,77.59635942692422,0,100,1.0,2,0.0019081074638460122
3.485,0.0,77.56650332172448,0,100,1.0,2,0.0013168974598907444
3.49,0.0,77.54526479938636,0,100,1.0,2,0.0008963326611160258
3.495,0.0,77.53038407321809,0,100,1.0,2,0.0006016648161997493
3.5,0.0,77.52011404975813,0,100,1.0,2,0.0003982980150125725
3.505,0.0,77.51313170683527,0,100,1.0,2,0.0002600337987181626
3.51,0.0,77.50845494854985,0,100,1.0,2,0.0001674247237594887
3.515,0.0,77.5053686969771,0,100,1.0,2,0.00010631083122971762
3.52,0.0,77.50336197861758,0,100,1.0,2,6.6573834011411e-05
3.525,0.0,77.50207629536354,0,100,1.0,2,4.1114759673998586e-05
3.53,0.0,77.5012645949802,0,100,1.0,2,2.5041484756421046e-05
3.535,0.0,77.50075959466382,0,100,1.0,2,1.5041478491465937e-05
3.54,0.0,77.50044996681824,0,100,1.0,2,8.910234024507182e-06
3.545,0.0,77.50026287374051,0,100,1.0,2,5.205420604165783e-06
3.55,0.0,77.50015145445519,0,100,1.0,2,2.9990981226213685e-06
3.555,0.0,77.5000860567684,0,100,1.0,2,1.7040944236790586e-06
3.56,0.0,77.50004822321333,0,100,1.0,2,9.549151153769704e-07
3.565,0.0,77.50002664988816,0,100,1.0,2,5.277205575409182e-07
3.57,0.0,77.50001452455274,0,100,1.0,2,2.87614905726802e-07
3.575,0.0,77.50000780689389,0,100,1.0,2,1.545919582269454e-07
3.58,0.001684486749771458,77.5000041382995,0,100,1.0,2,8.194652479579589e-08
3.585,0.00456624331333666,77.5000021633844,0,100,1.0,2,4.2839294936507795e-08
3.59,0.011079731271581421,77.50000111535623,0,100,1.0,2,2.2086261919461736e-08
3.595,0.024064571490409,77.50000056710259,0,100,1.0,2,1.1229754235419834e-08
3.6,0.046784906529573234,77.5000002843661,0,100,1.0,2,5.631011784469881e-09
3.605,0.08141644351188804,77.50000014062486,0,100,1.0,2,2.784650749811473e-09
3.61,0.12682276464025305,77.5000000685827,0,100,1.0,2,1.3580731346976763e-09
3.615,0.1768320708657512,77.5000000329864,0,100,1.0,3,6.53196168221455e-10
3.62,0.22070063230473494,77.50000001564673,0,100,1.0,3,3.0983631062338077e-10
3.625,0.24656126505113576,77.50000000731949,0,100,1.0,3,1.4494030618170475e-10
3.63,0.24656126505724016,77.5000000033768,0,100,1.0,3,6.686727739170327e-11
3.635,0.220700632329898,77.50000000153638,0,100,1.0,3,3.042332942226998e-11
3.64,0.17683207093748562,77.50000000068938,0,100,1.0,3,1.3651144021567612e-11
3.645,0.12682276483597799,77.50000000030506,0,100,1.0,3,6.0408795677473545e-12
3.65,0.08141644409447898,77.50000000013313,0,100,1.0,3,2.6361839004358887e-12
3.655,0.04678490952598309,77.5000000000573,0,100,1.0,3,1.1346171527068214e-12
3.66,0.024064605020532023,77.50000000002431,0,100,1.0,3,4.81480641934864e-13
3.665,0.011080171739334697,77.50000000001017,0,100,1.0,3,2.0148459358583435e-13
3.67,0.004571212771509492,77.5000000000042,0,100,1.0,3,8.329530684554046e-14
3.675,0.0017299316936037438,77.5000000000017,0,100,1.0,3,3.376836764008397e-14
3.68,0.0008899431850697582,77.50000000000068,0,100,1.0,3,1.3507347056033587e-14
3.685,0.002128806368910263,77.50000000000027,0,100,1.0,3,5.346658209679962e-15
3.69,0.009309664818487698,77.5000000000001,0,100,1.0,3,1.969821445671565e-15
3.695,0.03503263543368747,77.50000000000004,0,100,1.0,3,8.442091910020992e-16
3.7,0.10606267793605692,77.50000000000001,0,100,1.0,3,2.814030636673664e-16
3.705,0.25734927343160535,77.5,0,100,1.0,3,0.0
3.71,0.5003202479539708,77.5,0,100,1.0,3,0.0
3.715,0.7793067891790435,77.5,0,100,1.0,3,0.0
3.72,0.9720477407234077,77.50000297456887,1,100,1.0,3,5.890235390306951e-08
3.725,0.967267334488097,77.5000062222234,0,100,1.0,3,1.2321234465270038e-07
3.73,0.7505869905515209,77.50001412492644,0,100,1.0,3,2.797015136113962e-07
3.735,0.4028369574773956,77.50003641983405,0,100,1.0,3,7.211848326008267e-07
3.74,0.04553881263121314,77.50010706994215,0,100,1.0,3,2.1201968741812684e-06
3.745,-0.189138810908105,77.50034212581059,0,100,1.0,3,6.774768526539258e-06
3.75,-0.22868072635956738,77.5011174452075,0,100,1.0,3,2.212762787125219e-05
3.755,-0.14104670682394166,77.50356855475515,0,100,1.0,3,7.066445059699122e-05
3.76,-0.051158381651102834,77.51086963859841,0,100,1.0,3,0.00021524036828529712
3.765,-0.008206426846427752,77.53118939740251,0,100,1.0,3,0.0006176118297527509
3.77,0.005350271385530505,77.5838025515997,0,100,1.0,3,0.001659456467320855
3.775,0.01084668799215426,77.71022945889035,0,100,1.0,3,0.004162959581987194
3.78,0.016256859896386415,77.99167912939262,0,100,1.0,3,0.009736220384012324
3.785,0.02345021205790711,78.5712635147241,0,100,1.0,3,0.021213138905427614
3.79,0.0330621597308209,79.67352667251653,0,100,1.0,3,0.043040132129040204
3.795,0.04559141319943196,81.60576661164305,0,100,1.0,3,0.0813023091414465
3.8,0.06149084917446989,84.71992636449431,0,100,1.0,3,0.1429688389008775
3.805,0.08111733445924295,89.3182428616724,0,100,1.0,3,0.23402461112222578
3.81,0.1046628598272375,95.50702080839233,0,100,1.0,3,0.3565746694731154
3.815,0.1320831047748631,103.03863252038366,0,100,1.0,3,0.5057154954531418
3.82,0.16303381314489318,111.21541053963608,0,100,1.0,3,0.6676318918739819
3.825,0.19682662652900276,118.93384620768896,0,100,1.0,3,0.8204722021324546
3.83,0.23241585813229,124.90436853284245,0,100,1.0,3,0.9387003669869793
3.835,0.26842527782774417,128.0,0,100,1.0,3,1.0
3.84,0.30321927900592993,127.60820170828875,0,100,1.0,3,0.9922416179859158
3.845,0.3350163137995362,123.83638395652297,0,100,1.0,3,0.9175521575549102
3.85,0.3620352400956416,117.47746650268306,0,100,1.0,3,0.7916330000531299
3.855,0.3826586036805073,109.75136675254107,0,100,1.0,3,0.6386409257928926
3.86,0.39559233134833227,101.93854206075709,0,100,1.0,3,0.48393152595558586
3.865,0.4,95.05631336589965,0,100,1.0,3,0.34764976962177535
3.87,0.39559233134833227,89.68561676959516,0,100,1.0,3,0.24129934197218134
3.875,0.3826586036805073,85.97066202095813,0,100,1.0,3,0.1677358816031313
3.88,0.3620352400956416,83.73963639863871,0,100,1.0,3,0.1235571564086873
3.885,0.3350163137995362,82.66506980421391,0,100,1.0,3,0.10227860998443394
3.89,0.3032192790059296,82.39769679500384,0,100,1.0,3,0.09698409495057106
3.895,0.26842527782774417,82.64426327774376,0,100,1.0,3,0.1018665995592824
3.9,0.23241585813229,83.1925217979524,0,100,1.0,3,0.1127232039198494
3.905,0.19682662652900276,83.90296821666257,0,100,1.0,3,0.12679144983490243
3.91,0.16303381314489318,84.68768921939152,0,100,1.0,3,0.1423304795919112
3.915,0.13208310477486307,85.48964936969762,0,100,1.0,3,0.15821087860787358
3.92,0.10466285982723562,86.2679527426403,0,100,1.0,3,0.1736228265869367
3.925,0.08111733445917907,86.9895179409416,0,100,1.0,3,0.18791124635527912
3.93,0.06149084917398798,87.62548740634166,0,100,1.0,3,0.20050470111567648
3.935,0.04559141333598128,88.15044219056064,0,100,1.0,3,0.21089984535763642
3.94,0.03306217087257399,88.54297359153537,0,100,1.0,3,0.21867274438683904
3.945,0.02345067901074276,88.78671463080131,0,100,1.0,3,0.22349929961982798
3.95,0.016268788896435526,88.87133001885871,0,100,1.0,3,0.2251748518585884
3.955,0.011039026374860051,88.79319881643394,0,100,1.0,3,0.2236276993353256
3.96,0.007326255555493689,88.55565877970061,0,100,1.0,3,0.2189239362316952
3.965,0.0047556414315231815,88.168766505288,0,100,1.0,3,0.21126270307501
3.97,0.0030193390635632803,87.64859039083257,0,100,1.0,3,0.20096218595708054
3.975,0.001874953127946523,87.01610373171393,0,100,1.0,3,0.18843769765770152
3.98,0.0011387927410965778,86.29578368219154,0,100,1.0,3,0.1741739343008226
3.985,0.0006765107634274089,85.51404620349248,0,100,1.0,3,0.15869398422757394
3.99,0.00039307957404427924,84.69765577968232,0,100,1.0,3,0.1425278372214321
3.995,0.00022338910511776318,83.87224160225274,0,100,1.0,3,0.12618300202480678
4.0,0.00012417073320013317,83.06103109428663,0,100,1.0,3,0.1101194276096363
4.005,6.750753468904987e-05,82.28388071988795,0,100,1.0,3,0.09473031128490983
4.01,3.5897234866245036e-05,81.5566476806962,0,100,1.0,3,0.08032965704348914
4.015,1.8670050400879738e-05,80.89090926252491,0,100,1.0,3,0.06714671806980028
4.02,9.497421874143672e-06,80.29400369189199,0,100,1.0,3,0.05532680578003935
4.025,4.725434140340885e-06,79.76934075119777,0,100,1.0,3,0.0449374406177777
4.03,2.299606063738814e-06,79.316914026084,0,100,1.0,3,0.03597849556601993
4.035,1.0945633976635486e-06,78.93393997639421,0,100,1.0,3,0.02839485101770721
4.04,5.095703414287532e-07,78.615551171725,0,100,1.0,3,0.02209012221237628
4.045,2.3202944964797243e-07,78.35548017624241,0,100,1.0,3,0.016940201509750674
4.05,1.0333746954038608e-07,78.14668432330618,0,100,1.0,3,0.012805630164478717
4.055,4.501406988770349e-08,77.98187749628777,0,100,1.0,3,0.009542128639361692
4.06,0.0,77.85395079052064,0,100,1.0,3,0.007008926544963209
4.065,0.0,77.7562778414269,0,100,1.0,3,0.005074808741126601
4.07,0.0,77.68291156154915,0,100,1.0,3,0.003622011119785098
4.075,0.0,77.62868655855223,0,100,1.0,3,0.002548248684202616
4.08,0.0,77.58924566817144,0,100,1.0,3,0.001767240953889971
4.085,0.0,77.56101028213665,0,100,1.0,3,0.0012081243987455367
4.09,0.0,77.5411131592637,0,100,1.0,3,0.0008141219656178606
4.095,0.0,77.52730993064118,0,100,1.0,3,0.0005407907057659567
4.1,0.0,77.51788225456453,0,100,1.0,3,0.0003541040507826946
4.105,0.0,77.51154212778609,0,100,1.0,3,0.00022855698586309104
4.11,0.0,77.50734364057384,0,100,1.0,3,0.00014541862522448112
4.115,0.0,77.5046057342584,0,100,1.0,3,9.120265858227597e-05
4.12,0.0,77.50284739861534,0,100,1.0,3,5.638413099691746e-05
4.125,0.0,77.5017352401662,0,100,1.0,3,3.436119140986301e-05
4.13,0.0,77.50104239625774,0,100,1.0,3,2.0641510054353e-05
4.135,0.0,77.50061725984372,0,100,1.0,3,1.2222967202410697e-05
4.14,0.0,77.50036030072403,0,100,1.0,3,7.134667802491473e-06
4.145,0.0,77.50020731187256,0,100,1.0,3,4.1051855952004966e-06
4.15,0.0,77.50011758316428,0,100,1.0,3,2.3283794907438456e-06
4.155,0.0,77.50006573974899,0,100,1.0,3,1.3017772077280752e-06
4.16,0.0,77.50003623037833,0,100,1.0,3,7.174332342113456e-07
4.165,0.0,77.50001968247125,0,100,1.0,3,3.8975190589121443e-07
4.17,0.0,77.5000105401869,0,100,1.0,3,2.0871657240361558e-07
4.175,0.001684486749771458,77.50000556389502,0,100,1.0,3,1.1017613892723638e-07
4.18,0.00456624331333666,77.50000289515268,0,100,1.0,3,5.732975595681565e-08
4.185,0.011079731271581421,77.50000148499826,0,100,1.0,3,2.9405906233667265e-08
4.19,0.024064571490409,77.50000075083126,0,100,1.0,3,1.486794578322768e-08
4.195,0.046784906529573234,77.50000037421457,0,100,1.0,3,7.410189408180333e-09
4.2,0.08141644351188804,77.50000018384885,0,100,1.0,3,3.6405713735172804e-09
4.205,0.12682276464025305,77.50000008903548,0,100,1.0,3,1.7630788358411057e-09
4.21,0.1768320708657512,77.50000004250376,0,100,1.0,3,8.416585536330182e-10
4.215,0.22070063230473494,77.50000002000107,0,100,1.0,3,3.9606074195863487e-10
4.22,0.24656126505113576,77.50000000927771,0,100,1.0,3,1.837170855489405e-10
4.225,0.24656126505724016,77.5000000042422,0,100,1.0,3,8.400387975985489e-11
4.23,0.220700632329898,77.50000000191207,0,100,1.0,3,3.786278221644415e-11
4.235,0.17683207093748562,77.50000000084952,0,100,1.0,3,1.6822275146035165e-11
4.24,0.12682276483597799,77.50000000037205,0,100,1.0,3,7.36741360987532e-12
4.245,0.08141644409447898,77.50000000016063,0,100,1.0,3,3.1806988286322427e-12
4.25,0.04678490952598309,77.50000000006835,0,100,1.0,3,1.3535487362400324e-12
4.255,0.024064605020532023,77.50000000002868,0,100,1.0,3,5.678713824807455e-13
4.26,0.011080171739334697,77.50000000001185,0,100,1.0,3,2.346901550985836e-13
4.265,0.004571212771509492,77.50000000000483,0,100,1.0,3,9.567704164690458e-14
4.27,0.0017299316936037438,77.50000000000195,0,100,1.0,3,3.85522197224292e-14
4.275,0.0008899431850697582,77.50000000000077,0,100,1.0,3,1.5195765438037787e-14
4.28,0.002128806368910263,77.5000000000003,0,100,1.0,3,5.909464337014694e-15
4.285,0.009309664818487698,77.50000000000011,0,100,1.0,3,2.2512245093389313e-15
4.29,0.03503263543368747,77.50000000000004,0,100,1.0,3,8.442091910020992e-16
4.295,0.10606267793605692,77.50000000000001,0,100,1.0,3,2.814030636673664e-16
4.3,0.25734927343160535,77.5,0,100,1.0,3,0.0
4.305,0.5003202479539708,77.5,0,100,1.0,3,0.0
4.31,0.7793067891790435,77.5,0,100,1.0,3,0.0
4.315,0.9720477407234077,77.5000029754369,1,100,1.0,3,5.8919542565004434e-08
4.32,0.967267334488097,77.50000599695579,0,100,1.0,3,1.1875159984946108e-07
4.325,0.7505869905515209,77.50001298600604,0,100,1.0,3,2.571486344784194e-07
4.33,0.4028369574773956,77.50003147504462,0,100,1.0,3,6.232682103405516e-07
4.335,0.04553881263121314,77.50008619286392,0,100,1.0,3,1.7067893845188057e-06
4.34,-0.189138810908105,77.50025730044038,0,100,1.0,3,5.095058225374532e-06
4.345,-0.22868072635956738,77.5007933249374,0,100,1.0,3,1.570940470108524e-05
4.35,-0.14104670682394166,77.50241950076978,0,100,1.0,3,4.791090633219001e-05
4.355,-0.051158381651102834,77.50711144306592,0,100,1.0,3,0.00014082065477076427
4.36,-0.008206426846427752,77.51986871228921,0,100,1.0,3,0.0003934398473110814
4.365,0.005350271385530505,77.55240190738294,0,100,1.0,3,0.0010376615323355166
4.37,0.01084668799215426,77.63001002590855,0,100,1.0,3,0.0025744559585850857
4.375,0.016256859896386415,77.80289200489227,0,100,1.0,3,0.0059978614830152755
4.38,0.02345021205790711,78.16202929152928,0,100,1.0,3,0.013109490921371869
4.385,0.0330621597308209,78.85684044003119,0,100,1.0,3,0.02686812752537014
4.39,0.04559141319943196,80.10689364457848,0,100,1.0,3,0.05162165632828668
4.395,0.06149084917446989,82.19454731190469,0,100,1.0,3,0.09296133290900367
4.4,0.08111733445924295,85.42322629870154,0,100,1.0,3,0.15689557027131754
4.405,0.1046628598272375,90.03220955939476,0,100,1.0,3,0.24816256553256946
4.41,0.1320831047748631,96.0763779834986,0,100,1.0,3,0.36784906898017034
4.415,0.16303381314489318,103.30485469372982,0,100,1.0,3,0.5109872216580162
4.42,0.19682662652900276,111.0935870574871,0,100,1.0,3,0.6652195456928138
4.425,0.23241585813229,118.48679998058978,0,100,1.0,3,0.8116198015958372
4.43,0.26842527782774417,124.3703389478431,0,100,1.0,3,0.9281255237196653
4.435,0.30321927900592993,127.74334061454307,0,100,1.0,3,0.994917635931546
4.44,0.3350163137995362,128.0,0,100,1.0,3,1.0
4.445,0.3620352400956416,125.11330099463837,0,100,1.0,3,0.9428376434581854
4.45,0.3826586036805073,119.64481297500973,0,100,1.0,3,0.8345507519803906
4.455,0.39559233134833227,112.57637305393439,0,100,1.0,3,0.6945816446323642
4.46,0.4,105.03340955907804,0,100,1.0,3,0.5452160308728324
4.465,0.39559233134833227,98.00714308426187,0,100,1.0,3,0.4060820412725123
4.47,0.3826586036805073,92.16807227358933,0,100,1.0,3,0.29045687670473924
4.475,0.3620352400956416,87.8106625064421,0,100,1.0,3,0.20417153478103167
4.48,0.3350163137995362,84.91128351654942,0,100,1.0,3,0.14675808943662214
4.485,0.3032192790059296,83.24627791934817,0,100,1.0,3,0.11378768157125096
4.49,0.26842527782774417,82.51389380055394,0,100,1.0,3,0.09928502575354345
4.495,0.23241585813229,82.42351586481769,0,100,1.0,3,0.0974953636597562
4.5,0.19682662652900276,82.74137651779043,0,100,1.0,3,0.10378963401565204
4.505,0.16303381314489318,83.30063613325049,0,100,1.0,3,0.1148640818465444
4.51,0.13208310477486307,83.99100308268714,0,100,1.0,3,0.1285347145086563
4.515,0.10466285982723562,84.74151848915058,0,100,1.0,3,0.14339640572575404
4.52,0.08111733445917907,85.50482196555724,0,100,1.0,3,0.15851132605063845
4.525,0.06149084917398798,86.24611874995509,0,100,1.0,3,0.17319047029614035
4.53,0.04559141333598128,86.93688968311473,0,100,1.0,3,0.1868691026359352
4.535,0.03306217087257399,87.552095598575,0,100,1.0,3,0.19905139799158403
4.54,0.02345067901074276,88.06949801926329,0,100,1.0,3,0.20929699048046124
4.545,0.016268788896435526,88.47004810840187,0,100,1.0,3,0.2172286754138984
4.55,0.011039026374860051,88.73867645530594,0,100,1.0,3,0.2225480486199195
4.555,0.007326255555493689,88.86509801461254,0,100,1.0,3,0.22505144583391173
4.56,0.0047556414315231815,88.84442009521223,0,100,1.0,3,0.22464198208341046
4.565,0.0030193390635632803,88.6774424986801,0,100,1.0,3,0.2213354950233682
4.57,0.001874953127946523,88.37060213916769,0,100,1.0,3,0.21525944830035024
4.575,0.0011387927410965778,87.93556017778981,0,100,1.0,3,0.20664475599583781
4.58,0.0006765107634274089,87.38846637634401,0,100,1.0,3,0.19581121537314877
4.585,0.00039307957404427924,86.74896474048299,0,100,1.0,3,0.18314781664322752
4.59,0.00022338910511776318,86.03902558407252,0,100,1.0,3,0.16908961552618848
4.595,0.00012417073320013317,85.2817005402186,0,100,1.0,3,0.1540930800043286
4.6,6.750753468904987e-05,84.49989815970547,0,100,1.0,3,0.1386118447466429
4.605,3.5897234866245036e-05,83.71526910843023,0,100,1.0,3,0.1230746358104997
4.61,1.8670050400879738e-05,82.94727325500796,0,100,1.0,3,0.10786679712887044
4.615,9.497421874143672e-06,82.21247863298953,0,100,1.0,3,0.0933164085740501
4.62,4.725434140340885e-06,81.52411733001249,0,100,1.0,3,0.07968549168341559
4.625,2.299606063738814e-06,80.89189878152109,0,100,1.0,3,0.06716631250536817
4.63,1.0945633976635486e-06,80.32205933831581,0,100,1.0,3,0.05588236313496654
4.635,5.095703414287532e-07,79.8176102712143,0,100,1.0,3,0.045893272697313
4.64,2.3202944964797243e-07,79.3787356692764,0,100,1.0,3,0.03720268652032466
4.645,1.0333746954038608e-07,79.00328721222063,0,100,1.0,3,0.02976806360832925
4.65,4.501406988770349e-08,78.68732401962978,0,100,1.0,3,0.023511366725342264
4.655,0.0,78.425651592325,0,100,1.0,3,0.018329734501485076
4.66,0.0,78.21232282339807,0,100,1.0,3,0.014105402443526104
4.665,0.0,78.04107463502996,0,100,1.0,3,0.010714349208514011
4.67,0.0,77.90568457847962,0,100,1.0,3,0.008033357989695492
4.675,0.0,77.8002415759474,0,100,1.0,3,0.005945377741532598
4.68,0.0,77.71933309720917,0,100,1.0,3,0.004343229647706395
4.685,0.0,77.658157036978,0,100,1.0,3,0.0031318225144157776
4.69,0.0,77.61257031386367,0,100,1.0,3,0.002229115126013285
4.695,0.0,77.57908793610137,0,100,1.0,3,0.0015660977445816565
4.7,0.0,77.55484633547951,0,100,1.0,3,0.0010860660490992148
4.705,0.0,77.53754360721969,0,100,1.0,3,0.0007434377667265164
4.71,0.0,77.52536736675137,0,100,1.0,3,0.0005023240940864967
4.715,0.0,77.51691865312054,0,100,1.0,3,0.0003350228340701226
4.72,0.0,77.51113799947356,0,100,1.0,3,0.00022055444502101825
4.725,0.0,77.50723768383935,0,100,1.0,3,0.0001433204720663273
4.73,0.0,77.50464240506564,0,100,1.0,3,9.19288131809584e-05
4.735,0.0,77.50293925633632,0,100,1.0,3,5.820309576869035e-05
4.74,0.0,77.5018368889561,0,100,1.0,3,3.637403873477245e-05
4.745,0.0,77.50113312899164,0,100,1.0,3,2.2438197854254743e-05
4.75,0.0,77.50068996459827,0,100,1.0,3,1.3662665312191021e-05
4.755,0.0,77.50041469163281,0,100,1.0,3,8.211715501237458e-06
4.76,0.0,77.50024602245387,0,100,1.0,3,4.8717317597065364e-06
4.765,0.0,77.50014407055438,0,100,1.0,3,2.8528822650347895e-06
4.77,0.0,77.50008327731553,0,100,1.0,3,1.6490557529755503e-06
4.775,0.0,77.50004751483387,0,100,1.0,3,9.40887799337775e-07
4.78,0.0,77.50002675979127,0,100,1.0,3,5.298968567961373e-07
4.785,0.0,77.50001487603653,0,100,1.0,3,2.9457498080413606e-07
4.79,0.0,77.50000816286773,0,100,1.0,3,1.6164094513487276e-07
4.795,0.0,77.50000442129294,0,100,1.0,3,8.755035529554e-08
4.8,0.001684486749771458,77.50000236377878,0,100,1.0,3,4.680750052021623e-08
4.805,0.00456624331333666,77.50000124742768,0,100,1.0,3,2.4701538135073267e-08
4.81,0.011079731271581421,77.50000064979285,0,100,1.0,3,1.2867185196318141e-08
4.815,0.024064571490409,77.50000033410694,0,100,1.0,3,6.61597906932146e-09
4.82,0.046784906529573234,77.50000016956923,0,100,1.0,4,3.3578066004248277e-09
4.825,0.08141644351188804,77.50000008494926,0,100,1.0,4,1.682163636108064e-09
4.83,0.12682276464025305,77.50000004200716,0,100,1.0,4,8.318249235731621e-10
4.835,0.1768320708657512,77.50000002050396,0,100,1.0,4,4.060190335756956e-10
4.84,0.22070063230473494,77.50000000987878,0,100,1.0,4,1.9561930952981544e-10
4.845,0.24656126505113576,77.50000000469808,0,100,1.0,4,9.3031290042304e-11
4.85,0.24656126505724016,77.5000000022054,0,100,1.0,4,4.367122285360226e-11
4.855,0.220700632329898,77.50000000102189,0,100,1.0,4,2.023541290525665e-11
4.86,0.17683207093748562,77.50000000046738,0,100,1.0,4,9.255065360956014e-12
4.865,0.12682276483597799,77.500000000211,0,100,1.0,4,4.178272689333056e-12
4.87,0.08141644409447898,77.50000000009403,0,100,1.0,4,1.8620440722869634e-12
4.875,0.04678490952598309,77.50000000004135,0,100,1.0,4,8.188829152720362e-13
4.88,0.024064605020532023,77.50000000001796,0,100,1.0,4,3.5569347247555116e-13
4.885,0.011080171739334697,77.5000000000077,0,100,1.0,4,1.525204605077126e-13
4.89,0.004571212771509492,77.50000000000325,0,100,1.0,4,6.44413015798269e-14
4.895,0.0017299316936037438,77.50000000000136,0,100,1.0,4,2.7014694112067174e-14
4.9,0.0008899431850697582,77.50000000000055,0,100,1.0,4,1.097471948302729e-14
4.905,0.002128806368910263,77.50000000000023,0,100,1.0,4,4.502449018677863e-15
4.91,0.009309664818487698,77.50000000000009,0,100,1.0,4,1.6884183820041984e-15
4.915,0.03503263543368747,77.50000000000003,0,100,1.0,4,5.628061273347328e-16
4.92,0.10606267793605692,77.50000000000001,0,100,1.0,4,2.814030636673664e-16
4.925,0.25734927343160535,77.5,0,100,1.0,4,0.0
4.93,0.5003202479539708,77.5,0,100,1.0,4,0.0
4.935,0.7793067891790435,77.5,0,100,1.0,4,0.0
4.94,0.9720477407234077,77.50000295860458,1,100,1.0,4,5.8586229359585414e-08
4.945,0.967267334488097,77.50000607194025,0,100,1.0,4,1.2023644056189188e-07
4.95,0.7505869905515209,77.50001345273148,0,100,1.0,4,2.663907223742883e-07
4.955,0.4028369574773956,77.5000335974731,0,100,1.0,4,6.65296497145121e-07
4.96,0.04553881263121314,77.5000952391376,0,100,1.0,4,1.8859235166978084e-06
4.965,-0.189138810908105,77.50029396174413,0,100,1.0,4,5.821024636320949e-06
4.97,-0.22868072635956738,77.50093256649718,0,100,1.0,4,1.8466663310573943e-05
4.975,-0.14104670682394166,77.5029100232732,0,100,1.0,4,5.762422323172278e-05
4.98,-0.051158381651102834,77.50870714352278,0,100,1.0,4,0.00017241868361948757
4.985,-0.008206426846427752,77.5246562773498,0,100,1.0,4,0.00048824311583773423
4.99,0.005350271385530505,77.56565066778992,0,100,1.0,4,0.0013000132235628605
4.995,0.01084668799215426,77.66383990810884,0,100,1.0,4,0.0032443546160166505
5.0,0.016256859896386415,77.88262038992832,0,100,1.0,4,0.007576641384719209
5.005,0.02345021205790711,78.33545183145863,0,100,1.0,4,0.016543600622943112
5.01,0.0330621597308209,79.20484989603223,0,100,1.0,4,0.03375940388182632
5.015,0.04559141319943196,80.75054676642503,0,100,1.0,4,0.06436726270148578
5.02,0.06149084917446989,83.28992906835192,0,100,1.0,4,0.11465206075944404
5.025,0.08111733445924295,87.13394030962314,0,100,1.0,4,0.19077109524006222
5.03,0.1046628598272375,92.47378991953458,0,100,1.0,4,0.2965106914759323
5.035,0.1320831047748631,99.23955414039685,0,100,1.0,4,0.43048622060191777
5.04,0.16303381314489318,106.98246625036123,0,100,1.0,4,0.5838112128784402
5.045,0.19682662652900276,114.8494723141842,0,100,1.0,4,0.7395935111719643
5.05,0.23241585813229,121.70177762100317,0,100,1.0,4,0.8752827251683797
5.055,0.26842527782774417,126.37413972136399,0,100,1.0,4,0.9678047469577027
5.06,0.30321927900592993,128.0,0,100,1.0,4,1.0
5.065,0.3350163137995362,126.27952255457706,0,100,1.0,4,0.9659311396945952
5.07,0.3620352400956416,121.57753056726469,0,100,1.0,4,0.8728223874705879
5.075,0.3826586036805073,114.80819134861454,0,100,1.0,4,0.7387760663091989
5.08,0.39559233134833227,107.1570555269131,0,100,1.0,4,0.5872684262755069
5.085,0.4,99.75682326894582,0,100,1.0,4,0.44072917364249153
5.09,0.39559233134833227,93.437628290086,0,100,1.0,4,0.3155965998036831
5.095,0.3826586036805073,88.6210265304858,0,100,1.0,4,0.2202183471383328
5.1,0.3620352400956416,85.35521064557099,0,100,1.0,4,0.15554872565487113
5.105,0.3350163137995362,83.43676931776182,0,100,1.0,4,0.11755978847053099
5.11,0.3032192790059296,82.55078966163666,0,100,1.0,4,0.1000156368640922
5.115,0.26842527782774417,82.37990978446584,0,100,1.0,4,0.0966318769201156
5.12,0.23241585813229,82.66385053700031,0,100,1.0,4,0.10225446607921415
5.125,0.19682662652900276,83.21572546574443,0,100,1.0,4,0.11318268248998865
5.13,0.16303381314489318,83.91239791841033,0,100,1.0,4,0.12697817660218486
5.135,0.13208310477486307,84.67546318988141,0,100,1.0,4,0.14208837999765173
5.14,0.10466285982723562,85.45331282711224,0,100,1.0,4,0.1574913431111335
5.145,0.08111733445917907,86.20847512306442,0,100,1.0,4,0.17244505194186965
5.15,0.06149084917398798,86.91043201717129,0,100,1.0,4,0.1863451884588374
5.155,0.04559141333598128,87.53247338289246,0,100,1.0,4,0.19866283926519726
5.16,0.03306217087257399,88.0509704560115,0,100,1.0,4,0.20893010803983164
5.165,0.02345067901074276,88.44584531855038,0,100,1.0,4,0.21674941224852243
5.17,0.016268788896435526,88.70146811501344,0,100,1.0,4,0.22181124980224634
5.175,0.011039026374860051,88.80754517288817,0,100,1.0,4,0.2239117856017459
5.18,0.007326255555493689,88.75976200907462,0,100,1.0,4,0.22296558433811128
5.185,0.0047556414315231815,88.56006114259078,0,100,1.0,4,0.21901111173447094
5.19,0.0030193390635632803,88.21650740561338,0,100,1.0,4,0.2122080674378888
5.195,0.001874953127946523,87.74274663539316,0,100,1.0,4,0.20282666604738933
5.2,0.0011387927410965778,87.15710631316468,0,100,1.0,4,0.19122982798345892
5.205,0.0006765107634274089,86.48142019658886,0,100,1.0,4,0.17784990488294766
5.21,0.00039307957404427924,85.73968176817759,0,100,1.0,4,0.16316201521143742
5.215,0.00022338910511776318,84.95664182706211,0,100,1.0,4,0.14765627380321017
5.22,0.00012417073320013317,84.15646337911748,0,100,1.0,4,0.13181115602212837
5.225,6.750753468904987e-05,83.36153323734182,0,100,1.0,4,0.11606996509587757
5.23,3.5897234866245036e-05,82.59150690834363,0,100,1.0,4,0.10082191897710163
5.235,1.8670050400879738e-05,81.86263483969579,0,100,1.0,4,0.08638880870684726
5.24,9.497421874143672e-06,81.18738775969096,0,100,1.0,4,0.07301757939982106
5.245,4.725434140340885e-06,80.57437030471705,0,100,1.0,4,0.06087861989538713
5.25,2.299606063738814e-06,80.02848839135753,0,100,1.0,4,0.0500690770565847
5.255,1.0945633976635486e-06,79.55131885537037,0,100,1.0,4,0.040620175353868686
5.26,5.095703414287532e-07,79.14162062723075,0,100,1.0,4,0.03250733915308417
5.265,2.3202944964797243e-07,78.79592494440962,0,100,1.0,4,0.025661880087319212
5.27,1.0333746954038608e-07,78.50914673365939,0,100,1.0,4,0.019983103636819648
5.275,4.501406988770349e-08,78.2751686651716,0,100,1.0,4,0.015349874557853577
5.28,0.0,78.08736155817212,0,100,1.0,4,0.01163092194400237
5.285,0.0,77.93901792246764,0,100,1.0,4,0.008693424207280032
5.29,0.0,77.82368785280029,0,100,1.0,4,0.0064096604514908995
5.295,0.0,77.73541708275205,0,100,1.0,4,0.004661724410931694
5.3,0.0,77.66889506741865,0,100,1.0,4,0.0033444567805672436
5.305,0.0,77.61952627338034,0,100,1.0,4,0.0023668568986206853
5.31,0.0,77.583440560487,0,100,1.0,4,0.0016522883264753596
5.315,0.0,77.55745905335685,0,100,1.0,4,0.0011378030367693284
5.32,0.0,77.53903077198105,0,100,1.0,4,0.0007728865738821098
5.325,0.0,77.52615310372167,0,100,1.0,4,0.0005178832420132368
5.33,0.0,77.51728648731061,0,100,1.0,4,0.00034230667941809016
5.335,0.0,77.51127087641395,0,100,1.0,4,0.00022318567156327782
5.34,0.0,77.50724896569103,0,100,1.0,4,0.0001435438750699704
5.345,0.0,77.50459898318086,0,100,1.0,4,9.10689738783267e-05
5.35,0.0,77.50287816056776,0,100,1.0,4,5.699327856952082e-05
5.355,0.0,77.50177678810005,0,100,1.0,4,3.518392277317274e-05
5.36,0.0,77.50108199106754,0,100,1.0,4,2.1425565693793897e-05
5.365,0.0,77.5006499487824,0,100,1.0,4,1.2870272918730328e-05
5.37,0.0,77.50038512526845,0,100,1.0,4,7.626242939628661e-06
5.375,0.0,77.50022510871771,0,100,1.0,4,4.457598370580323e-06
5.38,0.0,77.5001297926306,0,100,1.0,4,2.5701511010358426e-06
5.385,0.0,77.50007382019291,0,100,1.0,4,1.4617859982094934e-06
5.39,0.0,77.50004141596045,0,100,1.0,4,8.201180287752583e-07
5.395,0.0,77.50002292069169,0,100,1.0,4,4.5387508299598373e-07
5.4,0.0,77.50001251281783,0,100,1.0,4,2.477785709414651e-07
5.405,0.0,77.50000673829383,0,100,1.0,4,1.334315610696793e-07
5.41,0.001684486749771458,77.50000357941612,0,100,1.0,4,7.087952705732466e-08
5.415,0.00456624331333666,77.50000187560704,0,100,1.0,4,3.714073347221682e-08
5.42,0.011079731271581421,77.50000096948018,0,100,1.0,4,1.919762739096696e-08
5.425,0.024064571490409,77.5000004943146,0,100,1.0,4,9.788408024718646e-09
5.43,0.046784906529573234,77.5000002486196,0,100,1.0,4,4.923160387610695e-09
5.435,0.08141644351188804,77.50000012334874,0,100,1.0,4,2.442549326714119e-09
5.44,0.12682276464025305,77.50000006036726,0,100,1.0,4,1.1953912095609352e-09
5.445,0.1768320708657512,77.5000000291431,0,100,1.0,4,5.770909910556793e-10
5.45,0.22070063230473494,77.50000001387833,0,100,1.0,4,2.748185133806137e-10
5.455,0.24656126505113576,77.50000000651939,0,100,1.0,4,1.290967508911047e-10
5.46,0.24656126505724016,77.50000000302094,0,100,1.0,4,5.982066327440875e-11
5.465,0.220700632329898,77.50000000138085,0,100,1.0,4,2.7343654293494327e-11
5.47,0.17683207093748562,77.5000000006226,0,100,1.0,4,1.2328831025394658e-11
5.475,0.12682276483597799,77.50000000027693,0,100,1.0,4,5.4837015016859696e-12
5.48,0.08141644409447898,77.50000000012149,0,100,1.0,4,2.4057147912923155e-12
5.485,0.04678490952598309,77.50000000005258,0,100,1.0,4,1.0411913355692557e-12
5.49,0.024064605020532023,77.50000000002245,0,100,1.0,4,4.446168405944389e-13
5.495,0.011080171739334697,77.50000000000945,0,100,1.0,4,1.8713303733879865e-13
5.5,0.004571212771509492,77.50000000000392,0,100,1.0,4,7.766724557219314e-14
5.505,0.0017299316936037438,77.5000000000016,0,100,1.0,4,3.179854619441241e-14
5.51,0.0008899431850697582,77.50000000000065,0,100,1.0,4,1.2944540928698855e-14
5.515,0.002128806368910263,77.50000000000026,0,100,1.0,4,5.065255146012595e-15
5.52,0.009309664818487698,77.5000000000001,0,100,1.0,4,1.969821445671565e-15
5.525,0.03503263543368747,77.50000000000004,0,100,1.0,4,8.442091910020992e-16
5.53,0.10606267793605692,77.50000000000001,0,100,1.0,4,2.814030636673664e-16
5.535,0.25734927343160535,77.5,0,100,1.0,4,0.0
5.54,0.5003202479539708,77.5,0,100,1.0,4,0.0
5.545,0.7793067891790435,77.5,0,100,1.0,4,0.0
5.55,0.9720477407234077,77.50000295858096,1,100,1.0,4,5.85857616676936e-08
5.555,0.967267334488097,77.50000649780915,0,100,1.0,4,1.2866948817744662e-07
5.56,0.7505869905515209,77.50001571079831,0,100,1.0,4,3.111049170006436e-07
5.565,0.4028369574773956,77.50004401685699,0,100,1.0,4,8.716209304854448e-07
5.57,0.04553881263121314,77.50014199796655,0,100,1.0,4,2.8118409218087877e-06
5.575,-0.189138810908105,77.50049432191162,0,100,1.0,4,9.7885527052898e-06
5.58,-0.22868072635956738,77.50173211644027,0,100,1.0,4,3.42993354508107e-05
5.585,-0.14104670682394166,77.50584288582245,0,100,1.0,4,0.00011570070935536563
5.59,-0.051158381651102834,77.51854730297484,0,100,1.0,4,0.00036727332623441534
5.595,-0.008206426846427752,77.55481496280055,0,100,1.0,4,0.001085444807931663
5.6,0.005350271385530505,77.65008419708057,0,100,1.0,4,0.0029719642986252228
5.605,0.01084668799215426,77.87981851286148,0,100,1.0,4,0.00752115867052428
5.61,0.016256859896386415,78.38742298606793,0,100,1.0,4,0.017572732397384796
5.615,0.02345021205790711,79.41315942805718,0,100,1.0,4,0.03788434511004326
5.62,0.0330621597308209,81.30460163111171,0,100,1.0,4,0.0753386461606279
5.625,0.04559141319943196,84.47809489490693,0,100,1.0,4,0.1381800969288501
5.63,0.06149084917446989,89.30317826768169,0,100,1.0,4,0.23372630233033045
5.635,0.08111733445924295,95.91109716494718,0,100,1.0,4,0.36457618148410254
5.64,0.1046628598272375,103.98360250134391,0,100,1.0,4,0.5244277723038397
5.645,0.1320831047748631,112.63196549089727,0,100,1.0,4,0.6956824849682628
5.65,0.16303381314489318,120.48176915990015,0,100,1.0,4,0.851124141780201
5.655,0.19682662652900276,126.00411814452141,0,100,1.0,4,0.960477587020226
5.66,0.23241585813229,128.0,0,100,1.0,4,1.0
5.665,0.26842527782774417,126.03166825490115,0,100,1.0,4,0.9610231337604188
5.67,0.30321927900592993,120.59024835370354,0,100,1.0,4,0.8532722446277929
5.675,0.3350163137995362,112.91318697147013,0,100,1.0,4,0.7012512271578243
5.68,0.3620352400956416,104.54533238728061,0,100,1.0,4,0.5355511363817943
5.685,0.3826586036805073,96.85710937740994,0,100,1.0,4,0.38330909658237505
5.69,0.39559233134833227,90.72270386050883,0,100,1.0,4,0.2618357200100758
5.695,0.4,86.44535081746378,0,100,1.0,4,0.17713565975175793
5.7,0.39559233134833227,83.88417312505604,0,100,1.0,4,0.12641926980308985
5.705,0.3826586036805073,82.66571321886003,0,100,1.0,4,0.10229135086851553
5.71,0.3620352400956416,82.37202450792604,0,100,1.0,4,0.09647573283021865
5.715,0.3350163137995362,82.65192834843367,0,100,1.0,4,0.10201838313730041
5.72,0.3032192790059296,83.25634189984378,0,100,1.0,4,0.11398696831373813
5.725,0.26842527782774417,84.0264242558057,0,100,1.0,4,0.12923612387734046
5.73,0.23241585813229,84.86484526486245,0,100,1.0,4,0.1458385200962862
5.735,0.19682662652900276,85.70909511705845,0,100,1.0,4,0.16255633895165253
5.74,0.16303381314489318,86.51374059129739,0,100,1.0,4,0.17848991269895825
5.745,0.13208310477486307,87.24132622835091,0,100,1.0,4,0.19289754907625573
5.75,0.10466285982723562,87.85911768203138,0,100,1.0,4,0.20513104320854222
5.755,0.08111733445917907,88.33897458047528,0,100,1.0,4,0.2146331600094115
5.76,0.06149084917398798,88.65851542478347,0,100,1.0,4,0.22096070148086086
5.765,0.04559141333598128,88.80252600599808,0,100,1.0,4,0.22381239615837772
5.77,0.03306217087257399,88.76406271594287,0,100,1.0,4,0.22305074685035386
5.775,0.02345067901074276,88.5449807473852,0,100,1.0,4,0.21871249004723162
5.78,0.016268788896435526,88.15577906783629,0,100,1.0,4,0.21100552609576817
5.785,0.011039026374860051,87.61476482243962,0,100,1.0,4,0.20029237272157674
5.79,0.007326255555493689,86.94662571979583,0,100,1.0,4,0.18706189544150165
5.795,0.0047556414315231815,86.18056443389439,0,100,1.0,4,0.17189236502761168
5.8,0.0030193390635632803,85.34819090517139,0,100,1.0,4,0.15540972089448302
5.805,0.001874953127946523,84.48138340308783,0,100,1.0,4,0.13824521590272937
5.81,0.0011387927410965778,83.61031721315373,0,100,1.0,4,0.1209963804584898
5.815,0.0006765107634274089,82.7618245365926,0,100,1.0,4,0.10419454527906136
5.82,0.00039307957404427924,81.9581974975489,0,100,1.0,4,0.08828113856532464
5.825,0.00022338910511776318,81.21648669901883,0,100,1.0,4,0.07359379602017485
5.83,0.00012417073320013317,80.54828942211552,0,100,1.0,4,0.06036216677456468
5.835,6.750753468904987e-05,79.95997193468784,0,100,1.0,4,0.04871231553837313
5.84,3.5897234866245036e-05,79.45323475258576,0,100,1.0,4,0.038677915892787275
5.845,1.8670050400879738e-05,79.02591053115628,0,100,1.0,4,0.030216050121906632
5.85,9.497421874143672e-06,78.67288122682059,0,100,1.0,4,0.023225370828130552
5.855,4.725434140340885e-06,78.38701167635604,0,100,1.0,4,0.01756458765061463
5.86,2.299606063738814e-06,78.16001677799984,0,100,1.0,4,0.013069639168313722
5.865,1.0945633976635486e-06,77.98320447949557,0,100,1.0,4,0.009568405534565727
5.87,5.095703414287532e-07,77.84806252373428,0,100,1.0,4,0.0068923272026591076
5.875,2.3202944964797243e-07,77.74667998599702,0,100,1.0,4,0.0048847521979607815
5.88,1.0333746954038608e-07,77.6720128543322,0,100,1.0,4,0.0034061951352909866
5.885,4.501406988770349e-08,77.61801527615162,0,100,1.0,4,0.002336936161418297
5.89,0.0,77.5796646933126,0,100,1.0,4,0.0015775186794573105
5.895,0.0,77.5529107463042,0,100,1.0,4,0.0010477375505783498
5.9,0.0,77.53457579886194,0,100,1.0,4,0.000684669284394789
5.905,0.0,77.52223058524193,0,100,1.0,4,0.00044020960875105396
5.91,0.0,77.51406306247611,0,100,1.0,4,0.00027847648467547634
5.915,0.0,77.50875304685681,0,100,1.0,4,0.00017332766053089986
5.92,0.0,77.50536029803884,0,100,1.0,4,0.00010614451562054735
5.925,0.0,77.50322975038792,0,100,1.0,4,6.395545322606727e-05
5.93,0.0,77.501914693741,0,100,1.0,4,3.791472754455348e-05
5.935,0.0,77.50111681184963,0,100,1.0,4,2.211508613123163e-05
5.94,0.0,77.50064093065815,0,100,1.0,4,1.2691696200995961e-05
5.945,0.0,77.50036190319393,0,100,1.0,4,7.166399879875231e-06
5.95,0.0,77.50020105927997,0,100,1.0,4,3.981371880663213e-06
5.955,0.0,77.50010990214456,0,100,1.0,4,2.1762800902634618e-06
5.96,0.0,77.5000591069498,0,100,1.0,4,1.1704346496180103e-06
5.965,0.0,77.50003127672464,0,100,1.0,4,6.193410820062559e-07
5.97,0.001684486749771458,77.5000162837461,0,100,1.0,4,3.2245041794421114e-07
5.975,0.00456624331333666,77.50000834137632,0,100,1.0,4,1.651757686139006e-07
5.98,0.011079731271581421,77.50000420408458,0,100,1.0,4,8.324919951636469e-08
5.985,0.024064571490409,77.50000208475734,0,100,1.0,4,4.128232358378245e-08
5.99,0.046784906529573234,77.50000101716151,0,100,1.0,4,2.0141812055413483e-08
5.995,0.08141644351188804,77.50000048828643,0,100,1.0,4,9.669038252126268e-09
6.0,0.12682276464025305,77.50000023062678,0,100,1.0,4,4.5668669638034055e-09
6.005,0.1768320708657512,77.50000010717541,0,100,1.0,4,2.1222853441634805e-09
6.01,0.22070063230473494,77.50000004900393,0,100,1.0,4,9.703748475820447e-10
6.015,0.24656126505113576,77.50000002204536,0,100,1.0,4,4.365416982794402e-10
6.02,0.24656126505724016,77.50000000975783,0,100,1.0,4,1.9322428805494247e-10
6.025,0.220700632329898,77.50000000424953,0,100,1.0,5,8.414908374070725e-11
6.03,0.17683207093748562,77.50000000182087,0,100,1.0,5,3.605673735382699e-11
6.035,0.12682276483597799,77.50000000076766,0,100,1.0,5,1.5201112096247465e-11
6.04,0.08141644409447898,77.50000000031842,0,100,1.0,5,6.305398447594679e-12
6.045,0.04678490952598309,77.50000000012996,0,100,1.0,5,2.573431017238066e-12
6.05,0.024064605020532023,77.50000000005218,0,100,1.0,5,1.0333120497865694e-12
6.055,0.011080171739334697,77.50000000002062,0,100,1.0,5,4.0831584538134865e-13
6.06,0.004571212771509492,77.50000000000801,0,100,1.0,5,1.5871132790839464e-13
6.065,0.0017299316936037438,77.50000000000307,0,100,1.0,5,6.078306175215115e-14
6.07,0.0008899431850697582,77.50000000000115,0,100,1.0,5,2.279364815705668e-14
6.075,0.002128806368910263,77.50000000000043,0,100,1.0,5,8.442091910020992e-15
6.08,0.009309664818487698,77.50000000000016,0,100,1.0,5,3.0954337003410305e-15
6.085,0.03503263543368747,77.50000000000006,0,100,1.0,5,1.1256122546694657e-15
6.09,0.10606267793605692,77.50000000000001,0,100,1.0,5,2.814030636673664e-16
6.095,0.25734927343160535,77.5,0,100,1.0,5,0.0
6.1,0.5003202479539708,77.5,0,100,1.0,5,0.0
6.105,0.7793067891790435,77.5,0,100,1.0,5,0.0
6.11,0.9720477407234077,77.50000295860458,1,100,1.0,5,5.8586229359585414e-08
6.115,0.967267334488097,77.50000607194025,0,100,1.0,5,1.2023644056189188e-07
6.12,0.7505869905515209,77.50001345273148,0,100,1.0,5,2.663907223742883e-07
6.125,0.4028369574773956,77.5000335974731,0,100,1.0,5,6.65296497145121e-07
6.13,0.04553881263121314,77.5000952391376,0,100,1.0,5,1.8859235166978084e-06
6.135,-0.189138810908105,77.50029396174413,0,100,1.0,5,5.821024636320949e-06
6.14,-0.22868072635956738,77.50093256649718,0,100,1.0,5,1.8466663310573943e-05
6.145,-0.14104670682394166,77.5029100232732,0,100,1.0,5,5.762422323172278e-05
6.15,-0.051158381651102834,77.50870714352278,0,100,1.0,5,0.00017241868361948757
6.155,-0.008206426846427752,77.5246562773498,0,100,1.0,5,0.00048824311583773423
6.16,0.005350271385530505,77.56565066778992,0,100,1.0,5,0.0013000132235628605
6.165,0.01084668799215426,77.66383990810884,0,100,1.0,5,0.0032443546160166505
6.17,0.016256859896386415,77.88262038992832,0,100,1.0,5,0.007576641384719209
6.175,0.02345021205790711,78.33545183145863,0,100,1.0,5,0.016543600622943112
6.18,0.0330621597308209,79.20484989603223,0,100,1.0,5,0.03375940388182632
6.185,0.04559141319943196,80.75054676642503,0,100,1.0,5,0.06436726270148578
6.19,0.06149084917446989,83.28992906835192,0,100,1.0,5,0.11465206075944404
6.195,0.08111733445924295,87.13394030962314,0,100,1.0,5,0.19077109524006222
6.2,0.1046628598272375,92.47378991953458,0,100,1.0,5,0.2965106914759323
6.205,0.1320831047748631,99.23955414039685,0,100,1.0,5,0.43048622060191777
6.21,0.16303381314489318,106.98246625036123,0,100,1.0,5,0.5838112128784402
6.215,0.19682662652900276,114.8494723141842,0,100,1.0,5,0.7395935111719643
6.22,0.23241585813229,121.70177762100317,0,100,1.0,5,0.8752827251683797
6.225,0.26842527782774417,126.37413972136399,0,100,1.0,5,0.9678047469577027
6.23,0.30321927900592993,128.0,0,100,1.0,5,1.0
6.235,0.3350163137995362,126.27952255457706,0,100,1.0,5,0.9659311396945952
6.24,0.3620352400956416,121.57753056726469,0,100,1.0,5,0.8728223874705879
6.245,0.3826586036805073,114.80819134861454,0,100,1.0,5,0.7387760663091989
6.25,0.39559233134833227,107.1570555269131,0,100,1.0,5,0.5872684262755069
6.255,0.4,99.75682326894582,0,100,1.0,5,0.44072917364249153
6.26,0.39559233134833227,93.437628290086,0,100,1.0,5,0.3155965998036831
6.265,0.3826586036805073,88.6210265304858,0,100,1.0,5,0.2202183471383328
6.27,0.3620352400956416,85.35521064557099,0,100,1.0,5,0.15554872565487113
6.275,0.3350163137995362,83.43676931776182,0,100,1.0,5,0.11755978847053099
6.28,0.3032192790059296,82.55078966163666,0,100,1.0,5,0.1000156368640922
6.285,0.26842527782774417,82.37990978446584,0,100,1.0,5,0.0966318769201156
6.29,0.23241585813229,82.66385053700031,0,100,1.0,5,0.10225446607921415
6.295,0.19682662652900276,83.21572546574443,0,100,1.0,5,0.11318268248998865
6.3,0.16303381314489318,83.91239791841033,0,100,1.0,5,0.12697817660218486
6.305,0.13208310477486307,84.67546318988141,0,100,1.0,5,0.14208837999765173
6.31,0.10466285982723562,85.45331282711224,0,100,1.0,5,0.1574913431111335
6.315,0.08111733445917907,86.20847512306442,0,100,1.0,5,0.17244505194186965
6.32,0.06149084917398798,86.91043201717129,0,100,1.0,5,0.1863451884588374
6.325,0.04559141333598128,87.53247338289246,0,100,1.0,5,0.19866283926519726
6.33,0.03306217087257399,88.0509704560115,0,100,1.0,5,0.20893010803983164
6.335,0.02345067901074276,88.44584531855038,0,100,1.0,5,0.21674941224852243
6.34,0.016268788896435526,88.70146811501344,0,100,1.0,5,0.22181124980224634
6.345,0.011039026374860051,88.80754517288817,0,100,1.0,5,0.2239117856017459
6.35,0.007326255555493689,88.75976200907462,0,100,1.0,5,0.22296558433811128
6.355,0.0047556414315231815,88.56006114259078,0,100,1.0,5,0.21901111173447094
6.36,0.0030193390635632803,88.21650740561338,0,100,1.0,5,0.2122080674378888
6.365,0.001874953127946523,87.74274663539316,0,100,1.0,5,0.20282666604738933
6.37,0.0011387927410965778,87.15710631316468,0,100,1.0,5,0.19122982798345892
6.375,0.0006765107634274089,86.48142019658886,0,100,1.0,5,0.17784990488294766
6.38,0.00039307957404427924,85.73968176817759,0,100,1.0,5,0.16316201521143742
6.385,0.00022338910511776318,84.95664182706211,0,100,1.0,5,0.14765627380321017
6.39,0.00012417073320013317,84.15646337911748,0,100,1.0,5,0.13181115602212837
6.395,6.750753468904987e-05,83.36153323734182,0,100,1.0,5,0.11606996509587757
6.4,3.5897234866245036e-05,82.59150690834363,0,100,1.0,5,0.10082191897710163
6.405,1.8670050400879738e-05,81.86263483969579,0,100,1.0,5,0.08638880870684726
6.41,9.497421874143672e-06,81.18738775969096,0,100,1.0,5,0.07301757939982106
6.415,4.725434140340885e-06,80.57437030471705,0,100,1.0,5,0.06087861989538713
6.42,2.299606063738814e-06,80.02848839135753,0,100,1.0,5,0.0500690770565847
6.425,1.0945633976635486e-06,79.55131885537037,0,100,1.0,5,0.040620175353868686
6.43,5.095703414287532e-07,79.14162062723075,0,100,1.0,5,0.03250733915308417
6.435,2.3202944964797243e-07,78.79592494440962,0,100,1.0,5,0.025661880087319212
6.44,1.0333746954038608e-07,78.50914673365939,0,100,1.0,5,0.019983103636819648
6.445,4.501406988770349e-08,78.2751686651716,0,100,1.0,5,0.015349874557853577
6.45,0.0,78.08736155817212,0,100,1.0,5,0.01163092194400237
6.455,0.0,77.93901792246764,0,100,1.0,5,0.008693424207280032
6.46,0.0,77.82368785280029,0,100,1.0,5,0.0064096604514908995
6.465,0.0,77.73541708275205,0,100,1.0,5,0.004661724410931694
6.47,0.0,77.66889506741865,0,100,1.0,5,0.0033444567805672436
6.475,0.0,77.61952627338034,0,100,1.0,5,0.0023668568986206853
6.48,0.0,77.583440560487,0,100,1.0,5,0.0016522883264753596
6.485,0.0,77.55745905335685,0,100,1.0,5,0.0011378030367693284
6.49,0.0,77.53903077198105,0,100,1.0,5,0.0007728865738821098
6.495,0.0,77.52615310372167,0,100,1.0,5,0.0005178832420132368
6.5,0.0,77.51728648731061,0,100,1.0,5,0.00034230667941809016
6.505,0.0,77.51127087641395,0,100,1.0,5,0.00022318567156327782
6.51,0.0,77.50724896569103,0,100,1.0,5,0.0001435438750699704
6.515,0.0,77.50459898318086,0,100,1.0,5,9.10689738783267e-05
6.52,0.0,77.50287816056776,0,100,1.0,5,5.699327856952082e-05
6.525,0.0,77.50177678810005,0,100,1.0,5,3.518392277317274e-05
6.53,0.0,77.50108199106754,0,100,1.0,5,2.1425565693793897e-05
6.535,0.0,77.5006499487824,0,100,1.0,5,1.2870272918730328e-05
6.54,0.0,77.50038512526845,0,100,1.0,5,7.626242939628661e-06
6.545,0.0,77.50022510871771,0,100,1.0,5,4.457598370580323e-06
6.55,0.0,77.5001297926306,0,100,1.0,5,2.5701511010358426e-06
6.555,0.0,77.50007382019291,0,100,1.0,5,1.4617859982094934e-06
6.56,0.0,77.50004141596045,0,100,1.0,5,8.201180287752583e-07
6.565,0.0,77.50002292069169,0,100,1.0,5,4.5387508299598373e-07
6.57,0.0,77.50001251281783,0,100,1.0,5,2.477785709414651e-07
6.575,0.0,77.50000673829383,0,100,1.0,5,1.334315610696793e-07
6.58,0.0,77.50000357941612,0,100,1.0,5,7.087952705732466e-08
6.585,0.0,77.50000187560704,0,100,1.0,5,3.714073347221682e-08
6.59,0.0,77.50000096948018,0,100,1.0,5,1.919762739096696e-08
6.595,0.0,77.5000004943146,0,100,1.0,5,9.788408024718646e-09
6.6,0.0,77.5000002486196,0,100,1.0,5,4.923160387610695e-09
6.605,0.0,77.50000012334874,0,100,1.0,5,2.442549326714119e-09
6.61,0.001684486749771458,77.50000006036726,0,100,1.0,5,1.1953912095609352e-09
6.615,0.00456624331333666,77.5000000291431,0,100,1.0,5,5.770909910556793e-10
6.62,0.011079731271581421,77.50000001387833,0,100,1.0,5,2.748185133806137e-10
6.625,0.024064571490409,77.50000000651939,0,100,1.0,5,1.290967508911047e-10
6.63,0.046784906529573234,77.50000000302094,0,100,1.0,5,5.982066327440875e-11
6.635,0.08141644351188804,77.50000000138085,0,100,1.0,5,2.7343654293494327e-11
6.64,0.12682276464025305,77.5000000006226,0,100,1.0,5,1.2328831025394658e-11
6.645,0.1768320708657512,77.50000000027693,0,100,1.0,5,5.4837015016859696e-12
6.65,0.22070063230473494,77.50000000012149,0,100,1.0,5,2.4057147912923155e-12
6.655,0.24656126505113576,77.50000000005258,0,100,1.0,5,1.0411913355692557e-12
6.66,0.24656126505724016,77.50000000002245,0,100,1.0,5,4.446168405944389e-13
6.665,0.220700632329898,77.50000000000945,0,100,1.0,5,1.8713303733879865e-13
6.67,0.17683207093748562,77.50000000000392,0,100,1.0,5,7.766724557219314e-14
6.675,0.12682276483597799,77.5000000000016,0,100,1.0,5,3.179854619441241e-14
6.68,0.08141644409447898,77.50000000000065,0,100,1.0,5,1.2944540928698855e-14
6.685,0.04678490952598309,77.50000000000026,0,100,1.0,5,5.065255146012595e-15
6.69,0.024064605020532023,77.5000000000001,0,100,1.0,5,1.969821445671565e-15
6.695,0.011080171739334697,77.50000000000004,0,100,1.0,5,8.442091910020992e-16
6.7,0.004571212771509492,77.50000000000001,0,100,1.0,5,2.814030636673664e-16
6.705,0.0017299316936037438,77.5,0,100,1.0,5,0.0
6.71,0.0008899431850697582,77.5,0,100,1.0,5,0.0
6.715,0.002128806368910263,77.5,0,100,1.0,5,0.0
6.72,0.009309664818487698,77.50000295860458,1,100,1.0,5,5.8586229359585414e-08
6.725,0.03503263543368747,77.50000607194025,0,100,1.0,5,1.2023644056189188e-07
6.73,0.10606267793605692,77.50001345273148,0,100,1.0,5,2.663907223742883e-07
6.735,0.25734927343160535,77.5000335974731,0,100,1.0,5,6.65296497145121e-07
6.74,0.5003202479539708,77.5000952391376,0,100,1.0,5,1.8859235166978084e-06
6.745,0.7793067891790435,77.50029396174413,0,100,1.0,5,5.821024636320949e-06
6.75,0.9720477407234077,77.50093256649718,0,100,1.0,5,1.8466663310573943e-05
6.755,0.967267334488097,77.5029100232732,0,100,1.0,5,5.762422323172278e-05
6.76,0.7505869905515209,77.50870714352278,0,100,1.0,5,0.00017241868361948757
6.765,0.4028369574773956,77.5246562773498,0,100,1.0,5,0.00048824311583773423
6.77,0.04553881263121314,77.56565066778992,0,100,1.0,5,0.0013000132235628605
6.775,-0.189138810908105,77.66383990810884,0,100,1.0,5,0.0032443546160166505
6.78,-0.22868072635956738,77.88262038992832,0,100,1.0,5,0.007576641384719209
6.785,-0.14104670682394166,78.33545183145863,0,100,1.0,5,0.016543600622943112
6.79,-0.051158381651102834,79.20484989603223,0,100,1.0,5,0.03375940388182632
6.795,-0.008206426846427752,80.75054676642503,0,100,1.0,5,0.06436726270148578
6.8,0.005350271385530505,83.28992906835192,0,100,1.0,5,0.11465206075944404
6.805,0.01084668799215426,87.13394030962314,0,100,1.0,5,0.19077109524006222
6.81,0.016256859896386415,92.47378991953458,0,100,1.0,5,0.2965106914759323
6.815,0.02345021205790711,99.23955414039685,0,100,1.0,5,0.43048622060191777
6.82,0.0330621597308209,106.98246625036123,0,100,1.0,5,0.5838112128784402
6.825,0.04559141319943196,114.8494723141842,0,100,1.0,5,0.7395935111719643
6.83,0.06149084917446989,121.70177762100317,0,100,1.0,5,0.8752827251683797
6.835,0.08111733445924295,126.37413972136399,0,100,1.0,5,0.9678047469577027
6.84,0.1046628598272375,128.0,0,100,1.0,5,1.0
6.845,0.1320831047748631,126.27952255457706,0,100,1.0,5,0.9659311396945952
6.85,0.16303381314489318,121.57753056726469,0,100,1.0,5,0.8728223874705879
6.855,0.19682662652900276,114.80819134861454,0,100,1.0,5,0.7387760663091989
6.86,0.23241585813229,107.1570555269131,0,100,1.0,5,0.5872684262755069
6.865,0.26842527782774417,99.75682326894582,0,100,1.0,5,0.44072917364249153
6.87,0.30321927900592993,93.437628290086,0,100,1.0,5,0.3155965998036831
6.875,0.3350163137995362,88.6210265304858,0,100,1.0,5,0.2202183471383328
6.88,0.3620352400956416,85.35521064557099,0,100,1.0,5,0.15554872565487113
6.885,0.3826586036805073,83.43676931776182,0,100,1.0,5,0.11755978847053099
6.89,0.39559233134833227,82.55078966163666,0,100,1.0,5,0.1000156368640922
6.895,0.4,82.37990978446584,0,100,1.0,5,0.0966318769201156
6.9,0.39559233134833227,82.66385053700031,0,100,1.0,5,0.10225446607921415
6.905,0.3826586036805073,83.21572546574443,0,100,1.0,5,0.11318268248998865
6.91,0.3620352400956416,83.91239791841033,0,100,1.0,5,0.12697817660218486
6.915,0.3350163137995362,84.67546318988141,0,100,1.0,5,0.14208837999765173
6.92,0.3032192790059296,85.45331282711224,0,100,1.0,5,0.1574913431111335
6.925,0.26842527782774417,86.20847512306442,0,100,1.0,5,0.17244505194186965
6.93,0.23241585813229,86.91043201717129,0,100,1.0,5,0.1863451884588374
6.935,0.19682662652900276,87.53247338289246,0,100,1.0,5,0.19866283926519726
6.94,0.16303381314489318,88.0509704560115,0,100,1.0,5,0.20893010803983164
6.945,0.13208310477486307,88.44584531855038,0,100,1.0,5,0.21674941224852243
6.95,0.10466285982723562,88.70146811501344,0,100,1.0,5,0.22181124980224634
6.955,0.08111733445917907,88.80754517288817,0,100,1.0,5,0.2239117856017459
6.96,0.06149084917398798,88.75976200907462,0,100,1.0,5,0.22296558433811128
6.965,0.04559141333598128,88.56006114259078,0,100,1.0,5,0.21901111173447094
6.97,0.03306217087257399,88.21650740561338,0,100,1.0,5,0.2122080674378888
6.975,0.02345067901074276,87.74274663539316,0,100,1.0,5,0.20282666604738933
6.98,0.016268788896435526,87.15710631316468,0,100,1.0,5,0.19122982798345892
6.985,0.011039026374860051,86.48142019658886,0,100,1.0,5,0.17784990488294766
6.99,0.007326255555493689,85.73968176817759,0,100,1.0,5,0.16316201521143742
6.995,0.0047556414315231815,84.95664182706211,0,100,1.0,5,0.14765627380321017
7.0,0.0030193390635632803,84.15646337911748,0,100,1.0,5,0.13181115602212837
7.005,0.001874953127946523,83.36153323734182,0,100,1.0,5,0.11606996509587757
7.01,0.0011387927410965778,82.59150690834363,0,100,1.0,5,0.10082191897710163
7.015,0.0006765107634274089,81.86263483969579,0,100,1.0,5,0.08638880870684726
7.02,0.00039307957404427924,81.18738775969096,0,100,1.0,5,0.07301757939982106
7.025,0.00022338910511776318,80.57437030471705,0,100,1.0,5,0.06087861989538713
7.03,0.00012417073320013317,80.02848839135753,0,100,1.0,5,0.0500690770565847
7.035,6.750753468904987e-05,79.55131885537037,0,100,1.0,5,0.040620175353868686
7.04,3.5897234866245036e-05,79.14162062723075,0,100,1.0,5,0.03250733915308417
7.045,1.8670050400879738e-05,78.79592494440962,0,100,1.0,5,0.025661880087319212
7.05,9.497421874143672e-06,78.50914673365939,0,100,1.0,5,0.019983103636819648
7.055,4.725434140340885e-06,78.2751686651716,0,100,1.0,5,0.015349874557853577
7.06,2.299606063738814e-06,78.08736155817212,0,100,1.0,5,0.01163092194400237
7.065,1.0945633976635486e-06,77.93901792246764,0,100,1.0,5,0.008693424207280032
7.07,5.095703414287532e-07,77.82368785280029,0,100,1.0,5,0.0064096604514908995
7.075,2.3202944964797243e-07,77.73541708275205,0,100,1.0,5,0.004661724410931694
7.08,1.0333746954038608e-07,77.66889506741865,0,100,1.0,5,0.0033444567805672436
7.085,4.501406988770349e-08,77.61952627338034,0,100,1.0,5,0.0023668568986206853
7.09,0.0,77.583440560487,0,100,1.0,5,0.0016522883264753596
7.095,0.0,77.55745905335685,0,100,1.0,5,0.0011378030367693284
7.1,0.0,77.53903077198105,0,100,1.0,5,0.0007728865738821098
7.105,0.0,77.52615310372167,0,100,1.0,5,0.0005178832420132368
7.11,0.0,77.51728648731061,0,100,1.0,5,0.00034230667941809016
7.115,0.0,77.51127087641395,0,100,1.0,5,0.00022318567156327782
7.12,0.0,77.50724896569103,0,100,1.0,5,0.0001435438750699704
7.125,0.0,77.50459898318086,0,100,1.0,5,9.10689738783267e-05
7.13,0.0,77.50287816056776,0,100,1.0,5,5.699327856952082e-05
7.135,0.0,77.50177678810005,0,100,1.0,5,3.518392277317274e-05
7.14,0.0,77.50108199106754,0,100,1.0,5,2.1425565693793897e-05
7.145,0.0,77.5006499487824,0,100,1.0,5,1.2870272918730328e-05
7.15,0.0,77.50038512526845,0,100,1.0,5,7.626242939628661e-06
7.155,0.0,77.50022510871771,0,100,1.0,5,4.457598370580323e-06
7.16,0.0,77.5001297926306,0,100,1.0,5,2.5701511010358426e-06
7.165,0.0,77.50007382019291,0,100,1.0,5,1.4617859982094934e-06
7.17,0.0,77.50004141596045,0,100,1.0,5,8.201180287752583e-07
7.175,0.0,77.50002292069169,0,100,1.0,5,4.5387508299598373e-07
7.18,0.0,77.50001251281783,0,100,1.0,5,2.477785709414651e-07
7.185,0.0,77.50000673829383,0,100,1.0,5,1.334315610696793e-07
7.19,0.001684486749771458,77.50000357941612,0,100,1.0,5,7.087952705732466e-08
7.195,0.00456624331333666,77.50000187560704,0,100,1.0,5,3.714073347221682e-08
7.2,0.011079731271581421,77.50000096948018,0,100,1.0,5,1.919762739096696e-08
7.205,0.024064571490409,77.5000004943146,0,100,1.0,5,9.788408024718646e-09
7.21,0.046784906529573234,77.5000002486196,0,100,1.0,5,4.923160387610695e-09
7.215,0.08141644351188804,77.50000012334874,0,100,1.0,5,2.442549326714119e-09
7.22,0.12682276464025305,77.50000006036726,0,100,1.0,5,1.1953912095609352e-09
7.225,0.1768320708657512,77.5000000291431,0,100,1.0,5,5.770909910556793e-10
7.23,0.22070063230473494,77.50000001387833,0,100,1.0,6,2.748185133806137e-10
7.235,0.24656126505113576,77.50000000651939,0,100,1.0,6,1.290967508911047e-10
7.24,0.24656126505724016,77.50000000302094,0,100,1.0,6,5.982066327440875e-11
7.245,0.220700632329898,77.50000000138085,0,100,1.0,6,2.7343654293494327e-11
7.25,0.17683207093748562,77.5000000006226,0,100,1.0,6,1.2328831025394658e-11
7.255,0.12682276483597799,77.50000000027693,0,100,1.0,6,5.4837015016859696e-12
7.26,0.08141644409447898,77.50000000012149,0,100,1.0,6,2.4057147912923155e-12
7.265,0.04678490952598309,77.50000000005258,0,100,1.0,6,1.0411913355692557e-12
7.27,0.024064605020532023,77.50000000002245,0,100,1.0,6,4.446168405944389e-13
7.275,0.011080171739334697,77.50000000000945,0,100,1.0,6,1.8713303733879865e-13
7.28,0.004571212771509492,77.50000000000392,0,100,1.0,6,7.766724557219314e-14
7.285,0.0017299316936037438,77.5000000000016,0,100,1.0,6,3.179854619441241e-14
7.29,0.0008899431850697582,77.50000000000065,0,100,1.0,6,1.2944540928698855e-14
7.295,0.002128806368910263,77.50000000000026,0,100,1.0,6,5.065255146012595e-15
7.3,0.009309664818487698,77.5000000000001,0,100,1.0,6,1.969821445671565e-15
7.305,0.03503263543368747,77.50000000000004,0,100,1.0,6,8.442091910020992e-16
7.31,0.10606267793605692,77.50000000000001,0,100,1.0,6,2.814030636673664e-16
7.315,0.25734927343160535,77.5,0,100,1.0,6,0.0
7.32,0.5003202479539708,77.5,0,100,1.0,6,0.0
7.325,0.7793067891790435,77.5,0,100,1.0,6,0.0
7.33,0.9720477407234077,77.500002961856,1,100,1.0,6,5.865061381774638e-08
7.335,0.967267334488097,77.500006041423,0,100,1.0,6,1.1963213873878877e-07
7.34,0.7505869905515209,77.50001328138595,0,100,1.0,6,2.629977415165173e-07
7.345,0.4028369574773956,77.50003283321637,0,100,1.0,6,6.501627003199426e-07
7.35,0.04553881263121314,77.50009198824264,0,100,1.0,6,1.8215493592959877e-06
7.355,-0.189138810908105,77.50028074560149,0,100,1.0,6,5.559318841314602e-06
7.36,-0.22868072635956738,77.50088215537116,0,100,1.0,6,1.7468423191256096e-05
7.365,-0.14104670682394166,77.5027317136506,0,100,1.0,6,5.409333961592487e-05
7.37,-0.051158381651102834,77.50812515206187,0,100,1.0,6,0.00016089410023495125
7.375,-0.008206426846427752,77.52290585167412,0,100,1.0,6,0.0004535812212697967
7.38,0.005350271385530505,77.5607994860294,0,100,1.0,6,0.0012039502184038745
7.385,0.01084668799215426,77.65144697964095,0,100,1.0,6,0.0029989500919000286
7.39,0.016256859896386415,77.85343089561607,0,100,1.0,6,0.00699863159635785
7.395,0.02345021205790711,78.27206809920676,0,100,1.0,6,0.015288477212015105
7.4,0.0330621597308209,79.07802187804528,0,100,1.0,6,0.031247957981094594
7.405,0.04559141319943196,80.51693895137673,0,100,1.0,6,0.05974136537379663
7.41,0.06149084917446989,82.89454088046219,0,100,1.0,6,0.10682259169232054
7.415,0.08111733445924295,86.52074732919208,0,100,1.0,6,0.17862865998400151
7.42,0.1046628598272375,91.60628022891433,0,100,1.0,6,0.2793322817606798
7.425,0.1320831047748631,98.12800786254579,0,100,1.0,6,0.40847540321872844
7.43,0.16303381314489318,105.70840989696592,0,100,1.0,6,0.5585823741973449
7.435,0.19682662652900276,113.57344353324595,0,100,1.0,6,0.7143256145197218
7.44,0.23241585813229,120.64276888442222,0,100,1.0,6,0.8543122551370738
7.445,0.26842527782774417,125.75956336367835,0,100,1.0,6,0.9556349180926407
7.45,0.30321927900592993,128.0,0,100,1.0,6,1.0
7.455,0.3350163137995362,126.95061745029365,0,100,1.0,6,0.9792201475305673
7.46,0.3620352400956416,122.84001560912182,0,100,1.0,6,0.897822091269739
7.465,0.3826586036805073,116.46801010317881,0,100,1.0,6,0.7716437644193824
7.47,0.39559233134833227,108.96296573740314,0,100,1.0,6,0.6230290245030324
7.475,0.4,101.46881286087532,0,100,1.0,6,0.4746299576410954
7.48,0.39559233134833227,94.88053871179497,0,100,1.0,6,0.34416908340188057
7.485,0.3826586036805073,89.70779311233117,0,100,1.0,6,0.24173847747190444
7.49,0.3620352400956416,86.07956026661839,0,100,1.0,6,0.1698922825072948
7.495,0.3350163137995362,83.84687409322002,0,100,1.0,6,0.1256806751132678
7.5,0.3032192790059296,82.7187027867249,0,100,1.0,6,0.10334064924207731
7.505,0.26842527782774417,82.37771688222631,0,100,1.0,6,0.09658845311339226
7.51,0.23241585813229,82.55072048744152,0,100,1.0,6,0.10001426707804997
7.515,0.19682662652900276,83.03453037589074,0,100,1.0,6,0.1095946609087275
7.52,0.16303381314489318,83.69208055632127,0,100,1.0,6,0.12261545656081728
7.525,0.13208310477486307,84.43544696634281,0,100,1.0,6,0.1373355834919368
7.53,0.10466285982723562,85.20760297898806,0,100,1.0,6,0.15262580156412006
7.535,0.08111733445917907,85.96850260217812,0,100,1.0,6,0.1676931208352103
7.54,0.06149084917398798,86.6865931944108,0,100,1.0,6,0.18191273652298623
7.545,0.04559141333598128,87.33469336179016,0,100,1.0,6,0.19474640320376552
7.55,0.03306217087257399,87.88866412777621,0,100,1.0,6,0.20571612134210315
7.555,0.02345067901074276,88.32756689971691,0,100,1.0,6,0.21440726534092897
7.56,0.016268788896435526,88.63444229094094,0,100,1.0,6,0.22048400576120672
7.565,0.011039026374860051,88.7972016808272,0,100,1.0,6,0.22370696397677625
7.57,0.007326255555493689,88.80935150413694,0,100,1.0,6,0.22394755453736517
7.575,0.0047556414315231815,88.67040269484706,0,100,1.0,6,0.22119609296726842
7.58,0.0030193390635632803,88.38589749796584,0,100,1.0,6,0.21556232669239292
7.585,0.001874953127946523,87.96704111602165,0,100,1.0,6,0.20726814091131976
7.59,0.0011387927410965778,87.42996910265714,0,100,1.0,6,0.19663305153776514
7.595,0.0006765107634274089,86.79471636674512,0,100,1.0,6,0.18405378944049744
7.6,0.00039307957404427924,86.08397933237504,0,100,1.0,6,0.16997978875990172
7.605,0.00022338910511776318,85.32177758289465,0,100,1.0,6,0.15488668480979514
7.61,0.00012417073320013317,84.53212429988861,0,100,1.0,6,0.13924998613640807
7.615,6.750753468904987e-05,83.7378064113005,0,100,1.0,6,0.1235209190356534
7.62,3.5897234866245036e-05,82.95935736032456,0,100,1.0,6,0.1081060863430606
7.625,1.8670050400879738e-05,82.21428063285789,0,100,1.0,6,0.09335209173976025
7.63,9.497421874143672e-06,81.51655406697313,0,100,1.0,6,0.0795357240984778
7.635,4.725434140340885e-06,80.8764170164331,0,100,1.0,6,0.06685974289966524
7.64,2.299606063738814e-06,80.30041774319758,0,100,1.0,6,0.05545381669698188
7.645,1.0945633976635486e-06,79.7916792805792,0,100,1.0,6,0.04537978773424164
7.65,5.095703414287532e-07,79.35032975682887,0,100,1.0,6,0.03664019320453208
7.655,2.3202944964797243e-07,78.97403808767992,0,100,1.0,6,0.029188873023364655
7.66,1.0333746954038608e-07,78.65859741440458,0,100,1.0,6,0.022942523057516477
7.665,4.501406988770349e-08,78.39850537991533,0,100,1.0,6,0.01779218574089772
7.67,0.0,78.1875006071592,0,100,1.0,6,0.01361387340909295
7.675,0.0,78.01902678123402,0,100,1.0,6,0.010277758044237983
7.68,0.0,77.8866079019436,0,100,1.0,6,0.007655602018685262
7.685,0.0,77.78412926151917,0,100,1.0,6,0.0056263220102805754
7.69,0.0,77.70602763440992,0,100,1.0,6,0.004079755136830114
7.695,0.0,77.64740060525696,0,100,1.0,6,0.002918823866474497
7.7,0.0,77.604048862077,0,100,1.0,6,0.0020603735064751187
7.705,0.0,77.57246689949535,0,100,1.0,6,0.0014349881088188759
7.71,0.0,77.54979735814472,0,100,1.0,6,0.000986086299895357
7.715,0.0,77.53376270259416,0,100,1.0,6,0.0006685683682011887
7.72,0.0,77.52258563891289,0,100,1.0,6,0.000447240374512603
7.725,0.0,77.51490705436474,0,100,1.0,6,0.0002951891953414091
7.73,0.0,77.50970768257822,0,100,1.0,6,0.00019223133818265054
7.735,0.0,77.50623739972342,0,100,1.0,6,0.000123512865810248
7.74,0.0,77.50395417479393,0,100,1.0,6,7.830049096895945e-05
7.745,0.0,77.50247327511215,0,100,1.0,6,4.8975744795087046e-05
7.75,0.0,77.50152634696913,0,100,1.0,6,3.0224692458002417e-05
7.755,0.0,77.50092939083888,0,100,1.0,6,1.840377898766332e-05
7.76,0.0,77.50055835162344,0,100,1.0,6,1.1056467790881876e-05
7.765,0.0,77.50033096453323,0,100,1.0,6,6.553753133339972e-06
7.77,0.0,77.50019356169078,0,100,1.0,6,3.832904767894361e-06
7.775,0.0,77.50011169188872,0,100,1.0,6,2.2117205686966075e-06
7.78,0.0,77.50006358989972,0,100,1.0,6,1.2592059351395573e-06
7.785,0.0,77.5000357206146,0,100,1.0,6,7.07338903067007e-07
7.79,0.0,77.50001979766552,0,100,1.0,6,3.920329805119349e-07
7.795,0.0,77.50001082613204,0,100,1.0,6,2.1437885228950486e-07
7.8,0.0,77.50000584113084,0,100,1.0,6,1.156659572873173e-07
7.805,0.001684486749771458,77.50000310945893,0,100,1.0,6,6.157344416513495e-08
7.81,0.00456624331333666,77.50000163319106,0,100,1.0,6,3.234041705942254e-08
7.815,0.011079731271581421,77.50000084635671,0,100,1.0,6,1.6759538865618098e-08
7.82,0.024064571490409,77.5000004327471,0,100,1.0,6,8.569249512400364e-09
7.825,0.046784906529573234,77.50000021831278,0,100,1.0,6,4.323025299671295e-09
7.83,0.08141644351188804,77.5000001086647,0,100,1.0,6,2.151776103832757e-09
7.835,0.12682276464025305,77.50000005336567,0,100,1.0,6,1.0567458899134695e-09
7.84,0.1768320708657512,77.50000002585828,0,100,1.0,6,5.120452356950949e-10
7.845,0.22070063230473494,77.50000001236238,0,100,1.0,6,2.447995601608337e-10
7.85,0.24656126505113576,77.50000000583134,0,100,1.0,6,1.154720587575218e-10
7.855,0.24656126505724016,77.50000000271393,0,100,1.0,6,5.374123148693897e-11
7.86,0.220700632329898,77.50000000124622,0,100,1.0,6,2.4677641668309697e-11
7.865,0.17683207093748562,77.50000000056461,0,100,1.0,6,1.1180425122568135e-11
7.87,0.12682276483597799,77.50000000025238,0,100,1.0,6,4.997718410732428e-12
7.875,0.08141644409447898,77.50000000011131,0,100,1.0,6,2.204230197706481e-12
7.88,0.04678490952598309,77.50000000004844,0,100,1.0,6,9.59303044042052e-13
7.885,0.024064605020532023,77.5000000000208,0,100,1.0,6,4.1197408520902444e-13
7.89,0.011080171739334697,77.50000000000881,0,100,1.0,6,1.7446989947376718e-13
7.895,0.004571212771509492,77.50000000000368,0,100,1.0,6,7.28833934898479e-14
7.9,0.0017299316936037438,77.50000000000152,0,100,1.0,6,3.011012781240821e-14
7.905,0.0008899431850697582,77.50000000000061,0,100,1.0,6,1.2100331737696755e-14
7.91,0.002128806368910263,77.50000000000024,0,100,1.0,6,4.783852082345229e-15
7.915,0.009309664818487698,77.5000000000001,0,100,1.0,6,1.969821445671565e-15
7.92,0.03503263543368747,77.50000000000004,0,100,1.0,6,8.442091910020992e-16
7.925,0.10606267793605692,77.50000000000001,0,100,1.0,6,2.814030636673664e-16
7.93,0.25734927343160535,77.5,0,100,1.0,6,0.0
7.935,0.5003202479539708,77.5,0,100,1.0,6,0.0
7.94,0.7793067891790435,77.5,0,100,1.0,6,0.0
7.945,0.9720477407234077,77.500002961856,1,100,1.0,6,5.865061381774638e-08
7.95,0.967267334488097,77.500006041423,0,100,1.0,6,1.1963213873878877e-07
7.955,0.7505869905515209,77.50001328138595,0,100,1.0,6,2.629977415165173e-07
7.96,0.4028369574773956,77.50003283321637,0,100,1.0,6,6.501627003199426e-07
7.965,0.04553881263121314,77.50009198824264,0,100,1.0,6,1.8215493592959877e-06
7.97,-0.189138810908105,77.50028074560149,0,100,1.0,6,5.559318841314602e-06
7.975,-0.22868072635956738,77.50088215537116,0,100,1.0,6,1.7468423191256096e-05
7.98,-0.14104670682394166,77.5027317136506,0,100,1.0,6,5.409333961592487e-05
7.985,-0.051158381651102834,77.50812515206187,0,100,1.0,6,0.00016089410023495125
7.99,-0.008206426846427752,77.52290585167412,0,100,1.0,6,0.0004535812212697967
7.995,0.005350271385530505,77.5607994860294,0,100,1.0,6,0.0012039502184038745
8.0,0.01084668799215426,77.65144697964095,0,100,1.0,6,0.0029989500919000286
8.005,0.016256859896386415,77.85343089561607,0,100,1.0,6,0.00699863159635785
8.01,0.02345021205790711,78.27206809920676,0,100,1.0,6,0.015288477212015105
8.015,0.0330621597308209,79.07802187804528,0,100,1.0,6,0.031247957981094594
8.02,0.04559141319943196,80.51693895137673,0,100,1.0,6,0.05974136537379663
8.025,0.06149084917446989,82.89454088046219,0,100,1.0,6,0.10682259169232054
8.03,0.08111733445924295,86.52074732919208,0,100,1.0,6,0.17862865998400151
8.035,0.1046628598272375,91.60628022891433,0,100,1.0,6,0.2793322817606798
8.04,0.1320831047748631,98.12800786254579,0,100,1.0,6,0.40847540321872844
8.045,0.16303381314489318,105.70840989696592,0,100,1.0,6,0.5585823741973449
8.05,0.19682662652900276,113.57344353324595,0,100,1.0,6,0.7143256145197218
8.055,0.23241585813229,120.64276888442222,0,100,1.0,6,0.8543122551370738
8.06,0.26842527782774417,125.75956336367835,0,100,1.0,6,0.9556349180926407
8.065,0.30321927900592993,128.0,0,100,1.0,6,1.0
8.07,0.3350163137995362,126.95061745029365,0,100,1.0,6,0.9792201475305673
8.075,0.3620352400956416,122.84001560912182,0,100,1.0,6,0.897822091269739
8.08,0.3826586036805073,116.46801010317881,0,100,1.0,6,0.7716437644193824
8.085,0.39559233134833227,108.96296573740314,0,100,1.0,6,0.6230290245030324
8.09,0.4,101.46881286087532,0,100,1.0,6,0.4746299576410954
8.095,0.39559233134833227,94.88053871179497,0,100,1.0,6,0.34416908340188057
8.1,0.3826586036805073,89.70779311233117,0,100,1.0,6,0.24173847747190444
8.105,0.3620352400956416,86.07956026661839,0,100,1.0,6,0.1698922825072948
8.11,0.3350163137995362,83.84687409322002,0,100,1.0,6,0.1256806751132678
8.115,0.3032192790059296,82.7187027867249,0,100,1.0,6,0.10334064924207731
8.12,0.26842527782774417,82.37771688222631,0,100,1.0,6,0.09658845311339226
8.125,0.23241585813229,82.55072048744152,0,100,1.0,6,0.10001426707804997
8.13,0.19682662652900276,83.03453037589074,0,100,1.0,6,0.1095946609087275
8.135,0.16303381314489318,83.69208055632127,0,100,1.0,6,0.12261545656081728
8.14,0.13208310477486307,84.43544696634281,0,100,1.0,6,0.1373355834919368
8.145,0.10466285982723562,85.20760297898806,0,100,1.0,6,0.15262580156412006
8.15,0.08111733445917907,85.96850260217812,0,100,1.0,6,0.1676931208352103
8.155,0.06149084917398798,86.6865931944108,0,100,1.0,6,0.18191273652298623
8.16,0.04559141333598128,87.33469336179016,0,100,1.0,6,0.19474640320376552
8.165,0.03306217087257399,87.88866412777621,0,100,1.0,6,0.20571612134210315
8.17,0.02345067901074276,88.32756689971691,0,100,1.0,6,0.21440726534092897
8.175,0.016268788896435526,88.63444229094094,0,100,1.0,6,0.22048400576120672
8.18,0.011039026374860051,88.7972016808272,0,100,1.0,6,0.22370696397677625
8.185,0.007326255555493689,88.80935150413694,0,100,1.0,6,0.22394755453736517
8.19,0.0047556414315231815,88.67040269484706,0,100,1.0,6,0.22119609296726842
8.195,0.0030193390635632803,88.38589749796584,0,100,1.0,6,0.21556232669239292
8.2,0.001874953127946523,87.96704111602165,0,100,1.0,6,0.20726814091131976
8.205,0.0011387927410965778,87.42996910265714,0,100,1.0,6,0.19663305153776514
8.21,0.0006765107634274089,86.79471636674512,0,100,1.0,6,0.18405378944049744
8.215,0.00039307957404427924,86.08397933237504,0,100,1.0,6,0.16997978875990172
8.22,0.00022338910511776318,85.32177758289465,0,100,1.0,6,0.15488668480979514
8.225,0.00012417073320013317,84.53212429988861,0,100,1.0,6,0.13924998613640807
8.23,6.750753468904987e-05,83.7378064113005,0,100,1.0,6,0.1235209190356534
8.235,3.5897234866245036e-05,82.95935736032456,0,100,1.0,6,0.1081060863430606
8.24,1.8670050400879738e-05,82.21428063285789,0,100,1.0,6,0.09335209173976025
8.245,9.497421874143672e-06,81.51655406697313,0,100,1.0,6,0.0795357240984778
8.25,4.725434140340885e-06,80.8764170164331,0,100,1.0,6,0.06685974289966524
8.255,2.299606063738814e-06,80.30041774319758,0,100,1.0,6,0.05545381669698188
8.26,1.0945633976635486e-06,79.7916792805792,0,100,1.0,6,0.04537978773424164
8.265,5.095703414287532e-07,79.35032975682887,0,100,1.0,6,0.03664019320453208
8.27,2.3202944964797243e-07,78.97403808767992,0,100,1.0,6,0.029188873023364655
8.275,1.0333746954038608e-07,78.65859741440458,0,100,1.0,6,0.022942523057516477
8.28,4.501406988770349e-08,78.39850537991533,0,100,1.0,6,0.01779218574089772
8.285,0.0,78.1875006071592,0,100,1.0,6,0.01361387340909295
8.29,0.0,78.01902678123402,0,100,1.0,6,0.010277758044237983
8.295,0.0,77.8866079019436,0,100,1.0,6,0.007655602018685262
8.3,0.0,77.78412926151917,0,100,1.0,6,0.0056263220102805754
8.305,0.0,77.70602763440992,0,100,1.0,6,0.004079755136830114
8.31,0.0,77.64740060525696,0,100,1.0,6,0.002918823866474497
8.315,0.0,77.604048862077,0,100,1.0,6,0.0020603735064751187
8.32,0.0,77.57246689949535,0,100,1.0,6,0.0014349881088188759
8.325,0.0,77.54979735814472,0,100,1.0,6,0.000986086299895357
8.33,0.0,77.53376270259416,0,100,1.0,6,0.0006685683682011887
8.335,0.0,77.52258563891289,0,100,1.0,6,0.000447240374512603
8.34,0.0,77.51490705436474,0,100,1.0,6,0.0002951891953414091
8.345,0.0,77.50970768257822,0,100,1.0,6,0.00019223133818265054
8.35,0.0,77.50623739972342,0,100,1.0,6,0.000123512865810248
8.355,0.0,77.50395417479393,0,100,1.0,6,7.830049096895945e-05
8.36,0.0,77.50247327511215,0,100,1.0,6,4.8975744795087046e-05
8.365,0.0,77.50152634696913,0,100,1.0,6,3.0224692458002417e-05
8.37,0.0,77.50092939083888,0,100,1.0,6,1.840377898766332e-05
8.375,0.0,77.50055835162344,0,100,1.0,6,1.1056467790881876e-05
8.38,0.0,77.50033096453323,0,100,1.0,6,6.553753133339972e-06
8.385,0.0,77.50019356169078,0,100,1.0,6,3.832904767894361e-06
8.39,0.0,77.50011169188872,0,100,1.0,6,2.2117205686966075e-06
8.395,0.0,77.50006358989972,0,100,1.0,6,1.2592059351395573e-06
8.4,0.0,77.5000357206146,0,100,1.0,6,7.07338903067007e-07
8.405,0.0,77.50001979766552,0,100,1.0,6,3.920329805119349e-07
8.41,0.0,77.50001082613204,0,100,1.0,6,2.1437885228950486e-07
8.415,0.0,77.50000584113084,0,100,1.0,6,1.156659572873173e-07
8.42,0.001684486749771458,77.50000310945893,0,100,1.0,6,6.157344416513495e-08
8.425,0.00456624331333666,77.50000163319106,0,100,1.0,6,3.234041705942254e-08
8.43,0.011079731271581421,77.50000084635671,0,100,1.0,6,1.6759538865618098e-08
8.435,0.024064571490409,77.5000004327471,0,100,1.0,7,8.569249512400364e-09
8.44,0.046784906529573234,77.50000021831278,0,100,1.0,7,4.323025299671295e-09
8.445,0.08141644351188804,77.5000001086647,0,100,1.0,7,2.151776103832757e-09
8.45,0.12682276464025305,77.50000005336567,0,100,1.0,7,1.0567458899134695e-09
8.455,0.1768320708657512,77.50000002585828,0,100,1.0,7,5.120452356950949e-10
8.46,0.22070063230473494,77.50000001236238,0,100,1.0,7,2.447995601608337e-10
8.465,0.24656126505113576,77.50000000583134,0,100,1.0,7,1.154720587575218e-10
8.47,0.24656126505724016,77.50000000271393,0,100,1.0,7,5.374123148693897e-11
8.475,0.220700632329898,77.50000000124622,0,100,1.0,7,2.4677641668309697e-11
8.48,0.17683207093748562,77.50000000056461,0,100,1.0,7,1.1180425122568135e-11
8.485,0.12682276483597799,77.50000000025238,0,100,1.0,7,4.997718410732428e-12
8.49,0.08141644409447898,77.50000000011131,0,100,1.0,7,2.204230197706481e-12
8.495,0.04678490952598309,77.50000000004844,0,100,1.0,7,9.59303044042052e-13
8.5,0.024064605020532023,77.5000000000208,0,100,1.0,7,4.1197408520902444e-13
8.505,0.011080171739334697,77.50000000000881,0,100,1.0,7,1.7446989947376718e-13
8.51,0.004571212771509492,77.50000000000368,0,100,1.0,7,7.28833934898479e-14
8.515,0.0017299316936037438,77.50000000000152,0,100,1.0,7,3.011012781240821e-14
8.52,0.0008899431850697582,77.50000000000061,0,100,1.0,7,1.2100331737696755e-14
8.525,0.002128806368910263,77.50000000000024,0,100,1.0,7,4.783852082345229e-15
8.53,0.009309664818487698,77.5000000000001,0,100,1.0,7,1.969821445671565e-15
8.535,0.03503263543368747,77.50000000000004,0,100,1.0,7,8.442091910020992e-16
8.54,0.10606267793605692,77.50000000000001,0,100,1.0,7,2.814030636673664e-16
8.545,0.25734927343160535,77.5,0,100,1.0,7,0.0
8.55,0.5003202479539708,77.5,0,100,1.0,7,0.0
