Time,ECG,Pressure,R_Peaks,mean_hr,hrv_scale,Phase_Bin,Normalized_Pressure
0.0,0.001684486749771458,77.5,0,60,1.0,0,0.0
0.005,0.003097557930867117,77.5,0,60,1.0,0,0.0
0.01,0.005475106668887023,77.5,0,60,1.0,0,0.0
0.015,0.00930222931468658,77.5,0,60,1.0,0,0.0
0.02,0.01519157517868857,77.5,0,60,1.0,0,0.0
0.025,0.023847336626128316,77.5,0,60,1.0,0,0.0
0.03,0.0359830743700859,77.5,0,60,1.0,0,0.0
0.035,0.05218887796857759,77.5,0,60,1.0,0,0.0
0.04,0.0727577001223134,77.5,0,60,1.0,0,0.0
0.045,0.0974992498694751,77.5,0,60,1.0,0,0.0
0.05,0.12558706050443358,77.5,0,60,1.0,0,0.0
0.055,0.15549263588878245,77.5,0,60,1.0,0,0.0
0.06,0.1850529723539114,77.5,0,60,1.0,0,0.0
0.065,0.21169159439317053,77.5,0,60,1.0,0,0.0
0.07,0.23277292922115492,77.5,0,60,1.0,0,0.0
0.075,0.24602692519491282,77.5,0,60,1.0,0,0.0
0.08,0.24995056064839283,77.5,0,60,1.0,0,0.0
0.085,0.24408826520424054,77.5,0,60,1.0,0,0.0
0.09,0.22911894216865275,77.5,0,60,1.0,0,0.0
0.095,0.20672661788705934,77.5,0,60,1.0,0,0.0
0.1,0.17928878030241233,77.5,0,60,1.0,0,0.0
0.105,0.14946211903866036,77.5,0,60,1.0,0,0.0
0.11,0.1197651512573837,77.5,0,60,1.0,0,0.0
0.115,0.09224675744988023,77.5,0,60,1.0,0,0.0
0.12,0.06829565320281596,77.5,0,60,1.0,0,0.0
0.125,0.04860224607515734,77.5,0,60,1.0,0,0.0
0.13,0.03324612389699793,77.5,0,60,1.0,0,0.0
0.135,0.021859876340472782,77.5,0,60,1.0,0,0.0
0.14,0.01381595518554205,77.5,0,60,1.0,0,0.0
0.145,0.008394095110402422,77.5,0,60,1.0,0,0.0
0.15,0.0049052535271608,77.5,0,60,1.0,0,0.0
0.155,0.0027671663551903634,77.5,0,60,1.0,0,0.0
0.16,0.0015425553464444616,77.5,0,60,1.0,0,0.0
0.165,0.0009638206637011801,77.5,0,60,1.0,0,0.0
0.17,0.0009804935156568228,77.5,0,60,1.0,0,0.0
0.175,0.0018793744894085216,77.5,0,60,1.0,0,0.0
0.18,0.004535525206900863,77.5,0,60,1.0,0,0.0
0.185,0.010832767979632273,77.5,0,60,1.0,0,0.0
0.19,0.024208003392322392,77.5,0,60,1.0,0,0.0
0.195,0.0500971897335304,77.5,0,60,1.0,0,0.0
0.2,0.09582894921774403,77.5,0,60,1.0,0,0.0
0.205,0.16937896721820658,77.5,0,60,1.0,0,0.0
0.21,0.27661303008991756,77.5,0,60,1.0,0,0.0
0.215,0.4173782800009149,77.5,0,60,1.0,0,0.0
0.22,0.5818720934538056,77.5,0,60,1.0,0,0.0
0.225,0.7494718801585675,77.5,0,60,1.0,0,0.0
0.23,0.891813020752378,77.5,0,60,1.0,0,0.0
0.235,0.9800361632936612,77.5,0,60,1.0,0,0.0
0.24,0.993574479225126,77.5,0,60,1.0,0,0.0
0.245,0.9263438449375362,77.5,0,60,1.0,0,0.0
0.25,0.7873015962290536,77.5,0,60,1.0,0,0.0
0.255,0.5959516244629897,77.5,0,60,1.0,0,0.0
0.26,0.376910120078773,77.5,0,60,1.0,0,0.0
0.265,0.15739335672107918,77.5,0,60,1.0,0,0.0
0.27,-0.033361226269301235,77.5,0,60,1.0,0,0.0
0.275,-0.1680180840843834,77.5,0,60,1.0,0,0.0
0.28,-0.23069703190837854,77.5,0,60,1.0,0,0.0
0.285,-0.22587267821131068,77.5,0,60,1.0,0,0.0
0.29,-0.17718181630665902,77.5,0,60,1.0,0,0.0
0.295,-0.11494332516451301,77.5,0,60,1.0,0,0.0
0.3,-0.061810214049552864,77.5,0,60,1.0,0,0.0
0.305,-0.026546104631500547,77.5,0,60,1.0,0,0.0
0.31,-0.00719600351942686,77.5,0,60,1.0,0,0.0
0.315,0.0022072757983807078,77.5,0,60,1.0,0,0.0
0.32,0.006917199873730717,77.5,0,60,1.0,0,0.0
0.325,0.01004859748264829,77.5,0,60,1.0,0,0.0
0.33,0.013037082251128167,77.5,0,60,1.0,0,0.0
0.335,0.01645163937690478,77.5,0,60,1.0,0,0.0
0.34,0.020526639934696615,77.5,0,60,1.0,0,0.0
0.345,0.02539629541761738,77.5,0,60,1.0,0,0.0
0.35,0.031171612185577933,77.5,0,60,1.0,0,0.0
0.355,0.03795853426638131,77.5,0,60,1.0,0,0.0
0.36,0.0458588961882057,77.5,0,60,1.0,0,0.0
0.365,0.054966995891435555,77.5,0,60,1.0,0,0.0
0.37,0.06536491004445595,77.5,0,60,1.0,0,0.0
0.375,0.07711726085088699,77.5,0,60,1.0,0,0.0
0.38,0.09026570629555215,77.5,0,60,1.0,0,0.0
0.385,0.10482339848670268,77.5,0,60,1.0,0,0.0
0.39,0.12076968927580028,77.5,0,60,1.0,0,0.0
0.395,0.13804539501007884,77.5,0,60,1.0,0,0.0
0.4,0.15654895051787066,77.5,0,60,1.0,0,0.0
0.405,0.17613378141900526,77.5,0,60,1.0,0,0.0
0.41,0.19660720058055794,77.5,0,60,1.0,0,0.0
0.415,0.21773108748496234,77.5,0,60,1.0,0,0.0
0.42,0.23922453870058807,77.5,0,60,1.0,0,0.0
0.425,0.2607685857914563,77.5,0,60,1.0,0,0.0
0.43,0.2820129681603682,77.5,0,60,1.0,0,0.0
0.435,0.30258482867153996,77.5,0,60,1.0,0,0.0
0.44,0.3220990771751686,77.5,0,60,1.0,0,0.0
0.445,0.3401700499968971,77.5,0,60,1.0,0,0.0
0.45,0.3564239911198326,77.5,0,60,1.0,0,0.0
0.455,0.3705118017738417,77.5,0,60,1.0,0,0.0
0.46,0.3821214567925213,77.5,0,60,1.0,0,0.0
0.465,0.39098947374066967,77.5,0,60,1.0,0,0.0
0.47,0.3969108472035567,77.5,0,60,1.0,0,0.0
0.475,0.3997469255491936,77.5,0,60,1.0,0,0.0
0.48,0.3994308076379137,77.5,0,60,1.0,0,0.0
0.485,0.3959699661768434,77.5,0,60,1.0,0,0.0
0.49,0.38944595408114946,77.5,0,60,1.0,0,0.0
0.495,0.38001120995358023,77.5,0,60,1.0,0,0.0
0.5,0.3678831374098315,77.5,0,60,1.0,0,0.0
0.505,0.35333577933796634,77.5,0,60,1.0,0,0.0
0.51,0.33668953221163944,77.5,0,60,1.0,0,0.0
0.515,0.3182994390982644,77.5,0,60,1.0,0,0.0
0.52,0.29854265738230645,77.5,0,60,1.0,0,0.0
0.525,0.2778057157821067,77.5,0,60,1.0,0,0.0
0.53,0.2564721553719815,77.5,0,60,1.0,0,0.0
0.535,0.23491109433464996,77.5,0,60,1.0,0,0.0
0.54,0.21346717185309805,77.5,0,60,1.0,0,0.0
0.545,0.19245222055656455,77.5,0,60,1.0,0,0.0
0.55,0.17213889801761392,77.5,0,60,1.0,0,0.0
0.555,0.15275638501270183,77.5,0,60,1.0,0,0.0
0.56,0.13448814019607322,77.5,0,60,1.0,0,0.0
0.565,0.11747159495449566,77.5,0,60,1.0,0,0.0
0.57,0.10179958433370105,77.5,0,60,1.0,0,0.0
0.575,0.08752324394101413,77.5,0,60,1.0,0,0.0
0.58,0.07465606047174059,77.5,0,60,1.0,0,0.0
0.585,0.0631787448609295,77.5,0,60,1.0,0,0.0
0.59,0.05304460019959574,77.5,0,60,1.0,0,0.0
0.595,0.044185078305849994,77.5,0,60,1.0,0,0.0
0.6,0.03651525513023255,77.5,0,60,1.0,0,0.0
0.605,0.0299390014708757,77.5,0,60,1.0,0,0.0
0.61,0.024353677220580638,77.5,0,60,1.0,0,0.0
0.615,0.01965423034339045,77.5,0,60,1.0,0,0.0
0.62,0.015736632374757337,77.5,0,60,1.0,0,0.0
0.625,0.012500627640593535,77.5,0,60,1.0,0,0.0
0.63,0.009851811652115898,77.5,0,60,1.0,0,0.0
0.635,0.007703084175428559,77.5,0,60,1.0,0,0.0
0.64,0.005975544002062424,77.5,0,60,1.0,0,0.0
0.645,0.004598905818663047,77.5,0,60,1.0,0,0.0
0.65,0.0035115256454839104,77.5,0,60,1.0,0,0.0
0.655,0.002660121266303676,77.5,0,60,1.0,0,0.0
0.66,0.0019992692560877024,77.5,0,60,1.0,0,0.0
0.665,0.0014907520044639367,77.5,0,60,1.0,0,0.0
0.67,0.0011028178277539807,77.5,0,60,1.0,0,0.0
0.675,0.0008094059938923333,77.5,0,60,1.0,0,0.0
0.68,0.0005893771793717645,77.5,0,60,1.0,0,0.0
0.685,0.0004257792353490551,77.5,0,60,1.0,0,0.0
0.69,0.0003051686392901525,77.5,0,60,1.0,0,0.0
0.695,0.00021699992642659966,77.5,0,60,1.0,0,0.0
0.7,0.00015308884054097838,77.5,0,60,1.0,0,0.0
0.705,0.00010714989329311098,77.5,0,60,1.0,0,0.0
0.71,7.440535854020571e-05,77.5,0,60,1.0,0,0.0
0.715,5.1260276743925106e-05,77.5,0,60,1.0,0,0.0
0.72,3.503659887882241e-05,77.5,0,60,1.0,0,0.0
0.725,2.375894748103639e-05,77.5,0,60,1.0,0,0.0
0.73,1.5984413869232557e-05,77.5,0,60,1.0,0,0.0
0.735,1.0669166579899869e-05,77.5,0,60,1.0,0,0.0
0.74,7.06526633560511e-06,77.5,0,60,1.0,0,0.0
0.745,4.641847214699205e-06,77.5,0,60,1.0,0,0.0
0.75,3.025641074479182e-06,77.5,0,60,1.0,0,0.0
0.755,1.9566278676921314e-06,77.5,0,60,1.0,0,0.0
0.76,1.2553456560008793e-06,77.5,0,60,1.0,0,0.0
0.765,7.990660428214668e-07,77.5,0,60,1.0,0,0.0
0.77,5.046221251618276e-07,77.5,0,60,1.0,0,0.0
0.775,3.1616527078858815e-07,77.5,0,60,1.0,0,0.0
0.78,1.9652884407760343e-07,77.5,0,60,1.0,0,0.0
0.785,1.2120002189836396e-07,77.5,0,60,1.0,0,0.0
0.79,7.415549848886236e-08,77.5,0,60,1.0,0,0.0
0.795,4.501406988770349e-08,77.5,0,60,1.0,0,0.0
0.8,0.0,77.5,0,60,1.0,0,0.0
0.805,0.0,77.5,0,60,1.0,0,0.0
0.81,0.0,77.5,0,60,1.0,0,0.0
0.815,0.0,77.5,0,60,1.0,0,0.0
0.82,0.0,77.5,0,60,1.0,0,0.0
0.825,0.0,77.5,0,60,1.0,0,0.0
0.83,0.0,77.5,0,60,1.0,0,0.0
0.835,0.0,77.5,0,60,1.0,0,0.0
0.84,0.0,77.5,0,60,1.0,0,0.0
0.845,0.0,77.5,0,60,1.0,0,0.0
0.85,0.0,77.5,0,60,1.0,0,0.0
0.855,0.0,77.5,0,60,1.0,0,0.0
0.86,0.0,77.5,0,60,1.0,0,0.0
0.865,0.0,77.5,0,60,1.0,0,0.0
0.87,0.0,77.5,0,60,1.0,0,0.0
0.875,0.0,77.5,0,60,1.0,0,0.0
0.88,0.0,77.5,0,60,1.0,0,0.0
0.885,0.0,77.5,0,60,1.0,0,0.0
0.89,0.0,77.5,0,60,1.0,0,0.0
0.895,0.0,77.5,0,60,1.0,0,0.0
0.9,0.0,77.5,0,60,1.0,0,0.0
0.905,0.0,77.5,0,60,1.0,0,0.0
0.91,0.0,77.5,0,60,1.0,0,0.0
0.915,0.0,77.5,0,60,1.0,0,0.0
0.92,0.0,77.5,0,60,1.0,0,0.0
0.925,0.0,77.5,0,60,1.0,0,0.0
0.93,0.0,77.5,0,60,1.0,0,0.0
0.935,0.0,77.5,0,60,1.0,0,0.0
0.94,0.0,77.5,0,60,1.0,0,0.0
0.945,0.0,77.5,0,60,1.0,0,0.0
0.95,0.0,77.5,0,60,1.0,0,0.0
0.955,0.0,77.5,0,60,1.0,0,0.0
0.96,0.0,77.5,0,60,1.0,0,0.0
0.965,0.0,77.5,0,60,1.0,0,0.0
0.97,0.0,77.5,0,60,1.0,0,0.0
0.975,0.0,77.5,0,60,1.0,0,0.0
0.98,0.0,77.5,0,60,1.0,0,0.0
0.985,0.0,77.5,0,60,1.0,0,0.0
0.99,0.0,77.5,0,60,1.0,0,0.0
0.995,0.0,77.5,0,60,1.0,0,0.0
1.0,0.0,77.5,0,60,1.0,0,0.0
1.005,0.0,77.5,0,60,1.0,0,0.0
1.01,0.0,77.5,0,60,1.0,0,0.0
1.015,0.0,77.5,0,60,1.0,0,0.0
1.02,0.0,77.5,0,60,1.0,0,0.0
1.025,0.0,77.5,0,60,1.0,0,0.0
1.03,0.0,77.5,0,60,1.0,0,0.0
1.035,0.0,77.5,0,60,1.0,0,0.0
1.04,0.0,77.5,0,60,1.0,0,0.0
1.045,0.001684486749771458,77.5,0,60,1.0,0,0.0
1.05,0.003097557930867117,77.5,0,60,1.0,0,0.0
1.055,0.005475106668887023,77.5,0,60,1.0,0,0.0
1.06,0.00930222931468658,77.5,0,60,1.0,0,0.0
1.065,0.01519157517868857,77.5,0,60,1.0,0,0.0
1.07,0.023847336626128316,77.5,0,60,1.0,0,0.0
1.075,0.0359830743700859,77.5,0,60,1.0,0,0.0
1.08,0.05218887796857759,77.5,0,60,1.0,0,0.0
1.085,0.0727577001223134,77.5,0,60,1.0,0,0.0
1.09,0.0974992498694751,77.5,0,60,1.0,0,0.0
1.095,0.12558706050443358,77.5,0,60,1.0,0,0.0
1.1,0.15549263588878245,77.5,0,60,1.0,0,0.0
1.105,0.1850529723539114,77.5,0,60,1.0,0,0.0
1.11,0.21169159439317053,77.5,0,60,1.0,0,0.0
1.115,0.23277292922115492,77.5,0,60,1.0,0,0.0
1.12,0.24602692519491282,77.5,0,60,1.0,0,0.0
1.125,0.24995056064839283,77.5,0,60,1.0,0,0.0
1.13,0.24408826520424054,77.5,0,60,1.0,0,0.0
1.135,0.22911894216865275,77.5,0,60,1.0,0,0.0
1.14,0.20672661788705934,77.5,0,60,1.0,0,0.0
1.145,0.17928878030241233,77.5,0,60,1.0,0,0.0
1.15,0.14946211903866036,77.5,0,60,1.0,0,0.0
1.155,0.1197651512573837,77.5,0,60,1.0,0,0.0
1.16,0.09224675744988023,77.5,0,60,1.0,0,0.0
1.165,0.06829565320281596,77.5,0,60,1.0,0,0.0
1.17,0.04860224607515734,77.5,0,60,1.0,0,0.0
1.175,0.03324612389699793,77.5,0,60,1.0,0,0.0
1.18,0.021859876340472782,77.5,0,60,1.0,0,0.0
1.185,0.01381595518554205,77.5,0,60,1.0,0,0.0
1.19,0.008394095110402422,77.5,0,60,1.0,0,0.0
1.195,0.0049052535271608,77.5,0,60,1.0,0,0.0
1.2,0.0027671663551903634,77.5,0,60,1.0,0,0.0
1.205,0.0015425553464444616,77.5,0,60,1.0,1,0.0
1.21,0.0009638206637011801,77.5,0,60,1.0,1,0.0
1.215,0.0009804935156568228,77.5,0,60,1.0,1,0.0
1.22,0.0018793744894085216,77.5,0,60,1.0,1,0.0
1.225,0.004535525206900863,77.5,0,60,1.0,1,0.0
1.23,0.010832767979632273,77.5,0,60,1.0,1,0.0
1.235,0.024208003392322392,77.5,0,60,1.0,1,0.0
1.24,0.0500971897335304,77.5,0,60,1.0,1,0.0
1.245,0.09582894921774403,77.5,0,60,1.0,1,0.0
1.25,0.16937896721820658,77.5,0,60,1.0,1,0.0
1.255,0.27661303008991756,77.5,0,60,1.0,1,0.0
1.26,0.4173782800009149,77.5,0,60,1.0,1,0.0
1.265,0.5818720934538056,77.5,0,60,1.0,1,0.0
1.27,0.7494718801585675,77.5,0,60,1.0,1,0.0
1.275,0.891813020752378,77.5,0,60,1.0,1,0.0
1.28,0.9800361632936612,77.5,0,60,1.0,1,0.0
1.285,0.993574479225126,77.50000249379623,1,60,1.0,1,5.8677558372972485e-08
1.29,0.9263438449375362,77.50000382794776,0,60,1.0,1,9.006935917622125e-08
1.295,0.7873015962290536,77.50000600036053,0,60,1.0,1,1.4118495361050436e-07
1.3,0.5959516244629897,77.50000970943701,0,60,1.0,1,2.2845734138975198e-07
1.305,0.376910120078773,77.5000163868594,0,60,1.0,1,3.8557316235496463e-07
1.31,0.15739335672107918,77.50002902423199,0,60,1.0,1,6.829231056947131e-07
1.315,-0.033361226269301235,77.50005389476512,0,60,1.0,1,1.268112120388811e-06
1.32,-0.1680180840843834,77.50010404947875,0,60,1.0,1,2.4482230294191086e-06
1.325,-0.23069703190837854,77.50020622040319,0,60,1.0,1,4.852244780843595e-06
1.33,-0.22587267821131068,77.50041404783398,0,60,1.0,1,9.742301976115521e-06
1.335,-0.17718181630665902,77.50083263801669,0,60,1.0,1,1.959148274562829e-05
1.34,-0.11494332516451301,77.50166268015035,0,60,1.0,1,3.912188589050161e-05
1.345,-0.061810214049552864,77.5032770278292,0,60,1.0,1,7.710653715762687e-05
1.35,-0.026546104631500547,77.50634895429774,0,60,1.0,1,0.0001493871599467077
1.355,-0.00719600351942686,77.5120590120072,0,60,1.0,1,0.0002837414589929294
1.36,0.0022072757983807078,77.52241562190353,0,60,1.0,1,0.0005274263977302032
1.365,0.006917199873730717,77.54073109806174,0,60,1.0,1,0.0009583787779233182
1.37,0.01004859748264829,77.57229617891642,0,60,1.0,1,0.0017010865627392323
1.375,0.013037082251128167,77.62528706971409,0,60,1.0,1,0.0029479310520962505
1.38,0.01645163937690478,77.7119131132812,0,60,1.0,1,0.004986190900734086
1.385,0.020526639934696615,77.84976424958334,0,60,1.0,1,0.008229747049019874
1.39,0.02539629541761738,78.06324165455797,0,60,1.0,1,0.013252744813128709
1.395,0.031171612185577933,78.38485440731901,0,60,1.0,1,0.020820103701623793
1.4,0.03795853426638131,78.85605110071748,0,60,1.0,1,0.031907084722764226
1.405,0.0458588961882057,79.52715125776614,0,60,1.0,1,0.047697676653320836
1.41,0.054966995891435555,80.45588226229052,0,60,1.0,1,0.06955017087742389
1.415,0.06536491004445595,81.70405544530206,0,60,1.0,1,0.09891895165416613
1.42,0.07711726085088699,83.33206946519013,0,60,1.0,1,0.1372251638868266
1.425,0.09026570629555215,85.39123254573106,0,60,1.0,1,0.1856760598995543
1.43,0.10482339848670268,87.9143369512103,0,60,1.0,1,0.24504322238141887
1.435,0.12076968927580028,90.90544393360824,0,60,1.0,1,0.3154222102025468
1.44,0.13804539501007884,94.33034336266256,0,60,1.0,1,0.396008079121472
1.445,0.15654895051787066,98.10950421064753,0,60,1.0,1,0.4849295108387654
1.45,0.17613378141900526,102.11539119616134,0,60,1.0,1,0.5791856752037963
1.455,0.19660720058055794,106.17568759500095,0,60,1.0,1,0.6747220610588459
1.46,0.21773108748496234,110.08321153763839,0,60,1.0,1,0.7666638008856091
1.465,0.23922453870058807,113.61222628224048,0,60,1.0,1,0.8496994419350702
1.47,0.2607685857914563,116.53961398056285,0,60,1.0,1,0.9185791524838317
1.475,0.2820129681603682,118.66827111065578,0,60,1.0,1,0.9686652026036654
1.48,0.30258482867153996,119.84936740314373,0,60,1.0,1,0.9964557036033819
1.485,0.3220990771751686,120.0,0,60,1.0,1,1.0
1.49,0.3401700499968971,119.11335164043977,0,60,1.0,1,0.9791376856574064
1.495,0.3564239911198326,117.2596422087817,0,60,1.0,1,0.9355209931478047
1.5,0.3705118017738417,114.57771066593102,0,60,1.0,1,0.8724167215513182
1.505,0.3821214567925213,111.25864733544083,0,60,1.0,1,0.7943211137750783
1.51,0.39098947374066967,107.52417358062645,0,60,1.0,1,0.7064511430735636
1.515,0.3969108472035567,103.60317581973628,0,60,1.0,1,0.614192372229089
1.52,0.3997469255491936,99.70982687224779,0,60,1.0,1,0.5225841616999479
1.525,0.3994308076379137,96.02611916232044,0,60,1.0,1,0.43590868617224565
1.53,0.3959699661768434,92.69058107724302,0,60,1.0,1,0.3574254371116006
1.535,0.38944595408114946,89.79371843965717,0,60,1.0,1,0.28926396328605103
1.54,0.38001120995358023,87.37958938048318,0,60,1.0,1,0.2324609265996043
1.545,0.3678831374098315,85.45209135214775,0,60,1.0,1,0.1871080318152411
1.55,0.35333577933796634,83.98411918621723,0,60,1.0,1,0.15256751026393478
1.555,0.33668953221163944,82.92773974008752,0,60,1.0,1,0.12771152329617688
1.56,0.3182994390982644,82.22383282330381,0,60,1.0,1,0.11114900760714845
1.565,0.29854265738230645,81.81013488536829,0,60,1.0,1,0.10141493847925377
1.57,0.2778057157821067,81.62715266498432,0,60,1.0,1,0.09710947447021935
1.575,0.2564721553719815,81.62187846806819,0,60,1.0,1,0.09698537571925152
1.58,0.23491109433464996,81.74957199839405,0,60,1.0,1,0.09998992937397755
1.585,0.21346717185309805,81.9740569196691,0,60,1.0,1,0.10527192752162577
1.59,0.19245222055656455,82.2670305887381,0,60,1.0,1,0.11216542561736693
1.595,0.17213889801761392,82.6068399772209,0,60,1.0,1,0.12016094064049178
1.6,0.15275638501270183,82.97707830332679,0,60,1.0,1,0.12887243066651274
1.605,0.13448814019607322,83.36524231629802,0,60,1.0,1,0.13800570155995348
1.61,0.11747159495449566,83.76158527846451,0,60,1.0,1,0.14733141831681196
1.615,0.10179958433370105,84.15821910240557,0,60,1.0,1,0.156663978880131
1.62,0.08752324394101413,84.54846447631488,0,60,1.0,1,0.16584622297211474
1.625,0.07465606047174059,84.92641729835339,0,60,1.0,1,0.17473923054949142
1.63,0.0631787448609295,85.2866873918496,0,60,1.0,1,0.18321617392587286
1.635,0.05304460019959574,85.6242648120442,0,60,1.0,1,0.19115917204809887
1.64,0.044185078305849994,85.93447459191242,0,60,1.0,1,0.19845822569205693
1.645,0.03651525513023255,86.21298860076058,0,60,1.0,1,0.20501149648848427
1.65,0.0299390014708757,86.45587095455626,0,60,1.0,1,0.21072637540132377
1.655,0.024353677220580638,86.65963999461131,0,60,1.0,1,0.2155209410496779
1.66,0.01965423034339045,86.82133492105665,0,60,1.0,1,0.21932552755427404
1.665,0.015736632374757337,86.93857885017128,0,60,1.0,1,0.2220842082393243
1.67,0.012500627640593535,87.00963266008729,0,60,1.0,1,0.2237560625902892
1.675,0.009851811652115898,87.03343582049601,0,60,1.0,1,0.2243161369528473
1.68,0.007703084175428559,87.00963173891398,0,60,1.0,1,0.2237560409156231
1.685,0.005975544002062424,86.938576193165,0,60,1.0,1,0.22208414572152954
1.69,0.004598905818663047,86.82132827999462,0,60,1.0,1,0.219325371293991
1.695,0.0035115256454839104,86.65962406044066,0,60,1.0,1,0.2155205661280156
1.7,0.002660121266303676,86.45583375264079,0,60,1.0,1,0.21072550006213614
1.705,0.0019992692560877024,86.21290391749133,0,60,1.0,1,0.2050095039409725
1.71,0.0014907520044639367,85.93428659481444,0,60,1.0,1,0.19845380223092796
1.715,0.0011028178277539807,85.62385776540609,0,60,1.0,1,0.1911495944801432
1.72,0.0008094059938923333,85.28582782555713,0,60,1.0,1,0.18319594883663848
1.725,0.0005893771793717645,84.92464695644118,0,60,1.0,1,0.17469757544567482
1.73,0.0004257792353490551,84.54490834692771,0,60,1.0,1,0.1657625493394756
1.735,0.0003051686392901525,84.1512521860989,0,60,1.0,1,0.1565000514376212
1.74,0.00021699992642659966,83.74827318768754,0,60,1.0,1,0.14701819265147165
1.745,0.00015308884054097838,83.34043415451329,0,60,1.0,1,0.13742198010619505
1.75,0.00010714989329311098,82.93198775273756,0,60,1.0,1,0.1278114765350013
1.755,7.440535854020571e-05,82.52690826257488,0,60,1.0,1,0.11828019441352654
1.76,5.1260276743925106e-05,82.12883462523583,0,60,1.0,1,0.10891375588790177
1.765,3.503659887882241e-05,81.74102563739208,0,60,1.0,1,0.09978883852687258
1.77,2.375894748103639e-05,81.36632767600855,0,60,1.0,1,0.09097241590608358
1.775,1.5984413869232557e-05,81.00715488812935,0,60,1.0,1,0.08252129148539646
1.78,1.0669166579899869e-05,80.66548136982472,0,60,1.0,1,0.07448191458411102
1.785,7.06526633560511e-06,80.34284450049499,0,60,1.0,1,0.06689045883517625
1.79,4.641847214699205e-06,80.04035830388436,0,60,1.0,1,0.059773136561984956
1.795,3.025641074479182e-06,79.75873548233507,0,60,1.0,1,0.0531467172314134
1.8,1.9566278676921314e-06,79.4983166189272,0,60,1.0,1,0.04701921456299307
1.805,1.2553456560008793e-06,79.25910496239372,0,60,1.0,1,0.04139070499749932
1.81,7.990660428214668e-07,79.04080519796145,0,60,1.0,1,0.03625423995203405
1.815,5.046221251618276e-07,78.84286465667756,0,60,1.0,1,0.03159681545123677
1.82,3.1616527078858815e-07,78.66451551736972,0,60,1.0,1,0.02740036511458169
1.825,1.9652884407760343e-07,78.50481669878073,0,60,1.0,1,0.023642745853664215
1.83,1.2120002189836396e-07,78.36269431353409,0,60,1.0,1,0.020298689730213936
1.835,7.415549848886236e-08,78.23697974928406,0,60,1.0,1,0.01734069998315436
1.84,4.501406988770349e-08,78.12644464506172,0,60,1.0,1,0.014739874001452335
1.845,0.0,78.02983223281902,0,60,1.0,1,0.012466640772212191
1.85,0.0,77.94588470720849,0,60,1.0,1,0.010491404875493934
1.855,0.0,77.87336646401664,0,60,1.0,1,0.008785093270979788
1.86,0.0,77.81108320437647,0,60,1.0,1,0.00731960480885819
1.865,0.0,77.75789703460497,0,60,1.0,1,0.006068165520116843
1.87,0.0,77.7127377985272,0,60,1.0,1,0.0050055952594635425
1.875,0.0,77.67461096019198,0,60,1.0,1,0.0041084931809878605
1.88,0.0,77.64260241090227,0,60,1.0,1,0.003355350844759307
1.885,0.0,77.61588060740796,0,60,1.0,1,0.0027266025272461
1.89,0.0,77.5936964605813,0,60,1.0,1,0.0022046226019129147
1.895,0.0,77.57538138902093,0,60,1.0,1,0.0017736797416690105
1.9,0.0,77.56034393314094,0,60,1.0,1,0.001419857250375103
1.905,0.0,77.5480652957481,0,60,1.0,1,0.0011309481352494754
1.91,0.0,77.53809413809743,0,60,1.0,1,0.0008963326611161151
1.915,0.0,77.53004091886824,0,60,1.0,1,0.0007068451498408944
1.92,0.0,77.52357201997987,0,60,1.0,1,0.0005546357642321495
1.925,0.0,77.51840385980424,0,60,1.0,1,0.0004330319953938295
1.93,0.0,77.51429715282914,0,60,1.0,1,0.0003364035959798591
1.935,0.0,77.51105143644553,0,60,1.0,1,0.00026003379871828174
1.94,0.0,77.5084999511344,0,60,1.0,1,0.0001999988502210967
1.945,0.0,77.50650493041393,0,60,1.0,1,0.0001530571862100019
1.95,0.0,77.50495333166883,0,60,1.0,1,0.00011654898044305221
1.955,0.0,77.50375301836885,0,60,1.0,1,8.830631456128364e-05
1.96,0.0,77.50282938794548,0,60,1.0,1,6.65738340113448e-05
1.965,0.0,77.5021224273595,0,60,1.0,1,4.9939467282242466e-05
1.97,0.0,77.50158416968905,0,60,1.0,1,3.7274580918900775e-05
1.975,0.0,77.50117651939523,0,60,1.0,1,2.7682809299529468e-05
1.98,0.0,77.5008694107589,0,60,1.0,1,2.0456723738708902e-05
1.985,0.0,77.50063926283588,0,60,1.0,1,1.5041478491184535e-05
1.99,0.0,77.50046769468173,0,60,1.0,1,1.1004580746617542e-05
1.995,0.0,77.50034046614508,0,60,1.0,1,8.010968119432458e-06
2.0,0.0,77.50024661186245,0,60,1.0,1,5.80263205767337e-06
2.005,0.0,77.50017773891317,0,60,1.0,1,4.182092074496027e-06
2.01,0.0,77.5001274616702,0,60,1.0,1,2.9990981224326627e-06
2.015,0.0,77.50009095052647,0,60,1.0,1,2.1400123875323246e-06
2.02,0.0,77.500064574248,0,60,1.0,1,1.5193940705959155e-06
2.025,0.0,77.50004561860754,0,60,1.0,1,1.0733790010336259e-06
2.03,0.0,77.50003206662257,0,60,1.0,1,7.545087662626483e-07
2.035,0.0,77.5000224281237,0,60,1.0,1,5.277205576369263e-07
2.04,0.0,77.50001560850087,0,60,1.0,1,3.6725884409433465e-07
2.045,0.0,77.50001080831444,0,60,1.0,1,2.5431328100132624e-07
2.05,0.001684486749771458,77.50000744703297,0,60,1.0,1,1.7522430519367096e-07
2.055,0.003097557930867117,77.50000510548624,0,60,1.0,1,1.2012908795815533e-07
2.06,0.005475106668887023,77.5000034827273,0,60,1.0,1,8.194652456736282e-08
2.065,0.00930222931468658,77.50000236390684,0,60,1.0,1,5.5621337517496775e-08
2.07,0.01519157517868857,77.50000159650313,0,60,1.0,1,3.7564779417794744e-08
2.075,0.023847336626128316,77.50000107284681,0,60,1.0,1,2.5243454448333496e-08
2.08,0.0359830743700859,77.50000071735509,0,60,1.0,1,1.6878943356727284e-08
2.085,0.05218887796857759,77.50000047726456,0,60,1.0,1,1.1229754443989162e-08
2.09,0.0727577001223134,77.5000003159459,0,60,1.0,1,7.4340211058905185e-09
2.095,0.0974992498694751,77.50000020811088,0,60,1.0,1,4.89672649617954e-09
2.1,0.12558706050443358,77.50000013639716,0,60,1.0,1,3.209344988456852e-09
2.105,0.15549263588878245,77.50000008894969,0,60,1.0,1,2.092933888942592e-09
2.11,0.1850529723539114,77.50000005771811,0,60,1.0,1,1.358073204220786e-09
2.115,0.21169159439317053,77.50000003726561,0,60,1.0,1,8.768378232643419e-10
2.12,0.23277292922115492,77.50000002394049,0,60,1.0,1,5.633055747346267e-10
2.125,0.24602692519491282,77.50000001530334,0,60,1.0,1,3.6007864925041384e-10
2.13,0.24995056064839283,77.50000000973347,0,60,1.0,1,2.2902280333629974e-10
2.135,0.24408826520424054,77.50000000615996,0,60,1.0,1,1.4494035253044465e-10
2.14,0.22911894216865275,77.50000000387898,0,60,1.0,1,9.127013393427821e-11
2.145,0.20672661788705934,77.50000000243044,0,60,1.0,1,5.718681998533772e-11
2.15,0.17928878030241233,77.50000000151523,0,60,1.0,1,3.565252668255091e-11
2.155,0.14946211903866036,77.50000000093995,0,60,1.0,1,2.2116436786531908e-11
2.16,0.1197651512573837,77.50000000058017,0,60,1.0,1,1.3651114225949106e-11
2.165,0.09224675744988023,77.50000000035632,0,60,1.0,1,8.38406990891706e-12
2.17,0.06829565320281596,77.50000000021774,0,60,1.0,1,5.123263904619414e-12
2.175,0.04860224607515734,77.5000000001324,0,60,1.0,1,3.1153537266244016e-12
2.18,0.03324612389699793,77.5000000000801,0,60,1.0,1,1.884860894813969e-12
2.185,0.021859876340472782,77.50000000004822,0,60,1.0,1,1.1345277658513034e-12
2.19,0.01381595518554205,77.50000000002889,0,60,1.0,1,6.797804149648394e-13
2.195,0.008394095110402422,77.50000000001721,0,60,1.0,1,4.049257661202265e-13
2.2,0.0049052535271608,77.5000000000102,0,60,1.0,1,2.4007985142388327e-13
2.205,0.0027671663551903634,77.50000000000603,0,60,1.0,1,1.4177417409989764e-13
2.21,0.0015425553464444616,77.50000000000354,0,60,1.0,1,8.325888997847762e-14
2.215,0.0009638206637011801,77.50000000000206,0,60,1.0,1,4.848409255774801e-14
2.22,0.0009804935156568228,77.5000000000012,0,60,1.0,1,2.808733637828161e-14
2.225,0.0018793744894085216,77.5000000000007,0,60,1.0,1,1.6384279553997603e-14
2.23,0.004535525206900863,77.5000000000004,0,60,1.0,1,9.362445459427202e-15
2.235,0.010832767979632273,77.50000000000023,0,60,1.0,1,5.349968833958401e-15
2.24,0.024208003392322392,77.50000000000013,0,60,1.0,1,3.0093574691016007e-15
2.245,0.0500971897335304,77.50000000000007,0,60,1.0,1,1.6718652606120004e-15
2.25,0.09582894921774403,77.50000000000004,0,60,1.0,1,1.0031191563672002e-15
2.255,0.16937896721820658,77.50000000000003,0,60,1.0,1,6.687461042448002e-16
2.26,0.27661303008991756,77.50000000000001,0,60,1.0,1,3.343730521224001e-16
2.265,0.4173782800009149,77.5,0,60,1.0,1,0.0
2.27,0.5818720934538056,77.5,0,60,1.0,1,0.0
2.275,0.7494718801585675,77.5,0,60,1.0,1,0.0
2.28,0.891813020752378,77.5,0,60,1.0,1,0.0
2.285,0.9800361632936612,77.5,0,60,1.0,1,0.0
2.29,0.993574479225126,77.50000249065474,1,60,1.0,1,5.860364086295115e-08
2.295,0.9263438449375362,77.50000381481783,0,60,1.0,1,8.976041954156244e-08
2.3,0.7873015962290536,77.50000596523532,0,60,1.0,1,1.4035847805323155e-07
2.305,0.5959516244629897,77.50000962503476,0,60,1.0,1,2.2647140620874244e-07
2.31,0.376910120078773,77.50001618917643,0,60,1.0,1,3.809217984700594e-07
2.315,0.15739335672107918,77.5000285614158,0,60,1.0,1,6.720333130140395e-07
2.32,-0.033361226269301235,77.50005280883279,0,60,1.0,1,1.2425607715559796e-06
2.325,-0.1680180840843834,77.50010151190543,0,60,1.0,1,2.388515421818524e-06
2.33,-0.23069703190837854,77.50020036214238,0,60,1.0,1,4.714403350108649e-06
2.335,-0.22587267821131068,77.50040077561245,0,60,1.0,1,9.430014410541202e-06
2.34,-0.17718181630665902,77.50080326727193,0,60,1.0,1,1.8900406398442475e-05
2.345,-0.11494332516451301,77.50159937912407,0,60,1.0,1,3.763244997819182e-05
2.35,-0.061810214049552864,77.50314438198903,0,60,1.0,1,7.398545856544308e-05
2.355,-0.026546104631500547,77.5060789517361,0,60,1.0,1,0.00014303415849647481
2.36,-0.00719600351942686,77.5115253796782,0,60,1.0,1,0.00027118540419304043
2.365,0.0022072757983807078,77.5213917627598,0,60,1.0,1,0.0005033355943483537
2.37,0.006917199873730717,77.53882411894206,0,60,1.0,1,0.0009135086809896406
2.375,0.01004859748264829,77.56884815932884,0,60,1.0,1,0.0016199566900902884
2.38,0.013037082251128167,77.6192346558676,0,60,1.0,1,0.002805521314531782
2.385,0.01645163937690478,77.70159894500465,0,60,1.0,1,0.004743504588344649
2.39,0.020526639934696615,77.83270008287926,0,60,1.0,1,0.007828237244217797
2.395,0.02539629541761738,78.03583465142736,0,60,1.0,1,0.012607874151232115
2.4,0.031171612185577933,78.34212553437393,0,60,1.0,1,0.019814718455857288
2.405,0.03795853426638131,78.79139701937089,0,60,1.0,1,0.030385812220491543
2.41,0.0458588961882057,79.43222533468237,0,60,1.0,2,0.045464125521938153
2.415,0.054966995891435555,80.32069048739088,0,60,1.0,2,0.06636918793860887
2.42,0.06536491004445595,81.5173707975343,0,60,1.0,2,0.09452637170668936
2.425,0.07711726085088699,83.08225427174436,0,60,1.0,2,0.13134715933516145
2.43,0.09026570629555215,85.06751487992965,0,60,1.0,2,0.17805917364540344
2.435,0.10482339848670268,87.50851138218808,0,60,1.0,2,0.23549438546324883
2.44,0.12076968927580028,90.41386466435996,0,60,1.0,2,0.3038556391614109
2.445,0.13804539501007884,93.75596504105044,0,60,1.0,2,0.38249329508353985
2.45,0.15654895051787066,97.4636280918179,0,60,1.0,2,0.4697324256898328
2.455,0.17613378141900526,101.41872257270964,0,60,1.0,2,0.5627934722990504
2.46,0.19660720058055794,105.45833242352343,0,60,1.0,2,0.6578431158476101
2.465,0.21773108748496234,109.38335163215552,0,60,1.0,2,0.7501965089918947
2.47,0.23922453870058807,112.9734084393601,0,60,1.0,2,0.8346684338672965
2.475,0.2607685857914563,116.00683982528938,0,60,1.0,2,0.9060432900068088
2.48,0.2820129681603682,118.28333120453613,0,60,1.0,2,0.9596077930479089
2.485,0.30258482867153996,119.646064803065,0,60,1.0,2,0.9916721130132942
2.49,0.3220990771751686,120.0,0,60,1.0,2,1.0
2.495,0.3401700499968971,119.32334270778719,0,60,1.0,2,0.9840786519479339
2.5,0.3564239911198326,117.6702984466819,0,60,1.0,2,0.9451834928631034
2.505,0.3705118017738417,115.1646448291192,0,60,1.0,2,0.8862269371557459
2.51,0.3821214567925213,111.9851997850634,0,60,1.0,2,0.8114164655309035
2.515,0.39098947374066967,108.34557221481842,0,60,1.0,2,0.7257781697604334
2.52,0.3969108472035567,104.47139174943496,0,60,1.0,2,0.634620982339646
2.525,0.3997469255491936,100.57838099842344,0,60,1.0,2,0.5430207293746692
2.53,0.3994308076379137,96.85417087272945,0,60,1.0,2,0.45539225582892834
2.535,0.3959699661768434,93.44582268957237,0,60,1.0,2,0.37519582798993806
2.54,0.38944595408114946,90.45385471397468,0,60,1.0,2,0.30479658150528655
2.545,0.38001120995358023,87.93243962502166,0,60,1.0,2,0.24546916764756843
2.55,0.3678831374098315,85.89455992933536,0,60,1.0,2,0.19751905716083196
2.555,0.35333577933796634,84.32040601189054,0,60,1.0,2,0.160480141456248
2.56,0.33668953221163944,83.16719725117376,0,60,1.0,2,0.13334581767467674
2.565,0.3182994390982644,82.37883285219493,0,60,1.0,2,0.114796067110469
2.57,0.29854265738230645,81.89421459224894,0,60,1.0,2,0.10339328452350455
2.575,0.2778057157821067,81.65359406235096,0,60,1.0,2,0.09773162499649321
2.58,0.2564721553719815,81.60276811068044,0,60,1.0,2,0.09653572025130455
2.585,0.23491109433464996,81.6953041114732,0,60,1.0,2,0.0987130379170166
2.59,0.21346717185309805,81.89319219750705,0,60,1.0,2,0.10336922817663642
2.595,0.19245222055656455,82.16640283127366,0,60,1.0,2,0.10979771367702724
2.6,0.17213889801761392,82.49180664386697,0,60,1.0,2,0.11745427397334036
2.605,0.15275638501270183,82.85182970057085,0,60,1.0,2,0.12592540471931402
2.61,0.13448814019607322,83.23310877819486,0,60,1.0,2,0.13489667713399672
2.615,0.11747159495449566,83.62530580186197,0,60,1.0,2,0.14412484239675222
2.62,0.10179958433370105,84.02015461343919,0,60,1.0,2,0.15341540266915737
2.625,0.08752324394101413,84.41075278688982,0,60,1.0,2,0.1626059479268192
2.63,0.07465606047174059,84.79107511020709,0,60,1.0,2,0.17155470847546092
2.635,0.0631787448609295,85.15566858139451,0,60,1.0,2,0.18013337838575313
2.64,0.05304460019959574,85.49948511358731,0,60,1.0,2,0.18822317914323086
2.645,0.044185078305849994,85.81781198508382,0,60,1.0,2,0.19571322317844286
2.65,0.03651525513023255,86.1062671685372,0,60,1.0,2,0.2025004039655812
2.655,0.0299390014708757,86.36083432317702,0,60,1.0,2,0.20849021936887097
2.66,0.024353677220580638,86.57791901100559,0,60,1.0,2,0.21359809437660213
2.665,0.01965423034339045,86.75441307651025,0,60,1.0,2,0.21775089591788815
2.67,0.015736632374757337,86.88775811124916,0,60,1.0,2,0.22088842614703896
2.675,0.012500627640593535,86.97600175641713,0,60,1.0,2,0.2229647472098149
2.68,0.009851811652115898,87.017842589161,0,60,1.0,2,0.2239492373920237
2.685,0.007703084175428559,87.012660771883,0,60,1.0,2,0.22382731227960015
2.69,0.005975544002062424,86.96053273007563,0,60,1.0,2,0.22260077011942653
2.695,0.004598905818663047,86.86222900437889,0,60,1.0,2,0.2202877412795033
2.7,0.0035115256454839104,86.719195178689,0,60,1.0,2,0.21692223949856484
2.705,0.002660121266303676,86.53351645798008,0,60,1.0,2,0.21255332842306082
2.71,0.0019992692560877024,86.30786706938648,0,60,1.0,2,0.20724393104438765
2.715,0.0014907520044639367,86.04544618487417,0,60,1.0,2,0.2010693219970392
2.72,0.0011028178277539807,85.74990250322291,0,60,1.0,2,0.19411535301700972
2.725,0.0008094059938923333,85.42524997119911,0,60,1.0,2,0.18647646991056724
2.73,0.0005893771793717645,85.0757773587906,0,60,1.0,2,0.17825358491272006
2.735,0.0004257792353490551,84.70595452519278,0,60,1.0,2,0.1695518711810066
2.74,0.0003051686392901525,84.32033821979824,0,60,1.0,2,0.160478546348194
2.745,0.00021699992642659966,83.92348015988665,0,60,1.0,2,0.1511407096443918
2.75,0.00015308884054097838,83.51983992315786,0,60,1.0,2,0.1416432923095967
2.755,0.00010714989329311098,83.11370490220835,0,60,1.0,2,0.13208717416960833
2.76,7.440535854020571e-05,82.70911920653026,0,60,1.0,2,0.12256751074188849
2.765,5.1260276743925106e-05,82.30982298507394,0,60,1.0,2,0.11317230553115143
2.77,3.503659887882241e-05,81.91920319962112,0,60,1.0,2,0.10398125175579112
2.775,2.375894748103639e-05,81.5402564270607,0,60,1.0,2,0.09506485710731052
2.78,1.5984413869232557e-05,81.1755638270808,0,60,1.0,2,0.0864838547548422
2.785,1.0669166579899869e-05,80.82727799879292,0,60,1.0,2,0.07828889408924523
2.79,7.06526633560511e-06,80.49712108066727,0,60,1.0,2,0.07052049601570047
2.795,4.641847214699205e-06,80.18639313486506,0,60,1.0,2,0.06320925023211899
2.8,3.025641074479182e-06,79.89598960793784,0,60,1.0,2,0.05637622606912554
2.805,1.9566278676921314e-06,79.6264264795071,0,60,1.0,2,0.050033564223696536
2.81,1.2553456560008793e-06,79.37787159987418,0,60,1.0,2,0.04418521411468666
2.815,7.990660428214668e-07,79.15018067413585,0,60,1.0,2,0.03882778056790244
2.82,5.046221251618276e-07,78.94293636900822,0,60,1.0,2,0.03395144397666406
2.825,3.1616527078858815e-07,78.75548909159917,0,60,1.0,2,0.029540919802333494
2.83,1.9652884407760343e-07,78.58699810755667,0,60,1.0,2,0.025576426060156872
2.835,1.2120002189836396e-07,78.43647181909245,0,60,1.0,2,0.022034631037469325
2.84,7.415549848886236e-08,78.30280620070539,0,60,1.0,2,0.018889557663656246
2.845,4.501406988770349e-08,78.18482058158935,0,60,1.0,2,0.01611342544916116
2.85,0.0,78.08129015900583,0,60,1.0,2,0.01367741550601957
2.855,0.0,77.99097481773615,0,60,1.0,2,0.011552348652615178
2.86,0.0,77.91264400989799,0,60,1.0,2,0.00970927082112914
2.865,0.0,77.84509761126496,0,60,1.0,2,0.008119943794469679
2.87,0.0,77.7871828107303,0,60,1.0,2,0.00675724260541883
2.875,0.0,77.73780720624384,0,60,1.0,2,0.005595463676325728
2.88,0.0,77.69594837242065,0,60,1.0,2,0.004610549939309294
2.885,0.0,77.66066023234221,0,60,1.0,2,0.0037802407609931646
2.89,0.0,77.63107661018051,0,60,1.0,2,0.00308415553365916
2.895,0.0,77.60641236432045,0,60,1.0,2,0.0025038203369517225
2.9,0.0,77.58596250536276,0,60,1.0,2,0.002022647185006075
2.905,0.0,77.56909969282334,0,60,1.0,2,0.0016258751252551332
2.91,0.0,77.55527048169948,0,60,1.0,2,0.0013004819223407166
2.915,0.0,77.54399065849753,0,60,1.0,2,0.0010350743175890516
2.92,0.0,77.53483996875943,0,60,1.0,2,0.0008197639708100724
2.925,0.0,77.52745649724005,0,60,1.0,2,0.0006460352291777086
2.93,0.0,77.52153091995265,0,60,1.0,2,0.000506609881238894
2.935,0.0,77.51680080618708,0,60,1.0,2,0.00039531308675477437
2.94,0.0,77.51304510977057,0,60,1.0,2,0.0003069437593076012
2.945,0.0,77.51007895333593,0,60,1.0,2,0.00023715184319846283
2.95,0.0,77.50774877787383,0,60,1.0,2,0.00018232418526655932
2.955,0.0,77.50592790273667,0,60,1.0,2,0.00013948006439230032
2.96,0.0,77.50451251862505,0,60,1.0,2,0.00010617690882467662
2.965,0.0,77.50341811780184,0,60,1.0,2,8.042630121983219e-05
2.97,0.0,77.50257635156204,0,60,1.0,2,6.062003675390984e-05
2.975,0.0,77.50193229444417,0,60,1.0,2,4.5465751627622974e-05
2.98,0.0,77.50144208734422,0,60,1.0,2,3.3931466922735235e-05
2.985,0.0,77.5010709270944,0,60,1.0,2,2.519828457419702e-05
2.99,0.0,77.50079136771336,0,60,1.0,2,1.862041678497703e-05
2.995,0.0,77.50058189795325,0,60,1.0,2,1.3691716547140567e-05
3.0,0.0,77.50042576054396,0,60,1.0,2,1.0017895152045373e-05
3.005,0.0,77.5003099802863,0,60,1.0,2,7.293653795373115e-06
3.01,0.0,77.50022457055825,0,60,1.0,2,5.284013135183962e-06
3.015,0.0,77.5001618906037,0,60,1.0,2,3.809190675450308e-06
3.02,0.0,77.5001161289628,0,60,1.0,2,2.7324461835659724e-06
3.025,0.0,77.50008289141098,0,60,1.0,2,1.950386140780371e-06
3.03,0.0,77.5000588746852,0,60,1.0,2,1.3852867104614074e-06
3.035,0.0,77.50004161000271,0,60,1.0,2,9.7905888731689e-07
3.04,0.0,77.50002926287357,0,60,1.0,2,6.885382015966838e-07
3.045,0.0,77.50002047794057,0,60,1.0,2,4.818338956791943e-07
3.05,0.0,77.50001425954493,0,60,1.0,2,3.3551870414532246e-07
3.055,0.0,77.50000988041381,0,60,1.0,2,2.3248032501963763e-07
3.06,0.001684486749771458,77.5000068123144,0,60,1.0,2,1.6028975049748088e-07
3.065,0.003097557930867117,77.50000467373745,0,60,1.0,2,1.0997029295033237e-07
3.07,0.005475106668887023,77.50000319068567,0,60,1.0,2,7.507495705367012e-08
3.075,0.00930222931468658,77.50000216747358,0,60,1.0,2,5.099937839879524e-08
3.08,0.01519157517868857,77.50000146512164,0,60,1.0,2,3.447345039496534e-08
3.085,0.023847336626128316,77.50000098547052,0,60,1.0,2,2.318754167497579e-08
3.09,0.0359830743700859,77.50000065957421,0,60,1.0,2,1.5519393226735273e-08
3.095,0.05218887796857759,77.50000043927226,0,60,1.0,2,1.0335817785958438e-08
3.1,0.0727577001223134,77.50000029110788,0,60,1.0,2,6.849597197929945e-09
3.105,0.0974992498694751,77.50000019196597,0,60,1.0,2,4.516846274782438e-09
3.11,0.12558706050443358,77.50000012596347,0,60,1.0,2,2.963846287350273e-09
3.115,0.15549263588878245,77.50000008224605,0,60,1.0,2,1.9352010921840486e-09
3.12,0.1850529723539114,77.5000000534362,0,60,1.0,2,1.2573222567666295e-09
3.125,0.21169159439317053,77.50000003454666,0,60,1.0,2,8.128625615748152e-10
3.13,0.23277292922115492,77.50000002222423,0,60,1.0,2,5.229230068567524e-10
3.135,0.24602692519491282,77.50000001422649,0,60,1.0,2,3.3474086247973474e-10
3.14,0.24995056064839283,77.50000000906188,0,60,1.0,2,2.1322066726604723e-10
3.145,0.24408826520424054,77.50000000574367,0,60,1.0,2,1.3514522834157106e-10
3.15,0.22911894216865275,77.50000000362252,0,60,1.0,2,8.523570346262525e-11
3.155,0.20672661788705934,77.50000000227342,0,60,1.0,2,5.349233213243732e-11
3.16,0.17928878030241233,77.50000000141972,0,60,1.0,2,3.3405205399236256e-11
3.165,0.14946211903866036,77.50000000088221,0,60,1.0,2,2.0757879075758598e-11
3.17,0.1197651512573837,77.5000000005455,0,60,1.0,2,1.283524397877045e-11
3.175,0.09224675744988023,77.50000000033563,0,60,1.0,2,7.897222745026846e-12
3.18,0.06829565320281596,77.50000000020549,0,60,1.0,2,4.8350343336899055e-12
3.185,0.04860224607515734,77.50000000012518,0,60,1.0,2,2.9454922161462225e-12
3.19,0.03324612389699793,77.50000000007589,0,60,1.0,2,1.7855520983336164e-12
3.195,0.021859876340472782,77.50000000004577,0,60,1.0,2,1.0770156008862506e-12
3.2,0.01381595518554205,77.50000000002747,0,60,1.0,2,6.463431097525994e-13
3.205,0.008394095110402422,77.50000000001641,0,60,1.0,2,3.862008752013721e-13
3.21,0.0049052535271608,77.50000000000975,0,60,1.0,2,2.2937991375596645e-13
3.215,0.0027671663551903634,77.50000000000577,0,60,1.0,2,1.3575545916169443e-13
3.22,0.0015425553464444616,77.5000000000034,0,60,1.0,2,7.991515945725361e-14
3.225,0.0009638206637011801,77.50000000000199,0,60,1.0,2,4.681222729713601e-14
3.23,0.0009804935156568228,77.50000000000115,0,60,1.0,2,2.7084217221914406e-14
3.235,0.0018793744894085216,77.50000000000067,0,60,1.0,2,1.5715533449752805e-14
3.24,0.004535525206900863,77.50000000000038,0,60,1.0,2,9.028072407304802e-15
3.245,0.010832767979632273,77.50000000000023,0,60,1.0,2,5.349968833958401e-15
3.25,0.024208003392322392,77.50000000000013,0,60,1.0,2,3.0093574691016007e-15
3.255,0.0500971897335304,77.50000000000007,0,60,1.0,2,1.6718652606120004e-15
3.26,0.09582894921774403,77.50000000000004,0,60,1.0,2,1.0031191563672002e-15
3.265,0.16937896721820658,77.50000000000003,0,60,1.0,2,6.687461042448002e-16
3.27,0.27661303008991756,77.50000000000001,0,60,1.0,2,3.343730521224001e-16
3.275,0.4173782800009149,77.5,0,60,1.0,2,0.0
3.28,0.5818720934538056,77.5,0,60,1.0,2,0.0
3.285,0.7494718801585675,77.5,0,60,1.0,2,0.0
3.29,0.891813020752378,77.5,0,60,1.0,2,0.0
3.295,0.9800361632936612,77.5,0,60,1.0,2,0.0
3.3,0.993574479225126,77.50000249055736,1,60,1.0,2,5.860134973879801e-08
3.305,0.9263438449375362,77.50000390266074,0,60,1.0,2,9.182731145408659e-08
3.31,0.7873015962290536,77.5000062610317,0,60,1.0,2,1.4731839294600993e-07
3.315,0.5959516244629897,77.5000104126822,0,60,1.0,2,2.4500428708051913e-07
3.32,0.376910120078773,77.50001815880528,0,60,1.0,2,4.2726600648112414e-07
3.325,0.15739335672107918,77.5000334012751,0,60,1.0,2,7.859123553878496e-07
3.33,-0.033361226269301235,77.50006460378755,0,60,1.0,2,1.5200891188188132e-06
3.335,-0.1680180840843834,77.50012992730984,0,60,1.0,2,3.057113172765051e-06
3.34,-0.23069703190837854,77.50026761566144,0,60,1.0,2,6.296839092770182e-06
3.345,-0.22587267821131068,77.50055630925912,0,60,1.0,2,1.3089629626459581e-05
3.35,-0.17718181630665902,77.50115340923121,0,60,1.0,2,2.713904073429523e-05
3.355,-0.11494332516451301,77.50236492593112,0,60,1.0,2,5.564531602631713e-05
3.36,-0.061810214049552864,77.50476787701339,0,60,1.0,2,0.00011218534149159441
3.365,-0.026546104631500547,77.50941633263068,0,60,1.0,2,0.00022156076778066884
3.37,-0.00719600351942686,77.5181738644655,0,60,1.0,2,0.00042762034036460296
3.375,0.0022072757983807078,77.5342261502554,0,60,1.0,2,0.0008053211824801565
3.38,0.006917199873730717,77.56283330869695,0,60,1.0,2,0.001478430792869457
3.385,0.01004859748264829,77.61237503104077,0,60,1.0,2,0.0026441183774298838
3.39,0.013037082251128167,77.6957132392228,0,60,1.0,2,0.00460501739347759
3.395,0.01645163937690478,77.83183666400365,0,60,1.0,2,0.007807921505968138
3.4,0.020526639934696615,78.04765202417518,0,60,1.0,2,0.012885929980592436
3.405,0.02539629541761738,78.37964807981832,0,60,1.0,2,0.02069760187807821
3.41,0.031171612185577933,78.87499658157523,0,60,1.0,2,0.03235286074294663
3.415,0.03795853426638131,79.591501931469,0,60,1.0,2,0.049211810152211696
3.42,0.0458588961882057,80.59572263286991,0,60,1.0,2,0.07284053253811548
3.425,0.054966995891435555,81.95862818810917,0,60,1.0,2,0.10490889854374526
3.43,0.06536491004445595,83.74838670535817,0,60,1.0,2,0.1470208636554864
3.435,0.07711726085088699,86.02033399330428,0,60,1.0,2,0.2004784469012771
3.44,0.09026570629555215,88.8048315443595,0,60,1.0,2,0.2659960363378706
3.445,0.10482339848670268,92.09448096566497,0,60,1.0,2,0.34339955213329343
3.45,0.12076968927580028,95.83285417186961,0,60,1.0,2,0.4313612746322262
3.455,0.13804539501007884,99.90730401880838,0,60,1.0,2,0.5272306827954912
3.46,0.15654895051787066,104.14833129667961,0,60,1.0,2,0.6270195599218733
3.465,0.17613378141900526,108.33727604108216,0,60,1.0,2,0.7255829656725215
3.47,0.19660720058055794,112.22279730887875,0,60,1.0,2,0.8170069955030295
3.475,0.21773108748496234,115.54490959056277,0,60,1.0,2,0.8951743433073592
3.48,0.23922453870058807,118.06361697299218,0,60,1.0,2,0.9544380464233454
3.485,0.2607685857914563,119.58786456364993,0,60,1.0,2,0.9903026956152925
3.49,0.2820129681603682,120.0,0,60,1.0,2,1.0
3.495,0.30258482867153996,119.27142299958258,0,60,1.0,2,0.9828570117548843
3.5,0.3220990771751686,117.46655828444447,0,60,1.0,2,0.9403896066928111
3.505,0.3401700499968971,114.73441248783143,0,60,1.0,2,0.8761038232430925
3.51,0.3564239911198326,111.28927580351457,0,60,1.0,2,0.7950417836121075
3.515,0.3705118017738417,107.38406102338513,0,60,1.0,2,0.7031543770208266
3.52,0.3821214567925213,103.28089833002707,0,60,1.0,2,0.6066093724712252
3.525,0.39098947374066967,99.22371126121679,0,60,1.0,2,0.5111461473227481
3.53,0.3969108472035567,95.41664685863836,0,60,1.0,2,0.4215681613797261
3.535,0.3997469255491936,92.0107136810468,0,60,1.0,2,0.34142855720110105
3.54,0.3994308076379137,89.09921702002791,0,60,1.0,2,0.27292275341242134
3.545,0.3959699661768434,86.72099306384327,0,60,1.0,2,0.2169645426786651
3.55,0.38944595408114946,84.86934322745678,0,60,1.0,2,0.1733963112342772
3.555,0.38001120995358023,83.50409389992826,0,60,1.0,2,0.14127279764537093
3.56,0.3678831374098315,82.5643187163182,0,60,1.0,2,0.1191604403839576
3.565,0.35333577933796634,81.97979641551007,0,60,1.0,2,0.10540697448258979
3.57,0.33668953221163944,81.68001798316348,0,60,1.0,2,0.09835336430972896
3.575,0.3182994390982644,81.60029568688363,0,60,1.0,2,0.09647754557373239
3.58,0.29854265738230645,81.68511720481757,0,60,1.0,2,0.09847334599570759
3.585,0.2778057157821067,81.8892611786442,0,60,1.0,2,0.10327673361515775
3.59,0.2564721553719815,82.17734651540148,0,60,1.0,2,0.11005521212709368
3.595,0.23491109433464996,82.52247317147288,0,60,1.0,2,0.1181758393287737
3.6,0.21346717185309805,82.90449269890502,0,60,1.0,2,0.12716453409188275
3.605,0.19245222055656455,83.30828526471531,0,60,1.0,2,0.13666553564036021
3.61,0.17213889801761392,83.72226285659941,0,60,1.0,2,0.1464061848611627
3.615,0.15275638501270183,84.13719258266862,0,60,1.0,3,0.1561692372392616
3.62,0.13448814019607322,84.54534839222734,0,60,1.0,3,0.16577290334652564
3.625,0.11747159495449566,84.93995127272836,0,60,1.0,3,0.17505767700537328
3.63,0.10179958433370105,85.31483813156787,0,60,1.0,3,0.1838785442721851
3.635,0.08752324394101413,85.66429795931882,0,60,1.0,3,0.19210112845456037
3.64,0.07465606047174059,85.98302177258904,0,60,1.0,3,0.19960051229621273
3.645,0.0631787448609295,86.2661241010189,0,60,1.0,3,0.20626174355338595
3.65,0.05304460019959574,86.509204811254,0,60,1.0,3,0.21198128967656457
3.655,0.044185078305849994,86.70842921313016,0,60,1.0,3,0.21666892266188612
3.66,0.03651525513023255,86.86061128456899,0,60,1.0,3,0.2202496772839762
3.665,0.0299390014708757,86.96328974342804,0,60,1.0,3,0.2226656410218361
3.67,0.024353677220580638,87.0147900798478,0,60,1.0,3,0.22387741364347763
3.675,0.01965423034339045,87.01426803196546,0,60,1.0,3,0.22386513016389312
3.68,0.015736632374757337,86.9617317279995,0,60,1.0,3,0.2226289818352825
3.685,0.012500627640593535,86.85804109034562,0,60,1.0,3,0.22018920212577936
3.69,0.009851811652115898,86.70488425603972,0,60,1.0,3,0.2165855119068169
3.695,0.007703084175428559,86.50473178744132,0,60,1.0,3,0.2118760420574427
3.7,0.005975544002062424,86.26077035135903,0,60,1.0,3,0.2061357729731536
3.705,0.004598905818663047,85.97681832982333,0,60,1.0,3,0.19945454893701955
3.71,0.0035115256454839104,85.6572264743845,0,60,1.0,3,0.19193474057375295
3.715,0.002660121266303676,85.30676720877216,0,60,1.0,3,0.1836886402064037
3.72,0.0019992692560877024,84.93051650632438,0,60,1.0,3,0.17483568250175013
3.725,0.0014907520044639367,84.53373241029662,0,60,1.0,3,0.1654995861246264
3.73,0.0011028178277539807,84.12173422728785,0,60,1.0,3,0.15580551123030226
3.735,0.0008094059938923333,83.69978621594157,0,60,1.0,3,0.145877322728037
3.74,0.0005893771793717645,83.27298923259978,0,60,1.0,3,0.13583504076705374
3.745,0.0004257792353490551,82.84618330765194,0,60,1.0,3,0.1257925484153398
3.75,0.0003051686392901525,82.42386354125402,0,60,1.0,3,0.11585561273538875
3.755,0.00021699992642659966,82.01011105855213,0,60,1.0,3,0.10612026020122652
3.76,0.00015308884054097838,81.60854008739086,0,60,1.0,3,0.09667153146802032
3.765,0.00010714989329311098,81.22226154968438,0,60,1.0,3,0.0875826246984559
3.77,7.440535854020571e-05,80.85386292236346,0,60,1.0,3,0.07891442170266968
3.775,5.1260276743925106e-05,80.50540355191389,0,60,1.0,3,0.07071537769209145
3.78,3.503659887882241e-05,80.17842411927857,0,60,1.0,3,0.06302174398302528
3.785,2.375894748103639e-05,79.8739685643194,0,60,1.0,3,0.055858083866338774
3.79,1.5984413869232557e-05,79.59261649957682,0,60,1.0,3,0.04923803528416048
3.795,1.0669166579899869e-05,79.33452397376828,0,60,1.0,3,0.04316526997101846
3.8,7.06526633560511e-06,79.09947038249331,0,60,1.0,3,0.037634597235136666
3.805,4.641847214699205e-06,78.88690935809102,0,60,1.0,3,0.03263316136684747
3.81,3.025641074479182e-06,78.6960215896651,0,60,1.0,3,0.028141684462708087
3.815,1.9566278676921314e-06,78.5257677122978,0,60,1.0,3,0.02413571087759545
3.82,1.2553456560008793e-06,78.37493964417503,0,60,1.0,3,0.020586815157059513
3.825,7.990660428214668e-07,78.2422090240731,0,60,1.0,3,0.017463741742896593
3.83,5.046221251618276e-07,78.12617169236393,0,60,1.0,3,0.014733451585033542
3.835,3.1616527078858815e-07,78.025387450806,0,60,1.0,3,0.012362057666023381
3.84,1.9652884407760343e-07,77.93841461647177,0,60,1.0,3,0.010315638034629995
3.845,1.2120002189836396e-07,77.8638391423511,0,60,1.0,3,0.008560920996496394
3.85,7.415549848886236e-08,77.80029830339164,0,60,1.0,3,0.007065842432744523
3.855,4.501406988770349e-08,77.74649913671861,0,60,1.0,3,0.005799979687496743
3.86,0.0,77.70123197589588,0,60,1.0,3,0.00473487002107952
3.865,0.0,77.66337953109218,0,60,1.0,3,0.003844224260992365
3.87,0.0,77.63192204162286,0,60,1.0,3,0.0031040480381848818
3.875,0.0,77.60593906782344,0,60,1.0,3,0.0024926839487868753
3.88,0.0,77.5846084999467,0,60,1.0,3,0.001990788234039923
3.885,0.0,77.56720334779462,0,60,1.0,3,0.0015812552422262878
3.89,0.0,77.55308684140455,0,60,1.0,3,0.0012491021506952941
3.895,0.0,77.54170632554015,0,60,1.0,3,0.0009813253068269954
3.9,0.0,77.53258637389288,0,60,1.0,3,0.0007667382092443083
3.905,0.0,77.5253214871494,0,60,1.0,3,0.000595799697632896
3.91,0.0,77.5195686761332,0,60,1.0,3,0.00046043943842833225
3.915,0.0,77.51504017008224,0,60,1.0,3,0.00035388635487633484
3.92,0.0,77.51149643304234,0,60,1.0,3,0.0002705043068785659
3.925,0.0,77.50873961991796,0,60,1.0,3,0.00020563811571672457
3.93,0.0,77.50660755888478,0,60,1.0,3,0.00015547197375955125
3.935,0.0,77.50496830905382,0,60,1.0,3,0.00011690138950170342
3.94,0.0,77.5037153114783,0,60,1.0,3,8.741909360711522e-05
3.945,0.0,77.50276312746773,0,60,1.0,3,6.501476394659863e-05
3.95,0.0,77.50204374014463,0,60,1.0,3,4.808800340302856e-05
3.955,0.0,77.50150338251946,0,60,1.0,3,3.537370634021767e-05
3.96,0.0,77.50109984727075,0,60,1.0,3,2.587875931179523e-05
3.965,0.0,77.50080022908391,0,60,1.0,3,1.8828919621348497e-05
3.97,0.0,77.50057904904067,0,60,1.0,3,1.3624683309805785e-05
3.975,0.0,77.50041671144271,0,60,1.0,3,9.804975122599845e-06
3.98,0.0,77.50029824596082,0,60,1.0,3,7.017552019306095e-06
3.985,0.0,77.50021229158524,0,60,1.0,3,4.995096123352863e-06
3.99,0.0,77.50015028306859,0,60,1.0,3,3.536072202169795e-06
3.995,0.0,77.50010580504913,0,60,1.0,3,2.4895305677867272e-06
4.0,0.0,77.50007408355204,0,60,1.0,3,1.7431424008490842e-06
4.005,0.0,77.50005158889975,0,60,1.0,3,1.213856464734336e-06
4.01,0.0,77.50003572808994,0,60,1.0,3,8.406609397832868e-07
4.015,0.0,77.50002460834446,0,60,1.0,3,5.790198696665946e-07
4.02,0.001684486749771458,77.50001685675832,0,60,1.0,3,3.9662960756793514e-07
4.025,0.003097557930867117,77.500011483778,0,60,1.0,3,2.7020654108448924e-07
4.03,0.005475106668887023,77.50000778062673,0,60,1.0,3,1.830735701493241e-07
4.035,0.00930222931468658,77.50000524280178,0,60,1.0,3,1.233600418051056e-07
4.04,0.01519157517868857,77.50000351343044,0,60,1.0,3,8.266895159014145e-08
4.045,0.023847336626128316,77.5000023416304,0,60,1.0,3,5.5097186024046524e-08
4.05,0.0359830743700859,77.5000015521168,0,60,1.0,3,3.652039528306512e-08
4.055,0.05218887796857759,77.50000102317405,0,60,1.0,3,2.4074683538214337e-08
4.06,0.0727577001223134,77.500000670801,0,60,1.0,3,1.5783552953507752e-08
4.065,0.0974992498694751,77.500000437378,0,60,1.0,3,1.029124719560273e-08
4.07,0.12558706050443358,77.50000028362157,0,60,1.0,3,6.6734488053257606e-09
4.075,0.15549263588878245,77.50000018291134,0,60,1.0,3,4.303796137772973e-09
4.08,0.1850529723539114,77.50000011731703,0,60,1.0,3,2.760400681889972e-09
4.085,0.21169159439317053,77.50000007483428,0,60,1.0,3,1.7608064862382462e-09
4.09,0.23277292922115492,77.50000004747436,0,60,1.0,3,1.1170437333288752e-09
4.095,0.24602692519491282,77.50000002995276,0,60,1.0,3,7.047707881343633e-10
4.1,0.24995056064839283,77.50000001879462,0,60,1.0,3,4.4222641757668874e-10
4.105,0.24408826520424054,77.50000001172869,0,60,1.0,3,2.759691142273368e-10
4.11,0.22911894216865275,77.50000000727921,0,60,1.0,3,1.7127557411560487e-10
4.115,0.20672661788705934,77.50000000449302,0,60,1.0,3,1.0571805914343499e-10
4.12,0.17928878030241233,77.5000000027581,0,60,1.0,3,6.48964594481239e-11
4.125,0.14946211903866036,77.50000000168384,0,60,1.0,3,3.9619862945983186e-11
4.13,0.1197651512573837,77.50000000102239,0,60,1.0,3,2.405613486189395e-11
4.135,0.09224675744988023,77.50000000061736,0,60,1.0,3,1.4526168503353428e-11
4.14,0.06829565320281596,77.50000000037076,0,60,1.0,3,8.723792929873418e-12
4.145,0.04860224607515734,77.50000000022145,0,60,1.0,3,5.210535271223361e-12
4.15,0.03324612389699793,77.50000000013154,0,60,1.0,3,3.094956970444935e-12
4.155,0.021859876340472782,77.5000000000777,0,60,1.0,3,1.8283518490052836e-12
4.16,0.01381595518554205,77.50000000004566,0,60,1.0,3,1.0743406164692714e-12
4.165,0.008394095110402422,77.50000000002667,0,60,1.0,3,6.27618218833745e-13
4.17,0.0049052535271608,77.5000000000155,0,60,1.0,3,3.648009998655385e-13
4.175,0.0027671663551903634,77.50000000000895,0,60,1.0,3,2.1065502283711206e-13
4.18,0.0015425553464444616,77.50000000000514,0,60,1.0,3,1.2104304486830883e-13
4.185,0.0009638206637011801,77.50000000000294,0,60,1.0,3,6.921522178933681e-14
4.19,0.0009804935156568228,77.50000000000168,0,60,1.0,3,3.945602015044321e-14
4.195,0.0018793744894085216,77.50000000000095,0,60,1.0,3,2.2402994492200805e-14
4.2,0.004535525206900863,77.50000000000053,0,60,1.0,3,1.2371802928528803e-14
4.205,0.010832767979632273,77.5000000000003,0,60,1.0,3,7.021834094570402e-15
4.21,0.024208003392322392,77.50000000000017,0,60,1.0,3,4.012476625468801e-15
4.215,0.0500971897335304,77.50000000000009,0,60,1.0,3,2.0062383127344005e-15
4.22,0.09582894921774403,77.50000000000004,0,60,1.0,3,1.0031191563672002e-15
4.225,0.16937896721820658,77.50000000000003,0,60,1.0,3,6.687461042448002e-16
4.23,0.27661303008991756,77.50000000000001,0,60,1.0,3,3.343730521224001e-16
4.235,0.4173782800009149,77.50000000000001,0,60,1.0,3,3.343730521224001e-16
4.24,0.5818720934538056,77.5,0,60,1.0,3,0.0
4.245,0.7494718801585675,77.5,0,60,1.0,3,0.0
4.25,0.891813020752378,77.5,0,60,1.0,3,0.0
4.255,0.9800361632936612,77.5,0,60,1.0,3,0.0
4.26,0.993574479225126,77.50000249158927,1,60,1.0,3,5.8625629903604824e-08
4.265,0.9263438449375362,77.50000379993156,0,60,1.0,3,8.941015440701877e-08
4.27,0.7873015962290536,77.50000591356006,0,60,1.0,3,1.3914258963321865e-07
4.275,0.5959516244629897,77.50000948821413,0,60,1.0,3,2.232520972377054e-07
4.28,0.376910120078773,77.50001585275675,0,60,1.0,3,3.730060410923804e-07
4.285,0.15739335672107918,77.50002775258693,0,60,1.0,3,6.530020454299708e-07
4.29,-0.033361226269301235,77.50005088320476,0,60,1.0,3,1.1972518768074865e-06
4.295,-0.1680180840843834,77.50009697753961,0,60,1.0,3,2.2818244614801885e-06
4.3,-0.23069703190837854,77.50018985514251,0,60,1.0,3,4.4671798237312244e-06
4.305,-0.22587267821131068,77.50037693597443,0,60,1.0,3,8.86908175128637e-06
4.31,-0.17718181630665902,77.5007504971461,0,60,1.0,3,1.7658756378830946e-05
4.315,-0.11494332516451301,77.50148568815435,0,60,1.0,3,3.495736833756649e-05
4.32,-0.061810214049552864,77.5029063011008,0,60,1.0,3,6.838355531278787e-05
4.325,-0.026546104631500547,77.50559469328022,0,60,1.0,3,0.0001316398418874301
4.33,-0.00719600351942686,77.51056896157553,0,60,1.0,3,0.00024868144883598953
4.335,0.0022072757983807078,77.51955777873579,0,60,1.0,3,0.00046018302907735713
4.34,0.006917199873730717,77.53540961162948,0,60,1.0,3,0.0008331673324582479
4.345,0.01004859748264829,77.56267550080591,0,60,1.0,3,0.0014747176660213936
4.35,0.013037082251128167,77.60839895060144,0,60,1.0,3,0.0025505635435633047
4.355,0.01645163937690478,77.68312739222574,0,60,1.0,3,0.004308879817076291
4.36,0.020526639934696615,77.80212156747965,0,60,1.0,3,0.007108742764226944
4.365,0.02539629541761738,77.98667804053113,0,60,1.0,3,0.011451248012497217
4.37,0.031171612185577933,78.2653960540608,0,60,1.0,3,0.018009318919077675
4.375,0.03795853426638131,78.67512045415272,0,60,1.0,3,0.0276498930388875
4.38,0.0458588961882057,79.26119444970924,0,60,1.0,3,0.04143986940492322
4.385,0.054966995891435555,80.07658695093733,0,60,1.0,3,0.060625575316172374
4.39,0.06536491004445595,81.17945433275491,0,60,1.0,3,0.08657539606482152
4.395,0.07711726085088699,82.62879178438199,0,60,1.0,3,0.12067745375016443
4.4,0.09026570629555215,84.47805091356526,0,60,1.0,3,0.16418943326035895
4.405,0.10482339848670268,86.76695055985479,0,60,1.0,3,0.2180458955259951
4.41,0.12076968927580028,89.51215426574176,0,60,1.0,3,0.28263892389980605
4.415,0.13804539501007884,92.69795756330784,0,60,1.0,3,0.35759900148959617
4.42,0.15654895051787066,96.26851367759303,0,60,1.0,3,0.44161208653160083
4.425,0.17613378141900526,100.12330495994888,0,60,1.0,3,0.5323130578811501
4.43,0.19660720058055794,104.11743307542135,0,60,1.0,3,0.6262925429510905
4.435,0.21773108748496234,108.0677995687299,0,60,1.0,3,0.7192423427936446
4.44,0.23922453870058807,111.76540786080702,0,60,1.0,3,0.806244890842518
4.445,0.2607685857914563,114.99296001198383,0,60,1.0,3,0.8821872943996194
4.45,0.2820129681603682,117.54584870617109,0,60,1.0,3,0.9422552636746138
4.455,0.30258482867153996,119.2537975193284,0,60,1.0,3,0.9824422945724329
4.46,0.3220990771751686,120.0,0,60,1.0,3,1.0
4.465,0.3401700499968971,119.73478616852705,0,60,1.0,3,0.9937596745535777
4.47,0.3564239911198326,118.48161074436288,0,60,1.0,3,0.964273193985009
4.475,0.3705118017738417,116.33437700317083,0,60,1.0,3,0.9137500471334312
4.48,0.3821214567925213,113.44653664567393,0,60,1.0,3,0.8458008622511513
4.485,0.39098947374066967,110.0137397798626,0,60,1.0,3,0.7650291712908848
4.49,0.3969108472035567,106.25277411123389,0,60,1.0,3,0.6765358614407975
4.495,0.3997469255491936,102.379945660435,0,60,1.0,3,0.5854104861278823
4.5,0.3994308076379137,98.59186644889243,0,60,1.0,3,0.4962792105621749
4.505,0.3959699661768434,95.05091722544557,0,60,1.0,3,0.4129627582457782
4.51,0.38944595408114946,91.87663925411117,0,60,1.0,3,0.33827386480261573
4.515,0.38001120995358023,89.14321850764775,0,60,1.0,3,0.2739580825328881
4.52,0.3678831374098315,86.88228150405848,0,60,1.0,3,0.22075956480137607
4.525,0.35333577933796634,85.08958077085171,0,60,1.0,3,0.1785783710788638
4.53,0.33668953221163944,83.73387384780025,0,60,1.0,3,0.1466793846541236
4.535,0.3182994390982644,82.76636774511343,0,60,1.0,3,0.12391453517913947
4.54,0.29854265738230645,82.12942061521238,0,60,1.0,3,0.10892754388735017
4.545,0.2778057157821067,81.76364371168687,0,60,1.0,3,0.10032102851027924
4.55,0.2564721553719815,81.61301314306044,0,60,1.0,3,0.09677677983671629
4.555,0.23491109433464996,81.62799466338542,0,60,1.0,3,0.09712928619730406
4.56,0.21346717185309805,81.76695761370226,0,60,1.0,3,0.10039900267534729
4.565,0.19245222055656455,81.99629623494059,0,60,1.0,3,0.10579520552801382
4.57,0.17213889801761392,82.28970640800449,0,60,1.0,3,0.11269897430598803
4.575,0.15275638501270183,82.62701710307833,0,60,1.0,3,0.12063569654301953
4.58,0.13448814019607322,82.99288504130256,0,60,1.0,3,0.12924435391300135
4.585,0.11747159495449566,83.37555924692441,0,60,1.0,3,0.13824845286880966
4.59,0.10179958433370105,83.76583043233612,0,60,1.0,3,0.14743130429026158
4.595,0.08752324394101413,84.15620940218066,0,60,1.0,3,0.15661669181601562
4.6,0.07465606047174059,84.54033150564439,0,60,1.0,3,0.16565485895633855
4.605,0.0631787448609295,84.91255790226458,0,60,1.0,3,0.1744131271121078
4.61,0.05304460019959574,85.26773383409369,0,60,1.0,3,0.182770207861028
4.615,0.044185078305849994,85.60106363445495,0,60,1.0,3,0.19061326198717518
4.62,0.03651525513023255,85.90806713082313,0,60,1.0,3,0.19783687366642652
4.625,0.0299390014708757,86.18458904516632,0,60,1.0,3,0.2043432716509722
4.63,0.024353677220580638,86.42683991565524,0,60,1.0,3,0.21004329213306439
4.635,0.01965423034339045,86.63145296320879,0,60,1.0,3,0.2148577167813832
4.64,0.015736632374757337,86.79554590696114,0,60,1.0,3,0.218718727222615
4.645,0.012500627640593535,86.91678008455858,0,60,1.0,3,0.22157129610726076
4.65,0.009851811652115898,86.9934116100258,0,60,1.0,3,0.22337439082413652
4.655,0.007703084175428559,87.0243309843258,0,60,1.0,3,0.22410190551354825
4.66,0.005975544002062424,87.00908880101858,0,60,1.0,3,0.2237432659063195
4.665,0.004598905818663047,86.94790613701386,0,60,1.0,3,0.22230367381209082
4.67,0.0035115256454839104,86.84166899981275,0,60,1.0,3,0.21980397646618244
4.675,0.002660121266303676,86.6919068819151,0,60,1.0,3,0.21628016192741417
4.68,0.0019992692560877024,86.50075607951777,0,60,1.0,3,0.21178249598865342
4.685,0.0014907520044639367,86.27090897359844,0,60,1.0,3,0.20637432879055148
4.69,0.0011028178277539807,86.00555094222749,0,60,1.0,3,0.20013061040535263
4.695,0.0008094059938923333,85.7082869635257,0,60,1.0,3,0.19313616384766338
4.7,0.0005893771793717645,85.38306026845892,0,60,1.0,3,0.1854837710225628
4.705,0.0004257792353490551,85.03406560313258,0,60,1.0,3,0.17727213183841353
4.71,0.0003051686392901525,84.66565975665422,0,60,1.0,3,0.16860375898009933
4.715,0.00021699992642659966,84.2822720027081,0,60,1.0,3,0.15958287065195523
4.72,0.00015308884054097838,83.88831699514871,0,60,1.0,3,0.15031334106232266
4.725,0.00010714989329311098,83.48811245900696,0,60,1.0,3,0.14089676374134014
4.73,7.440535854020571e-05,83.0858037409954,0,60,1.0,3,0.13143067625871535
4.735,5.1260276743925106e-05,82.68529694362411,0,60,1.0,3,0.12200698690880259
4.74,3.503659887882241e-05,82.29020198220566,0,60,1.0,3,0.11271063487542726
4.745,2.375894748103639e-05,81.90378649321408,0,60,1.0,3,0.10361850572268436
4.75,1.5984413869232557e-05,81.52894110457248,0,60,1.0,3,0.09479861422523486
4.755,1.0669166579899869e-05,81.16815617144748,0,60,1.0,3,0.08630955697523478
4.76,7.06526633560511e-06,80.82350970120721,0,60,1.0,3,0.07820022826369917
4.765,4.641847214699205e-06,80.49666585205212,0,60,1.0,3,0.07050978475416748
4.77,3.025641074479182e-06,80.18888310217035,0,60,1.0,3,0.06326783769812591
4.775,1.9566278676921314e-06,79.90103095754084,0,60,1.0,3,0.05649484605978447
4.78,1.2553456560008793e-06,79.63361390077021,0,60,1.0,3,0.05020268001812269
4.785,7.990660428214668e-07,79.38680118140502,0,60,1.0,3,0.04439532191541221
4.79,5.046221251618276e-07,79.16046100780952,0,60,1.0,3,0.03906967077198862
4.795,3.1616527078858815e-07,78.95419771716094,0,60,1.0,3,0.034216416874375
4.8,1.9652884407760343e-07,78.76739056652946,0,60,1.0,3,0.029820954506575455
4.805,1.2120002189836396e-07,78.59923289601649,0,60,1.0,3,0.02586430343568208
4.81,7.415549848886236e-08,78.44877055523571,0,60,1.0,3,0.022324013064369676
4.815,4.501406988770349e-08,78.31493864740304,0,60,1.0,3,0.019175026997718572
4.82,0.0,78.19659582148978,0,60,1.0,4,0.01639048991740658
4.825,0.0,78.09255552344018,0,60,1.0,4,0.013942482904474886
4.83,0.0,78.00161379448677,0,60,1.0,4,0.011802677517335818
4.835,0.0,77.92257337147358,0,60,1.0,4,0.009942902858201772
4.84,0.0,77.85426399556034,0,60,1.0,4,0.00833562342494929
4.845,0.0,77.79555896792559,0,60,1.0,4,0.006954328657072625
4.85,0.0,77.74538810172116,0,60,1.0,4,0.005773837687556739
4.855,0.0,77.70274730749595,0,60,1.0,4,0.004770524882257753
4.86,0.0,77.66670511470362,0,60,1.0,4,0.003922473287143943
4.865,0.0,77.63640647582612,0,60,1.0,4,0.003209564137085194
4.87,0.0,77.61107422393171,0,60,1.0,4,0.002613511151334331
4.875,0.0,77.59000856154358,0,60,1.0,4,0.0021178485069078628
4.88,0.0,77.57258495126403,0,60,1.0,4,0.0017078812062125588
4.885,0.0,77.55825075956768,0,60,1.0,4,0.001370606107474928
4.89,0.0,77.54652097741523,0,60,1.0,4,0.001094611233299461
4.895,0.0,77.53697330756953,0,60,1.0,4,0.0008699601781064731
4.9,0.0,77.52924287118194,0,60,1.0,4,0.000688067557222011
4.905,0.0,77.52301674750609,0,60,1.0,4,0.0005415705295550812
4.91,0.0,77.51802852227003,0,60,1.0,4,0.00042420052400068606
4.915,0.0,77.51405298370467,0,60,1.0,4,0.00033065844010994784
4.92,0.0,77.51090107153125,0,60,1.0,4,0.00025649580073531175
4.925,0.0,77.50841515405568,0,60,1.0,4,0.00019800362483960379
4.93,0.0,77.50646468230802,0,60,1.0,4,0.00015211017195343522
4.935,0.0,77.50494224804716,0,60,1.0,4,0.00011628818934488716
4.94,0.0,77.50376005436644,0,60,1.0,4,8.847186744560531e-05
4.945,0.0,77.50284679336629,0,60,1.0,4,6.698337332442647e-05
4.95,0.0,77.50214491457672,0,60,1.0,4,5.046857827571383e-05
4.955,0.0,77.50160826011297,0,60,1.0,4,3.7841414422914834e-05
4.96,0.0,77.50120003749603,0,60,1.0,4,2.823617637726356e-05
4.965,0.0,77.50089109821971,0,60,1.0,4,2.0967016934371393e-05
4.97,0.0,77.50065848907005,0,60,1.0,4,1.5493860471719124e-05
4.975,0.0,77.50048424350034,0,60,1.0,4,1.1393964713841556e-05
4.98,0.0,77.5003543816815,0,60,1.0,4,8.338392505974673e-06
4.985,0.0,77.5002580898728,0,60,1.0,4,6.072702889442178e-06
4.99,0.0,77.50018705223314,0,60,1.0,4,4.401229015162672e-06
4.995,0.0,77.50013491090827,0,60,1.0,4,3.1743743122928316e-06
5.0,0.0,77.5000968330184,0,60,1.0,4,2.2784239624396672e-06
5.005,0.0,77.50006916591201,0,60,1.0,4,1.627433223749155e-06
5.01,0.0,77.50004916465329,0,60,1.0,4,1.1568153715469474e-06
5.015,0.0,77.50003477811896,0,60,1.0,4,8.183086813861497e-07
5.02,0.0,77.50002448225581,0,60,1.0,4,5.760530778870281e-07
5.025,0.0,77.5000171509827,0,60,1.0,4,4.035525341136878e-07
5.03,0.0,77.50001195690616,0,60,1.0,4,2.81338968561078e-07
5.035,0.0,77.50000829546754,0,60,1.0,4,1.9518747147712395e-07
5.04,0.001684486749771458,77.5000057273688,0,60,1.0,4,1.3476161885752363e-07
5.045,0.003097557930867117,77.5000039351534,0,60,1.0,4,9.259184473782678e-08
5.05,0.005475106668887023,77.50000269066989,0,60,1.0,4,6.33098797125593e-08
5.055,0.00930222931468658,77.50000183084427,0,60,1.0,4,4.3078688684224345e-08
5.06,0.01519157517868857,77.50000123975146,0,60,1.0,4,2.917062247701431e-08
5.065,0.023847336626128316,77.50000083543003,0,60,1.0,4,1.96571771566061e-08
5.07,0.0359830743700859,77.50000056024471,0,60,1.0,4,1.3182228579299751e-08
5.075,0.05218887796857759,77.5000003738847,0,60,1.0,4,8.797287123610765e-09
5.08,0.0727577001223134,77.50000024830751,0,60,1.0,4,5.8425297645632836e-09
5.085,0.0974992498694751,77.5000001641097,0,60,1.0,4,3.861404539908536e-09
5.09,0.12558706050443358,77.50000010793714,0,60,1.0,4,2.53969741446353e-09
5.095,0.15549263588878245,77.50000007064799,0,60,1.0,4,1.662305535051821e-09
5.1,0.1850529723539114,77.50000004601726,0,60,1.0,4,1.082759126802557e-09
5.105,0.21169159439317053,77.50000002982868,0,60,1.0,4,7.018513770162827e-10
5.11,0.23277292922115492,77.50000001924154,0,60,1.0,4,4.5274211569288607e-10
5.115,0.24602692519491282,77.500000012352,0,60,1.0,4,2.906353850395295e-10
5.12,0.24995056064839283,77.50000000789092,0,60,1.0,4,1.856686621442136e-10
5.125,0.24408826520424054,77.5000000050166,0,60,1.0,4,1.180376998758327e-10
5.13,0.22911894216865275,77.50000000317384,0,60,1.0,4,7.467854308796471e-11
5.135,0.20672661788705934,77.50000000199826,0,60,1.0,4,4.701786672419129e-11
5.14,0.17928878030241233,77.50000000125202,0,60,1.0,4,2.9459269011139815e-11
5.145,0.14946211903866036,77.50000000078066,0,60,1.0,4,1.8368449245291926e-11
5.15,0.1197651512573837,77.5000000004844,0,60,1.0,4,1.1397774227696251e-11
5.155,0.09224675744988023,77.50000000029911,0,60,1.0,4,7.037884001072277e-12
5.16,0.06829565320281596,77.5000000001838,0,60,1.0,4,4.3247810561511225e-12
5.165,0.04860224607515734,77.50000000011241,0,60,1.0,4,2.6448908422881848e-12
5.17,0.03324612389699793,77.50000000006841,0,60,1.0,4,1.609671872917234e-12
5.175,0.021859876340472782,77.50000000004142,0,60,1.0,4,9.746974469367963e-13
5.18,0.01381595518554205,77.50000000002497,0,60,1.0,4,5.87493452579057e-13
5.185,0.008394095110402422,77.50000000001498,0,60,1.0,4,3.524291969370097e-13
5.19,0.0049052535271608,77.50000000000894,0,60,1.0,4,2.1032064978498967e-13
5.195,0.0027671663551903634,77.50000000000531,0,60,1.0,4,1.2505552149377764e-13
5.2,0.0015425553464444616,77.50000000000314,0,60,1.0,4,7.389644451905042e-14
5.205,0.0009638206637011801,77.50000000000185,0,60,1.0,4,4.346849677591201e-14
5.21,0.0009804935156568228,77.50000000000108,0,60,1.0,4,2.5412351961302408e-14
5.215,0.0018793744894085216,77.50000000000063,0,60,1.0,4,1.4712414293385605e-14
5.22,0.004535525206900863,77.50000000000037,0,60,1.0,4,8.693699355182403e-15
5.225,0.010832767979632273,77.50000000000021,0,60,1.0,4,5.015595781836002e-15
5.23,0.024208003392322392,77.50000000000011,0,60,1.0,4,2.6749844169792007e-15
5.235,0.0500971897335304,77.50000000000007,0,60,1.0,4,1.6718652606120004e-15
5.24,0.09582894921774403,77.50000000000004,0,60,1.0,4,1.0031191563672002e-15
5.245,0.16937896721820658,77.50000000000003,0,60,1.0,4,6.687461042448002e-16
5.25,0.27661303008991756,77.50000000000001,0,60,1.0,4,3.343730521224001e-16
5.255,0.4173782800009149,77.5,0,60,1.0,4,0.0
5.26,0.5818720934538056,77.5,0,60,1.0,4,0.0
5.265,0.7494718801585675,77.5,0,60,1.0,4,0.0
5.27,0.891813020752378,77.5,0,60,1.0,4,0.0
5.275,0.9800361632936612,77.5,0,60,1.0,4,0.0
5.28,0.993574479225126,77.50000249060646,1,60,1.0,4,5.860250499769309e-08
5.285,0.9263438449375362,77.50000385734029,0,60,1.0,4,9.076094797552179e-08
5.29,0.7873015962290536,77.50000610730334,0,60,1.0,4,1.437012549425109e-07
5.295,0.5959516244629897,77.50000999976028,0,60,1.0,4,2.3528847718272813e-07
5.3,0.376910120078773,77.50001711607312,0,60,1.0,4,4.027311323331078e-07
5.305,0.15739335672107918,77.5000308127143,0,60,1.0,4,7.250050423542288e-07
5.31,-0.033361226269301235,77.50005823243188,0,60,1.0,4,1.3701748678292514e-06
5.315,-0.1680180840843834,77.50011443699209,0,60,1.0,4,2.6926351080526407e-06
5.32,-0.23069703190837854,77.50023065316174,0,60,1.0,4,5.427133217327697e-06
5.325,-0.22587267821131068,77.50047021644501,0,60,1.0,4,1.106391635316333e-05
5.33,-0.17718181630665902,77.5009583966,0,60,1.0,4,2.255050823524631e-05
5.335,-0.11494332516451301,77.50193629964134,0,60,1.0,4,4.5559991561022426e-05
5.34,-0.061810214049552864,77.50385483894526,0,60,1.0,4,9.07020928296146e-05
5.345,-0.026546104631500547,77.50753250751332,0,60,1.0,4,0.0001772354709015979
5.35,-0.00719600351942686,77.51440996954433,0,60,1.0,4,0.00033905810692544944
5.355,0.0022072757983807078,77.52694391670826,0,60,1.0,4,0.0006339745107826435
5.36,0.006917199873730717,77.54918926053296,0,60,1.0,4,0.0011573943654813025
5.365,0.01004859748264829,77.5876176648087,0,60,1.0,4,0.0020615921131459745
5.37,0.013037082251128167,77.65220482613245,0,60,1.0,4,0.003581290026645815
5.375,0.01645163937690478,77.7577808422973,0,60,1.0,4,0.006065431583465732
5.38,0.020526639934696615,77.92557045679185,0,60,1.0,4,0.010013422512749311
5.385,0.02539629541761738,78.1847502601857,0,60,1.0,4,0.016111770827898695
5.39,0.031171612185577933,78.57372412531626,0,60,1.0,4,0.02526409706626496
5.395,0.03795853426638131,79.14068530680169,0,60,1.0,4,0.038604360160039666
5.4,0.0458588961882057,79.94292800606925,0,60,1.0,4,0.05748065896633534
5.405,0.054966995891435555,81.0443400664048,0,60,1.0,4,0.08339623685658352
5.41,0.06536491004445595,82.51060356247285,0,60,1.0,4,0.11789655441112593
5.415,0.07711726085088699,84.4018923138275,0,60,1.0,4,0.16239746620770595
5.42,0.09026570629555215,86.76329520888174,0,60,1.0,4,0.2179598872678057
5.425,0.10482339848670268,89.61377301640115,0,60,1.0,4,0.28502995332708597
5.43,0.12076968927580028,92.93507670582724,0,60,1.0,4,0.3631782754312292
5.435,0.13804539501007884,96.66256820647882,0,60,1.0,4,0.45088395779950174
5.44,0.15654895051787066,100.68011755916041,0,60,1.0,4,0.5454145308037743
5.445,0.17613378141900526,104.82105425803283,0,60,1.0,4,0.6428483354831255
5.45,0.19660720058055794,108.8764532668383,0,60,1.0,4,0.7382694886314893
5.455,0.21773108748496234,112.61088723201624,0,60,1.0,4,0.8261385231062645
5.46,0.23922453870058807,115.78436216317712,0,60,1.0,4,0.9008085214865205
5.465,0.2607685857914563,118.1777713622895,0,60,1.0,4,0.9571240320538708
5.47,0.2820129681603682,119.61819191512663,0,60,1.0,4,0.9910162803559207
5.475,0.30258482867153996,120.0,0,60,1.0,4,1.0
5.48,0.3220990771751686,119.29824545748835,0,60,1.0,4,0.9834881284114906
5.485,0.3401700499968971,117.5719546188641,0,60,1.0,4,0.9428695204438611
5.49,0.3564239911198326,114.95677661133668,0,60,1.0,4,0.8813359202667453
5.495,0.3705118017738417,111.64826619736436,0,60,1.0,4,0.8034886164085733
5.5,0.3821214567925213,107.87868369700878,0,60,1.0,4,0.7147925575766773
5.505,0.39098947374066967,103.89114672130673,0,60,1.0,4,0.6209681581483936
5.51,0.3969108472035567,99.91511507625712,0,60,1.0,4,0.5274144723825206
5.515,0.3997469255491936,96.14656082953842,0,60,1.0,4,0.4387426077538451
5.52,0.3994308076379137,92.73498319976926,0,60,1.0,4,0.3584701929357473
5.525,0.3959699661768434,89.77799372275705,0,60,1.0,4,0.2888939699472246
5.53,0.38944595408114946,87.32285486110474,0,60,1.0,4,0.23112599673187634
5.535,0.38001120995358023,85.37336529966561,0,60,1.0,4,0.185255654109779
5.54,0.3678831374098315,83.89998207819981,0,60,1.0,4,0.15058781360470147
5.545,0.35333577933796634,82.8510525309259,0,60,1.0,4,0.125907118374727
5.55,0.33668953221163944,82.16338984647568,0,60,1.0,4,0.10972681991707485
5.555,0.3182994390982644,81.7710004035094,0,60,1.0,4,0.10049412714139776
5.56,0.29854265738230645,81.61139076399436,0,60,1.0,4,0.0967386062116321
5.565,0.2778057157821067,81.62941598109197,0,60,1.0,4,0.0971627289668698
5.57,0.2564721553719815,81.7790040818856,0,60,1.0,4,0.1006824489855436
5.575,0.23491109433464996,82.02328621441396,0,60,1.0,4,0.1064302638685637
5.58,0.21346717185309805,82.33370255304422,0,60,1.0,4,0.1137341777186875
5.585,0.19245222055656455,82.68858789463043,0,60,1.0,4,0.12208442105012778
5.59,0.17213889801761392,83.07161944197627,0,60,1.0,4,0.13109692804650042
5.595,0.15275638501270183,83.47037548139828,0,60,1.0,4,0.1404794230917242
5.6,0.13448814019607322,83.87513591955003,0,60,1.0,4,0.1500031981070596
5.605,0.11747159495449566,84.27796761085855,0,60,1.0,4,0.15948159084373068
5.61,0.10179958433370105,84.67208126420148,0,60,1.0,4,0.16875485327532896
5.615,0.08752324394101413,85.05141767098016,0,60,1.0,4,0.17768041578776841
5.62,0.07465606047174059,85.41041137477472,0,60,1.0,4,0.18612732646528765
5.625,0.0631787448609295,85.74388204533,0,60,1.0,4,0.1939736951842352
5.63,0.05304460019959574,86.0470116192692,0,60,1.0,4,0.20110615574751056
5.635,0.044185078305849994,86.31537463568876,0,60,1.0,4,0.20742057966326483
5.64,0.03651525513023255,86.54499785256412,0,60,1.0,4,0.21282347888386172
5.645,0.0299390014708757,86.73243223546459,0,60,1.0,4,0.21723369965799025
5.65,0.024353677220580638,86.87482563242001,0,60,1.0,4,0.2205841325275297
5.655,0.01965423034339045,86.96998815607745,0,60,1.0,4,0.22282325073123407
5.66,0.015736632374757337,87.01644488029292,0,60,1.0,4,0.22391635012453937
5.665,0.012500627640593535,87.01347229325384,0,60,1.0,4,0.22384640690009036
5.67,0.009851811652115898,86.96111631870204,0,60,1.0,4,0.22261450161651858
5.675,0.007703084175428559,86.86019081224607,0,60,1.0,4,0.22023978381755469
5.68,0.005975544002062424,86.7122563730027,0,60,1.0,4,0.21675897348241652
5.685,0.004598905818663047,86.51958013614413,0,60,1.0,4,0.21222541496809713
5.69,0.0035115256454839104,86.28507794654647,0,60,1.0,4,0.2067077163893286
5.695,0.002660121266303676,86.01224095394758,0,60,1.0,4,0.20028802244582547
5.7,0.0019992692560877024,85.7050492026738,0,60,1.0,4,0.19305998123938367
5.705,0.0014907520044639367,85.36787519896696,0,60,1.0,4,0.18512647526981074
5.71,0.0011028178277539807,85.00538071378118,0,60,1.0,4,0.1765971932654395
5.715,0.0008094059938923333,84.6224102114667,0,60,1.0,4,0.1675861226227459
5.72,0.0005893771793717645,84.22388428441178,0,60,1.0,4,0.15820904198615957
5.725,0.0004257792353490551,83.81469632673434,0,60,1.0,4,0.14858109004080788
5.73,0.0003051686392901525,83.39961540923211,0,60,1.0,4,0.13881448021722617
5.735,0.00021699992642659966,82.98319794133803,0,60,1.0,4,0.1290164221491302
5.74,0.00015308884054097838,82.5697102464525,0,60,1.0,4,0.11928729991652945
5.745,0.00010714989329311098,82.16306366028918,0,60,1.0,4,0.10971914494798077
5.75,7.440535854020571e-05,81.76676321464303,0,60,1.0,4,0.10039442857983612
5.755,5.1260276743925106e-05,81.3838704178972,0,60,1.0,4,0.09138518630346351
5.76,3.503659887882241e-05,81.01698011357695,0,60,1.0,4,0.08275247326063409
5.765,2.375894748103639e-05,80.66821091136433,0,60,1.0,4,0.07454613909092533
5.77,1.5984413869232557e-05,80.33920825933811,0,60,1.0,4,0.06680490021972017
5.775,1.0669166579899869e-05,80.03115887537963,0,60,1.0,4,0.059556679420697214
5.78,7.06526633560511e-06,79.74481498835964,0,60,1.0,4,0.052819176196697314
5.785,4.641847214699205e-06,79.48052665965687,0,60,1.0,4,0.0466006272860441
5.79,3.025641074479182e-06,79.23828036186586,0,60,1.0,4,0.0409007143968438
5.795,1.9566278676921314e-06,79.01774197921334,0,60,1.0,4,0.03571157598149037
5.8,1.2553456560008793e-06,78.8183024547782,0,60,1.0,4,0.03101888128889895
5.805,7.990660428214668e-07,78.6391244320625,0,60,1.0,4,0.02680292781323534
5.81,5.046221251618276e-07,78.47918841005006,0,60,1.0,4,0.023039727295295454
5.815,3.1616527078858815e-07,78.3373371380437,0,60,1.0,4,0.019702050306910437
5.82,1.9652884407760343e-07,78.21231720572483,0,60,1.0,4,0.016760404840584227
5.825,1.2120002189836396e-07,78.10281702217611,0,60,1.0,4,0.014183929933555566
5.83,7.415549848886236e-08,78.00750061349781,0,60,1.0,4,0.011941190905830849
5.835,4.501406988770349e-08,77.92503689230902,0,60,1.0,4,0.010000868054329965
5.84,0.0,77.85412425603842,0,60,1.0,4,0.008332335436198064
5.845,0.0,77.79351054877074,0,60,1.0,4,0.006906130559311537
5.85,0.0,77.74200856992353,0,60,1.0,4,0.005694319292318288
5.855,0.0,77.69850743053568,0,60,1.0,4,0.004670763071427874
5.86,0.0,77.66198014454383,0,60,1.0,4,0.003811297518678416
5.865,0.0,77.63148789963498,0,60,1.0,4,0.0030938329325876754
5.87,0.0,77.60618148274689,0,60,1.0,4,0.0024983878293386064
5.875,0.0,77.58530034248456,0,60,1.0,4,0.0020070668819896047
5.88,0.0,77.56816975854922,0,60,1.0,4,0.0016039943188051143
5.885,0.0,77.55419656084052,0,60,1.0,4,0.0012752131962476116
5.89,0.0,77.542863802236,0,60,1.0,4,0.0010085600526117426
5.895,0.0,77.53372474296843,0,60,1.0,4,0.0007935233639630844
5.9,0.0,77.52639645440267,0,60,1.0,4,0.0006210930447687535
5.905,0.0,77.52055329875957,0,60,1.0,4,0.0004836070296368475
5.91,0.0,77.51592049130771,0,60,1.0,4,0.00037459979547553997
5.915,0.0,77.5122679045549,0,60,1.0,4,0.0002886565777624342
5.92,0.0,77.50940423131003,0,60,1.0,4,0.00022127603082420887
5.925,0.0,77.50717158596277,0,60,1.0,4,0.0001687431991239036
5.93,0.0,77.50544059134097,0,60,1.0,4,0.00012801391390519925
5.935,0.0,77.50410597211048,0,60,1.0,4,9.661110848188561e-05
5.94,0.0,77.50308265466796,0,60,1.0,4,7.253305101090411e-05
5.945,0.0,77.50230235743923,0,60,1.0,4,5.4173116217270946e-05
5.95,0.0,77.50171064389794,0,60,1.0,4,4.025044465733759e-05
5.955,0.0,77.50126440285658,0,60,1.0,4,2.9750655448879117e-05
5.96,0.0,77.50092971602302,0,60,1.0,4,2.1875671129959407e-05
5.965,0.0,77.50068007084202,0,60,1.0,4,1.6001666871127728e-05
5.97,0.0,77.5004948766761,0,60,1.0,4,1.1644157084714715e-05
5.975,0.0,77.50035824390325,0,60,1.0,4,8.429268311762345e-06
5.98,0.0,77.50025798806918,0,60,1.0,4,6.070307510111995e-06
5.985,0.0,77.50018482445232,0,60,1.0,4,4.348810642795798e-06
5.99,0.0,77.50013172197245,0,60,1.0,4,3.0993405282649347e-06
5.995,0.0,77.50009338906223,0,60,1.0,4,2.1973896995110835e-06
6.0,0.0,77.50006586774495,0,60,1.0,4,1.5498292929591758e-06
6.005,0.0,77.50004621559701,0,60,1.0,4,1.0874258119950836e-06
6.01,0.0,77.5000322584378,0,60,1.0,4,7.590220658424669e-07
6.015,0.0,77.5000223994362,0,60,1.0,4,5.270455577534877e-07
6.02,0.0,77.50001547283287,0,60,1.0,4,3.6406665578718223e-07
6.025,0.001684486749771458,77.50001063265135,0,60,1.0,5,2.5018003183878834e-07
6.03,0.003097557930867117,77.50000726862568,0,60,1.0,5,1.7102648658852988e-07
6.035,0.005475106668887023,77.50000494312994,0,60,1.0,5,1.1630893970290987e-07
6.04,0.00930222931468658,77.50000334418844,0,60,1.0,5,7.86867868849667e-08
6.045,0.01519157517868857,77.50000225070433,0,60,1.0,5,5.2957748868506956e-08
6.05,0.023847336626128316,77.50000150690246,0,60,1.0,5,3.545652856808053e-08
6.055,0.0359830743700859,77.50000100366974,0,60,1.0,5,2.3615758530414656e-08
6.06,0.05218887796857759,77.50000066502123,0,60,1.0,5,1.564755841761379e-08
6.065,0.0727577001223134,77.50000043834815,0,60,1.0,5,1.0314074175125022e-08
6.07,0.0974992498694751,77.50000028743645,0,60,1.0,5,6.763210582421915e-09
6.075,0.12558706050443358,77.50000018750096,0,60,1.0,5,4.411787264924736e-09
6.08,0.15549263588878245,77.50000012167578,0,60,1.0,5,2.8629595844369546e-09
6.085,0.1850529723539114,77.50000007854956,0,60,1.0,5,1.8482249769851263e-09
6.09,0.21169159439317053,77.5000000504455,0,60,1.0,5,1.1869527792013661e-09
6.095,0.23277292922115492,77.5000000322285,0,60,1.0,5,7.583176230742965e-10
6.1,0.24602692519491282,77.50000002048314,0,60,1.0,5,4.819562892568202e-10
6.105,0.24995056064839283,77.50000001295066,0,60,1.0,5,3.047215186062899e-10
6.11,0.24408826520424054,77.50000000814568,0,60,1.0,5,1.9166296784961186e-10
6.115,0.22911894216865275,77.50000000509684,0,60,1.0,5,1.1992557012811578e-10
6.12,0.20672661788705934,77.50000000317259,0,60,1.0,5,7.464911825937794e-11
6.125,0.17928878030241233,77.50000000196455,0,60,1.0,5,4.622473384455696e-11
6.13,0.14946211903866036,77.5000000012102,0,60,1.0,5,2.847520911874359e-11
6.135,0.1197651512573837,77.50000000074162,0,60,1.0,5,1.7449926471111694e-11
6.14,0.09224675744988023,77.50000000045212,0,60,1.0,5,1.063807865327416e-11
6.145,0.06829565320281596,77.5000000002742,0,60,1.0,5,6.45172804070171e-12
6.15,0.04860224607515734,77.50000000016543,0,60,1.0,5,3.892436699756859e-12
6.155,0.03324612389699793,77.50000000009929,0,60,1.0,5,2.3362645151792095e-12
6.16,0.021859876340472782,77.50000000005929,0,60,1.0,5,1.3950043734546533e-12
6.165,0.01381595518554205,77.50000000003521,0,60,1.0,5,8.285764231593074e-13
6.17,0.008394095110402422,77.5000000000208,0,60,1.0,5,4.895221483071937e-13
6.175,0.0049052535271608,77.50000000001224,0,60,1.0,5,2.8789519787738646e-13
6.18,0.0027671663551903634,77.50000000000715,0,60,1.0,5,1.6818964521756725e-13
6.185,0.0015425553464444616,77.50000000000416,0,60,1.0,5,9.797130427186323e-14
6.19,0.0009638206637011801,77.5000000000024,0,60,1.0,5,5.6509045808685616e-14
6.195,0.0009804935156568228,77.50000000000138,0,60,1.0,5,3.243418605587281e-14
6.2,0.0018793744894085216,77.5000000000008,0,60,1.0,5,1.8724890918854405e-14
6.205,0.004535525206900863,77.50000000000045,0,60,1.0,5,1.0699937667916803e-14
6.21,0.010832767979632273,77.50000000000026,0,60,1.0,5,6.0187149382032015e-15
6.215,0.024208003392322392,77.50000000000014,0,60,1.0,5,3.343730521224001e-15
6.22,0.0500971897335304,77.50000000000009,0,60,1.0,5,2.0062383127344005e-15
6.225,0.09582894921774403,77.50000000000004,0,60,1.0,5,1.0031191563672002e-15
6.23,0.16937896721820658,77.50000000000003,0,60,1.0,5,6.687461042448002e-16
6.235,0.27661303008991756,77.50000000000001,0,60,1.0,5,3.343730521224001e-16
6.24,0.4173782800009149,77.5,0,60,1.0,5,0.0
6.245,0.5818720934538056,77.5,0,60,1.0,5,0.0
6.25,0.7494718801585675,77.5,0,60,1.0,5,0.0
6.255,0.891813020752378,77.5,0,60,1.0,5,0.0
6.26,0.9800361632936612,77.5,0,60,1.0,5,0.0
6.265,0.993574479225126,77.5000024966485,1,60,1.0,5,5.874467072263702e-08
6.27,0.9263438449375362,77.50000388454893,0,60,1.0,5,9.140115132729132e-08
6.275,0.7873015962290536,77.50000618232913,0,60,1.0,5,1.454665677743726e-07
6.28,0.5959516244629897,77.5000101847726,0,60,1.0,5,2.396417083700191e-07
6.285,0.376910120078773,77.50001756083037,0,60,1.0,5,4.1319600875474007e-07
6.29,0.15739335672107918,77.50003188149957,0,60,1.0,5,7.501529309780274e-07
6.295,-0.033361226269301235,77.50006080365405,0,60,1.0,5,1.4306742129707239e-06
6.3,-0.1680180840843834,77.50012058486693,0,60,1.0,5,2.8372909866902773e-06
6.305,-0.23069703190837854,77.50024513995355,0,60,1.0,5,5.7679989070306076e-06
6.31,-0.22587267821131068,77.50050363241509,0,60,1.0,5,1.1850174472690068e-05
6.315,-0.17718181630665902,77.50103350758017,0,60,1.0,5,2.4317825415878626e-05
6.32,-0.11494332516451301,77.50210036935763,0,60,1.0,5,4.942045547375742e-05
6.325,-0.061810214049552864,77.50420258594323,0,60,1.0,5,9.888437513489087e-05
6.33,-0.026546104631500547,77.50824711533218,0,60,1.0,5,0.00019404977252192754
6.335,-0.00719600351942686,77.51583324529174,0,60,1.0,5,0.0003725469480410565
6.34,0.0022072757983807078,77.52969102922935,0,60,1.0,5,0.0006986124524554029
6.345,0.006917199873730717,77.55432766935884,0,60,1.0,5,0.0012782981025609656
6.35,0.01004859748264829,77.5969322368778,0,60,1.0,5,0.0022807585147718865
6.355,0.013037082251128167,77.66856909864642,0,60,1.0,5,0.003966331732856829
6.36,0.01645163937690478,77.78564441251984,0,60,1.0,5,0.006721045000466909
6.365,0.020526639934696615,77.97155076923681,0,60,1.0,5,0.011095312217336789
6.37,0.02539629541761738,78.2582808201053,0,60,1.0,5,0.017841901649536432
6.375,0.031171612185577933,78.68766052792253,0,60,1.0,5,0.027944953598177214
6.38,0.03795853426638131,79.31171075246023,0,60,1.0,5,0.04262848829318186
6.385,0.0458588961882057,80.19154347445966,0,60,1.0,5,0.06333043469316856
6.39,0.054966995891435555,81.39419054317591,0,60,1.0,5,0.09162801278060964
6.395,0.06536491004445595,82.9869047835598,0,60,1.0,5,0.1291036419661128
6.4,0.07711726085088699,85.02880519220997,0,60,1.0,5,0.17714835746376406
6.405,0.09026570629555215,87.56025991780172,0,60,1.0,5,0.23671199806592272
6.41,0.10482339848670268,90.59105402879193,0,60,1.0,5,0.3080248006774572
6.415,0.12076968927580028,94.08904924277502,0,60,1.0,5,0.3903305704182357
6.42,0.13804539501007884,97.97153364558193,0,60,1.0,5,0.48168314460192774
6.425,0.15654895051787066,102.10159121830677,0,60,1.0,5,0.5788609698425121
6.43,0.17613378141900526,106.29144711748273,0,60,1.0,5,0.6774458145290054
6.435,0.19660720058055794,110.31382182199403,0,60,1.0,5,0.7720899252233888
6.44,0.21773108748496234,113.92095766616347,0,60,1.0,5,0.8569637097920817
6.445,0.23922453870058807,116.86941633089845,0,60,1.0,5,0.9263392077858458
6.45,0.2607685857914563,118.94734075580467,0,60,1.0,5,0.9752315471954041
6.455,0.2820129681603682,120.0,0,60,1.0,5,1.0
6.46,0.30258482867153996,119.94936806517826,0,60,1.0,5,0.9988086603571356
6.465,0.3220990771751686,118.80431883209974,0,60,1.0,5,0.9718663254611704
6.47,0.3401700499968971,116.65961054384493,0,60,1.0,5,0.9214026010316455
6.475,0.3564239911198326,113.6838413525704,0,60,1.0,5,0.8513845024134211
6.48,0.3705118017738417,110.09852371838782,0,60,1.0,5,0.7670240874914782
6.485,0.3821214567925213,106.15190294941635,0,60,1.0,5,0.6741624223392083
6.49,0.39098947374066967,102.09182171295444,0,60,1.0,5,0.5786310991283398
6.495,0.3969108472035567,98.14171008969322,0,60,1.0,5,0.48568729622807577
6.5,0.3997469255491936,94.48278858522536,0,60,1.0,5,0.39959502553471443
6.505,0.3994308076379137,91.24411073570738,0,60,1.0,5,0.32339084084017367
6.51,0.3959699661768434,88.50051791606685,0,60,1.0,5,0.2588357156721613
6.515,0.38944595408114946,86.27727400892925,0,60,1.0,5,0.20652409432774715
6.52,0.38001120995358023,84.55931872476093,0,60,1.0,5,0.1661016170531983
6.525,0.3678831374098315,83.3028005744429,0,60,1.0,5,0.13653648410453878
6.53,0.35333577933796634,82.44675842842192,0,60,1.0,5,0.1163943159628686
6.535,0.33668953221163944,81.9233555217599,0,60,1.0,5,0.10407895345317417
6.54,0.3182994390982644,81.6657405782961,0,60,1.0,5,0.09801742537167282
6.545,0.29854265738230645,81.61324823680155,0,60,1.0,5,0.0967823114541542
6.55,0.2778057157821067,81.71414190823803,0,60,1.0,5,0.09915628019383609
6.555,0.2564721553719815,81.92639917335062,0,60,1.0,5,0.10415056878472041
6.56,0.23491109433464996,82.21715152529522,0,60,1.0,5,0.1109918005951817
6.565,0.21346717185309805,82.56136080468661,0,60,1.0,5,0.11909084246321447
6.57,0.19245222055656455,82.94020128362216,0,60,1.0,5,0.12800473608522728
6.575,0.17213889801761392,83.33947177339249,0,60,1.0,5,0.13739933584452915
6.58,0.15275638501270183,83.74822470521731,0,60,1.0,5,0.14701705188746614
6.585,0.13448814019607322,84.1576901961562,0,60,1.0,5,0.1566515340272046
6.59,0.11747159495449566,84.56049942906901,0,60,1.0,5,0.16612939833103557
6.595,0.10179958433370105,84.95017025612171,0,60,1.0,5,0.17529812367345196
6.6,0.08752324394101413,85.32080099438407,0,60,1.0,5,0.18401884692668405
6.605,0.07465606047174059,85.66691715781909,0,60,1.0,5,0.19216275665456672
6.61,0.0631787448609295,85.98342289070791,0,60,1.0,5,0.19960995036959797
6.615,0.05304460019959574,86.26561884786955,0,60,1.0,5,0.20624985524398934
6.62,0.044185078305849994,86.50925808244908,0,60,1.0,5,0.21198254311644893
6.625,0.03651525513023255,86.71061970560895,0,60,1.0,5,0.21672046366138703
6.63,0.0299390014708757,86.86658630913784,0,60,1.0,5,0.22039026609736104
6.635,0.024353677220580638,86.97471559675341,0,60,1.0,5,0.22293448462949206
6.64,0.01965423034339045,87.03329977142683,0,60,1.0,5,0.22431293579827827
6.645,0.015736632374757337,87.04140840180983,0,60,1.0,5,0.2245037271014078
6.65,0.012500627640593535,86.99891208474476,0,60,1.0,5,0.2235038137587002
6.655,0.009851811652115898,86.90648547061232,0,60,1.0,5,0.22132906989676057
6.66,0.007703084175428559,86.76558926724239,0,60,1.0,5,0.21801386511158566
6.665,0.005975544002062424,86.5784317591195,0,60,1.0,5,0.2136101590381058
6.67,0.004598905818663047,86.34791119812435,0,60,1.0,5,0.20818614583822
6.675,0.0035115256454839104,86.07754113966531,0,60,1.0,5,0.20182449740388975
6.68,0.002660121266303676,85.77136140052126,0,60,1.0,5,0.19462026824755901
6.685,0.0019992692560877024,85.43383778522907,0,60,1.0,5,0.18667853612303703
6.69,0.0014907520044639367,85.06975405182008,0,60,1.0,5,0.1781118600428255
6.695,0.0011028178277539807,84.68409975610096,0,60,1.0,5,0.16903764132002266
6.7,0.0008094059938923333,84.2819576246531,0,60,1.0,5,0.15957547352124948
6.705,0.0005893771793717645,83.86839396614698,0,60,1.0,5,0.14984456390934076
6.71,0.0004257792353490551,83.44835535165316,0,60,1.0,5,0.13996130239183913
6.715,0.0003051686392901525,83.02657439701731,0,60,1.0,5,0.13003704463570148
6.72,0.00021699992642659966,82.6074869887465,0,60,1.0,5,0.12017616444109415
6.725,0.00015308884054097838,82.19516273734413,0,60,1.0,5,0.11047441734927374
6.73,0.00010714989329311098,81.7932498483948,0,60,1.0,5,0.1010176434916422
6.735,7.440535854020571e-05,81.40493500158567,0,60,1.0,5,0.09188082356672166
6.74,5.1260276743925106e-05,81.03291824914021,0,60,1.0,5,0.08312748821506374
6.745,3.503659887882241e-05,80.6794024125245,0,60,1.0,5,0.07480946852998814
6.75,2.375894748103639e-05,80.34609599014749,0,60,1.0,5,0.06696696447405857
6.755,1.5984413869232557e-05,80.03422820440662,0,60,1.0,5,0.05962889892721451
6.76,1.0669166579899869e-05,79.74457452363798,0,60,1.0,5,0.05281351820324657
6.765,7.06526633560511e-06,79.4774907976045,0,60,1.0,5,0.04652919523775301
6.77,4.641847214699205e-06,79.23295404316598,0,60,1.0,5,0.04077538925096412
6.775,3.025641074479182e-06,79.01060790415472,0,60,1.0,5,0.035543715391875876
6.78,1.9566278676921314e-06,78.80981087682954,0,60,1.0,5,0.030819079454812815
6.785,1.2553456560008793e-06,78.62968552729907,0,60,1.0,5,0.0265808359364488
6.79,7.990660428214668e-07,78.4691671158064,0,60,1.0,5,0.022803932136621168
6.795,5.046221251618276e-07,78.32705026967079,0,60,1.0,5,0.01946000634519511
6.8,3.1616527078858815e-07,78.2020325969465,0,60,1.0,5,0.01651841404579988
6.805,1.9652884407760343e-07,78.0927543922857,0,60,1.0,5,0.013947162171428197
6.81,1.2120002189836396e-07,77.99783384238104,0,60,1.0,5,0.011713737467789209
6.815,7.415549848886236e-08,77.91589737998032,0,60,1.0,5,0.009785820705419343
6.82,4.501406988770349e-08,77.84560505434425,0,60,1.0,5,0.008131883631629347
6.825,0.0,77.78567097606587,0,60,1.0,5,0.006721670025079367
6.83,0.0,77.73487905164139,0,60,1.0,5,0.0055265659209737805
6.835,0.0,77.69209434649721,0,60,1.0,5,0.004519866976405036
6.84,0.0,77.65627050466959,0,60,1.0,5,0.0036769530510492344
6.845,0.0,77.62645371089663,0,60,1.0,5,0.0029753814328618024
6.85,0.0,77.60178370962433,0,60,1.0,5,0.0023949108146900794
6.855,0.0,77.58149239927823,0,60,1.0,5,0.0019174682183113552
6.86,0.0,77.5649005035173,0,60,1.0,5,0.001527070670995138
6.865,0.0,77.55141278863067,0,60,1.0,5,0.001209712673662847
6.87,0.0,77.5405122522104,0,60,1.0,5,0.0009532294637742379
6.875,0.0,77.53175365686594,0,60,1.0,5,0.0007471448674339974
6.88,0.0,77.5247567276939,0,60,1.0,5,0.0005825112398564242
6.885,0.0,77.51919927656837,0,60,1.0,5,0.0004517476839616981
6.89,0.0,77.51481046255032,0,60,1.0,5,0.0003484814717721212
6.895,0.0,77.51136434769356,0,60,1.0,5,0.0002673964163190088
6.9,0.0,77.50867386254117,0,60,1.0,5,0.00020409088332170916
6.905,0.0,77.50658525642717,0,60,1.0,5,0.0001549472100511112
6.91,0.0,77.50497307465665,0,60,1.0,5,0.00011701352133286491
6.915,0.0,77.50373567769842,0,60,1.0,5,8.78982987862454e-05
6.92,0.0,77.50279129638474,0,60,1.0,5,6.567756199394674e-05
6.925,0.0,77.50207460126839,0,60,1.0,5,4.88141474915317e-05
6.93,0.0,77.50153375311476,0,60,1.0,5,3.608830858250739e-05
6.935,0.0,77.50112789431837,0,60,1.0,5,2.653868984406044e-05
6.94,0.0,77.50082503712781,0,60,1.0,5,1.9412638301432976e-05
6.945,0.0,77.50060030327039,0,60,1.0,5,1.4124782832676133e-05
6.95,0.0,77.50043447026465,0,60,1.0,5,1.022282975648469e-05
6.955,0.0,77.50031278184728,0,60,1.0,5,7.35957287728899e-06
6.96,0.0,77.50022398305025,0,60,1.0,5,5.270189417588507e-06
6.965,0.0,77.50015954415629,0,60,1.0,5,3.753980147995903e-06
6.97,0.0,77.50011304172635,0,60,1.0,5,2.659805325907548e-06
6.975,0.0,77.50007966889501,0,60,1.0,5,1.8745622355709203e-06
6.98,0.0,77.50005585099808,0,60,1.0,5,1.3141411313079194e-06
6.985,0.0,77.50003894621133,0,60,1.0,5,9.163814431357263e-07
6.99,0.0,77.50002701416986,0,60,1.0,5,6.356275261008276e-07
6.995,0.0,77.50001863846614,0,60,1.0,5,4.3855214458102745e-07
7.0,0.001684486749771458,77.50001279148142,0,60,1.0,5,3.00976033512972e-07
7.005,0.003097557930867117,77.50000873219956,0,60,1.0,5,2.0546351907689635e-07
7.01,0.005475106668887023,77.5000059295071,0,60,1.0,5,1.3951781404423802e-07
7.015,0.00930222931468658,77.50000400502901,0,60,1.0,5,9.42359767631227e-08
7.02,0.01519157517868857,77.50000269082139,0,60,1.0,5,6.331344446366797e-08
7.025,0.023847336626128316,77.50000179827543,0,60,1.0,5,4.231236316092477e-08
7.03,0.0359830743700859,77.5000011954177,0,60,1.0,5,2.8127475188204484e-08
7.035,0.05218887796857759,77.50000079045161,0,60,1.0,5,1.8598861368659796e-08
7.04,0.0727577001223134,77.50000051990384,0,60,1.0,5,1.2233031424436965e-08
7.045,0.0974992498694751,77.50000034014406,0,60,1.0,5,8.003389532806229e-09
7.05,0.12558706050443358,77.50000022135784,0,60,1.0,5,5.208419692922582e-09
7.055,0.15549263588878245,77.50000014329103,0,60,1.0,5,3.3715537028911058e-09
7.06,0.1850529723539114,77.50000009226464,0,60,1.0,5,2.170932756438132e-09
7.065,0.21169159439317053,77.50000005909403,0,60,1.0,5,1.3904478718733812e-09
7.07,0.23277292922115492,77.5000000376482,0,60,1.0,5,8.858401489466333e-10
7.075,0.24602692519491282,77.50000002385815,0,60,1.0,5,5.613682172706296e-10
7.08,0.24995056064839283,77.50000001503909,0,60,1.0,5,3.538609823461978e-10
7.085,0.24408826520424054,77.50000000942971,0,60,1.0,5,2.2187557934718345e-10
7.09,0.22911894216865275,77.50000000588122,0,60,1.0,5,1.3838162511306377e-10
7.095,0.20672661788705934,77.50000000364862,0,60,1.0,5,8.58499467593741e-11
7.1,0.17928878030241233,77.50000000225155,0,60,1.0,5,5.297773200522095e-11
7.105,0.14946211903866036,77.50000000138206,0,60,1.0,5,3.25191168111119e-11
7.11,0.1197651512573837,77.50000000084385,0,60,1.0,5,1.985540620808024e-11
7.115,0.09224675744988023,77.5000000005125,0,60,1.0,5,1.2058829751742238e-11
7.12,0.06829565320281596,77.50000000030961,0,60,1.0,5,7.28498568659073e-12
7.125,0.04860224607515734,77.50000000018605,0,60,1.0,5,4.377611998386462e-12
7.13,0.03324612389699793,77.50000000011121,0,60,1.0,5,2.6168035059099033e-12
7.135,0.021859876340472782,77.50000000006612,0,60,1.0,5,1.5558378115255276e-12
7.14,0.01381595518554205,77.50000000003911,0,60,1.0,5,9.20194639440845e-13
7.145,0.008394095110402422,77.50000000002301,0,60,1.0,5,5.413499713861657e-13
7.15,0.0049052535271608,77.50000000001346,0,60,1.0,5,3.1665128035991287e-13
7.155,0.0027671663551903634,77.50000000000783,0,60,1.0,5,1.8423955171944245e-13
7.16,0.0015425553464444616,77.50000000000453,0,60,1.0,5,1.0666500362704563e-13
7.165,0.0009638206637011801,77.50000000000261,0,60,1.0,5,6.152464159052161e-14
7.17,0.0009804935156568228,77.50000000000149,0,60,1.0,5,3.510917047285201e-14
7.175,0.0018793744894085216,77.50000000000085,0,60,1.0,5,2.0062383127344007e-14
7.18,0.004535525206900863,77.50000000000048,0,60,1.0,5,1.1368683772161604e-14
7.185,0.010832767979632273,77.50000000000027,0,60,1.0,5,6.353087990325602e-15
7.19,0.024208003392322392,77.50000000000016,0,60,1.0,5,3.678103573346401e-15
7.195,0.0500971897335304,77.50000000000009,0,60,1.0,5,2.0062383127344005e-15
7.2,0.09582894921774403,77.50000000000004,0,60,1.0,5,1.0031191563672002e-15
7.205,0.16937896721820658,77.50000000000003,0,60,1.0,5,6.687461042448002e-16
7.21,0.27661303008991756,77.50000000000001,0,60,1.0,5,3.343730521224001e-16
7.215,0.4173782800009149,77.50000000000001,0,60,1.0,5,3.343730521224001e-16
7.22,0.5818720934538056,77.5,0,60,1.0,5,0.0
7.225,0.7494718801585675,77.5,0,60,1.0,5,0.0
7.23,0.891813020752378,77.5,0,60,1.0,6,0.0
7.235,0.9800361632936612,77.5,0,60,1.0,6,0.0
7.24,0.993574479225126,77.50000249065474,1,60,1.0,6,5.860364086295115e-08
7.245,0.9263438449375362,77.50000381481783,0,60,1.0,6,8.976041954156244e-08
7.25,0.7873015962290536,77.50000596523532,0,60,1.0,6,1.4035847805323155e-07
7.255,0.5959516244629897,77.50000962503476,0,60,1.0,6,2.2647140620874244e-07
7.26,0.376910120078773,77.50001618917643,0,60,1.0,6,3.809217984700594e-07
7.265,0.15739335672107918,77.5000285614158,0,60,1.0,6,6.720333130140395e-07
7.27,-0.033361226269301235,77.50005280883279,0,60,1.0,6,1.2425607715559796e-06
7.275,-0.1680180840843834,77.50010151190543,0,60,1.0,6,2.388515421818524e-06
7.28,-0.23069703190837854,77.50020036214238,0,60,1.0,6,4.714403350108649e-06
7.285,-0.22587267821131068,77.50040077561245,0,60,1.0,6,9.430014410541202e-06
7.29,-0.17718181630665902,77.50080326727193,0,60,1.0,6,1.8900406398442475e-05
7.295,-0.11494332516451301,77.50159937912407,0,60,1.0,6,3.763244997819182e-05
7.3,-0.061810214049552864,77.50314438198903,0,60,1.0,6,7.398545856544308e-05
7.305,-0.026546104631500547,77.5060789517361,0,60,1.0,6,0.00014303415849647481
7.31,-0.00719600351942686,77.5115253796782,0,60,1.0,6,0.00027118540419304043
7.315,0.0022072757983807078,77.5213917627598,0,60,1.0,6,0.0005033355943483537
7.32,0.006917199873730717,77.53882411894206,0,60,1.0,6,0.0009135086809896406
7.325,0.01004859748264829,77.56884815932884,0,60,1.0,6,0.0016199566900902884
7.33,0.013037082251128167,77.6192346558676,0,60,1.0,6,0.002805521314531782
7.335,0.01645163937690478,77.70159894500465,0,60,1.0,6,0.004743504588344649
7.34,0.020526639934696615,77.83270008287926,0,60,1.0,6,0.007828237244217797
7.345,0.02539629541761738,78.03583465142736,0,60,1.0,6,0.012607874151232115
7.35,0.031171612185577933,78.34212553437393,0,60,1.0,6,0.019814718455857288
7.355,0.03795853426638131,78.79139701937089,0,60,1.0,6,0.030385812220491543
7.36,0.0458588961882057,79.43222533468237,0,60,1.0,6,0.045464125521938153
7.365,0.054966995891435555,80.32069048739088,0,60,1.0,6,0.06636918793860887
7.37,0.06536491004445595,81.5173707975343,0,60,1.0,6,0.09452637170668936
7.375,0.07711726085088699,83.08225427174436,0,60,1.0,6,0.13134715933516145
7.38,0.09026570629555215,85.06751487992965,0,60,1.0,6,0.17805917364540344
7.385,0.10482339848670268,87.50851138218808,0,60,1.0,6,0.23549438546324883
7.39,0.12076968927580028,90.41386466435996,0,60,1.0,6,0.3038556391614109
7.395,0.13804539501007884,93.75596504105044,0,60,1.0,6,0.38249329508353985
7.4,0.15654895051787066,97.4636280918179,0,60,1.0,6,0.4697324256898328
7.405,0.17613378141900526,101.41872257270964,0,60,1.0,6,0.5627934722990504
7.41,0.19660720058055794,105.45833242352343,0,60,1.0,6,0.6578431158476101
7.415,0.21773108748496234,109.38335163215552,0,60,1.0,6,0.7501965089918947
7.42,0.23922453870058807,112.9734084393601,0,60,1.0,6,0.8346684338672965
7.425,0.2607685857914563,116.00683982528938,0,60,1.0,6,0.9060432900068088
7.43,0.2820129681603682,118.28333120453613,0,60,1.0,6,0.9596077930479089
7.435,0.30258482867153996,119.646064803065,0,60,1.0,6,0.9916721130132942
7.44,0.3220990771751686,120.0,0,60,1.0,6,1.0
7.445,0.3401700499968971,119.32334270778719,0,60,1.0,6,0.9840786519479339
7.45,0.3564239911198326,117.6702984466819,0,60,1.0,6,0.9451834928631034
7.455,0.3705118017738417,115.1646448291192,0,60,1.0,6,0.8862269371557459
7.46,0.3821214567925213,111.9851997850634,0,60,1.0,6,0.8114164655309035
7.465,0.39098947374066967,108.34557221481842,0,60,1.0,6,0.7257781697604334
7.47,0.3969108472035567,104.47139174943496,0,60,1.0,6,0.634620982339646
7.475,0.3997469255491936,100.57838099842344,0,60,1.0,6,0.5430207293746692
7.48,0.3994308076379137,96.85417087272945,0,60,1.0,6,0.45539225582892834
7.485,0.3959699661768434,93.44582268957237,0,60,1.0,6,0.37519582798993806
7.49,0.38944595408114946,90.45385471397468,0,60,1.0,6,0.30479658150528655
7.495,0.38001120995358023,87.93243962502166,0,60,1.0,6,0.24546916764756843
7.5,0.3678831374098315,85.89455992933536,0,60,1.0,6,0.19751905716083196
7.505,0.35333577933796634,84.32040601189054,0,60,1.0,6,0.160480141456248
7.51,0.33668953221163944,83.16719725117376,0,60,1.0,6,0.13334581767467674
7.515,0.3182994390982644,82.37883285219493,0,60,1.0,6,0.114796067110469
7.52,0.29854265738230645,81.89421459224894,0,60,1.0,6,0.10339328452350455
7.525,0.2778057157821067,81.65359406235096,0,60,1.0,6,0.09773162499649321
7.53,0.2564721553719815,81.60276811068044,0,60,1.0,6,0.09653572025130455
7.535,0.23491109433464996,81.6953041114732,0,60,1.0,6,0.0987130379170166
7.54,0.21346717185309805,81.89319219750705,0,60,1.0,6,0.10336922817663642
7.545,0.19245222055656455,82.16640283127366,0,60,1.0,6,0.10979771367702724
7.55,0.17213889801761392,82.49180664386697,0,60,1.0,6,0.11745427397334036
7.555,0.15275638501270183,82.85182970057085,0,60,1.0,6,0.12592540471931402
7.56,0.13448814019607322,83.23310877819486,0,60,1.0,6,0.13489667713399672
7.565,0.11747159495449566,83.62530580186197,0,60,1.0,6,0.14412484239675222
7.57,0.10179958433370105,84.02015461343919,0,60,1.0,6,0.15341540266915737
7.575,0.08752324394101413,84.41075278688982,0,60,1.0,6,0.1626059479268192
7.58,0.07465606047174059,84.79107511020709,0,60,1.0,6,0.17155470847546092
7.585,0.0631787448609295,85.15566858139451,0,60,1.0,6,0.18013337838575313
7.59,0.05304460019959574,85.49948511358731,0,60,1.0,6,0.18822317914323086
7.595,0.044185078305849994,85.81781198508382,0,60,1.0,6,0.19571322317844286
7.6,0.03651525513023255,86.1062671685372,0,60,1.0,6,0.2025004039655812
7.605,0.0299390014708757,86.36083432317702,0,60,1.0,6,0.20849021936887097
7.61,0.024353677220580638,86.57791901100559,0,60,1.0,6,0.21359809437660213
7.615,0.01965423034339045,86.75441307651025,0,60,1.0,6,0.21775089591788815
7.62,0.015736632374757337,86.88775811124916,0,60,1.0,6,0.22088842614703896
7.625,0.012500627640593535,86.97600175641713,0,60,1.0,6,0.2229647472098149
7.63,0.009851811652115898,87.017842589161,0,60,1.0,6,0.2239492373920237
7.635,0.007703084175428559,87.012660771883,0,60,1.0,6,0.22382731227960015
7.64,0.005975544002062424,86.96053273007563,0,60,1.0,6,0.22260077011942653
7.645,0.004598905818663047,86.86222900437889,0,60,1.0,6,0.2202877412795033
7.65,0.0035115256454839104,86.719195178689,0,60,1.0,6,0.21692223949856484
7.655,0.002660121266303676,86.53351645798008,0,60,1.0,6,0.21255332842306082
7.66,0.0019992692560877024,86.30786706938648,0,60,1.0,6,0.20724393104438765
7.665,0.0014907520044639367,86.04544618487417,0,60,1.0,6,0.2010693219970392
7.67,0.0011028178277539807,85.74990250322291,0,60,1.0,6,0.19411535301700972
7.675,0.0008094059938923333,85.42524997119911,0,60,1.0,6,0.18647646991056724
7.68,0.0005893771793717645,85.0757773587906,0,60,1.0,6,0.17825358491272006
7.685,0.0004257792353490551,84.70595452519278,0,60,1.0,6,0.1695518711810066
7.69,0.0003051686392901525,84.32033821979824,0,60,1.0,6,0.160478546348194
7.695,0.00021699992642659966,83.92348015988665,0,60,1.0,6,0.1511407096443918
7.7,0.00015308884054097838,83.51983992315786,0,60,1.0,6,0.1416432923095967
7.705,0.00010714989329311098,83.11370490220835,0,60,1.0,6,0.13208717416960833
7.71,7.440535854020571e-05,82.70911920653026,0,60,1.0,6,0.12256751074188849
7.715,5.1260276743925106e-05,82.30982298507394,0,60,1.0,6,0.11317230553115143
7.72,3.503659887882241e-05,81.91920319962112,0,60,1.0,6,0.10398125175579112
7.725,2.375894748103639e-05,81.5402564270607,0,60,1.0,6,0.09506485710731052
7.73,1.5984413869232557e-05,81.1755638270808,0,60,1.0,6,0.0864838547548422
7.735,1.0669166579899869e-05,80.82727799879292,0,60,1.0,6,0.07828889408924523
7.74,7.06526633560511e-06,80.49712108066727,0,60,1.0,6,0.07052049601570047
7.745,4.641847214699205e-06,80.18639313486506,0,60,1.0,6,0.06320925023211899
7.75,3.025641074479182e-06,79.89598960793784,0,60,1.0,6,0.05637622606912554
7.755,1.9566278676921314e-06,79.6264264795071,0,60,1.0,6,0.050033564223696536
7.76,1.2553456560008793e-06,79.37787159987418,0,60,1.0,6,0.04418521411468666
7.765,7.990660428214668e-07,79.15018067413585,0,60,1.0,6,0.03882778056790244
7.77,5.046221251618276e-07,78.94293636900822,0,60,1.0,6,0.03395144397666406
7.775,3.1616527078858815e-07,78.75548909159917,0,60,1.0,6,0.029540919802333494
7.78,1.9652884407760343e-07,78.58699810755667,0,60,1.0,6,0.025576426060156872
7.785,1.2120002189836396e-07,78.43647181909245,0,60,1.0,6,0.022034631037469325
7.79,7.415549848886236e-08,78.30280620070539,0,60,1.0,6,0.018889557663656246
7.795,4.501406988770349e-08,78.18482058158935,0,60,1.0,6,0.01611342544916116
7.8,0.0,78.08129015900583,0,60,1.0,6,0.01367741550601957
7.805,0.0,77.99097481773615,0,60,1.0,6,0.011552348652615178
7.81,0.0,77.91264400989799,0,60,1.0,6,0.00970927082112914
7.815,0.0,77.84509761126496,0,60,1.0,6,0.008119943794469679
7.82,0.0,77.7871828107303,0,60,1.0,6,0.00675724260541883
7.825,0.0,77.73780720624384,0,60,1.0,6,0.005595463676325728
7.83,0.0,77.69594837242065,0,60,1.0,6,0.004610549939309294
7.835,0.0,77.66066023234221,0,60,1.0,6,0.0037802407609931646
7.84,0.0,77.63107661018051,0,60,1.0,6,0.00308415553365916
7.845,0.0,77.60641236432045,0,60,1.0,6,0.0025038203369517225
7.85,0.0,77.58596250536276,0,60,1.0,6,0.002022647185006075
7.855,0.0,77.56909969282334,0,60,1.0,6,0.0016258751252551332
7.86,0.0,77.55527048169948,0,60,1.0,6,0.0013004819223407166
7.865,0.0,77.54399065849753,0,60,1.0,6,0.0010350743175890516
7.87,0.0,77.53483996875943,0,60,1.0,6,0.0008197639708100724
7.875,0.0,77.52745649724005,0,60,1.0,6,0.0006460352291777086
7.88,0.0,77.52153091995265,0,60,1.0,6,0.000506609881238894
7.885,0.0,77.51680080618708,0,60,1.0,6,0.00039531308675477437
7.89,0.0,77.51304510977057,0,60,1.0,6,0.0003069437593076012
7.895,0.0,77.51007895333593,0,60,1.0,6,0.00023715184319846283
7.9,0.0,77.50774877787383,0,60,1.0,6,0.00018232418526655932
7.905,0.0,77.50592790273667,0,60,1.0,6,0.00013948006439230032
7.91,0.0,77.50451251862505,0,60,1.0,6,0.00010617690882467662
7.915,0.0,77.50341811780184,0,60,1.0,6,8.042630121983219e-05
7.92,0.0,77.50257635156204,0,60,1.0,6,6.062003675390984e-05
7.925,0.0,77.50193229444417,0,60,1.0,6,4.5465751627622974e-05
7.93,0.0,77.50144208734422,0,60,1.0,6,3.3931466922735235e-05
7.935,0.0,77.5010709270944,0,60,1.0,6,2.519828457419702e-05
7.94,0.0,77.50079136771336,0,60,1.0,6,1.862041678497703e-05
7.945,0.0,77.50058189795325,0,60,1.0,6,1.3691716547140567e-05
7.95,0.0,77.50042576054396,0,60,1.0,6,1.0017895152045373e-05
7.955,0.0,77.5003099802863,0,60,1.0,6,7.293653795373115e-06
7.96,0.0,77.50022457055825,0,60,1.0,6,5.284013135183962e-06
7.965,0.0,77.5001618906037,0,60,1.0,6,3.809190675450308e-06
7.97,0.0,77.5001161289628,0,60,1.0,6,2.7324461835659724e-06
7.975,0.0,77.50008289141098,0,60,1.0,6,1.950386140780371e-06
7.98,0.0,77.5000588746852,0,60,1.0,6,1.3852867104614074e-06
7.985,0.0,77.50004161000271,0,60,1.0,6,9.7905888731689e-07
7.99,0.0,77.50002926287357,0,60,1.0,6,6.885382015966838e-07
7.995,0.0,77.50002047794057,0,60,1.0,6,4.818338956791943e-07
8.0,0.0,77.50001425954493,0,60,1.0,6,3.3551870414532246e-07
8.005,0.0,77.50000988041381,0,60,1.0,6,2.3248032501963763e-07
8.01,0.001684486749771458,77.5000068123144,0,60,1.0,6,1.6028975049748088e-07
8.015,0.003097557930867117,77.50000467373745,0,60,1.0,6,1.0997029295033237e-07
8.02,0.005475106668887023,77.50000319068567,0,60,1.0,6,7.507495705367012e-08
8.025,0.00930222931468658,77.50000216747358,0,60,1.0,6,5.099937839879524e-08
8.03,0.01519157517868857,77.50000146512164,0,60,1.0,6,3.447345039496534e-08
8.035,0.023847336626128316,77.50000098547052,0,60,1.0,6,2.318754167497579e-08
8.04,0.0359830743700859,77.50000065957421,0,60,1.0,6,1.5519393226735273e-08
8.045,0.05218887796857759,77.50000043927226,0,60,1.0,6,1.0335817785958438e-08
8.05,0.0727577001223134,77.50000029110788,0,60,1.0,6,6.849597197929945e-09
8.055,0.0974992498694751,77.50000019196597,0,60,1.0,6,4.516846274782438e-09
8.06,0.12558706050443358,77.50000012596347,0,60,1.0,6,2.963846287350273e-09
8.065,0.15549263588878245,77.50000008224605,0,60,1.0,6,1.9352010921840486e-09
8.07,0.1850529723539114,77.5000000534362,0,60,1.0,6,1.2573222567666295e-09
8.075,0.21169159439317053,77.50000003454666,0,60,1.0,6,8.128625615748152e-10
8.08,0.23277292922115492,77.50000002222423,0,60,1.0,6,5.229230068567524e-10
8.085,0.24602692519491282,77.50000001422649,0,60,1.0,6,3.3474086247973474e-10
8.09,0.24995056064839283,77.50000000906188,0,60,1.0,6,2.1322066726604723e-10
8.095,0.24408826520424054,77.50000000574367,0,60,1.0,6,1.3514522834157106e-10
8.1,0.22911894216865275,77.50000000362252,0,60,1.0,6,8.523570346262525e-11
8.105,0.20672661788705934,77.50000000227342,0,60,1.0,6,5.349233213243732e-11
8.11,0.17928878030241233,77.50000000141972,0,60,1.0,6,3.3405205399236256e-11
8.115,0.14946211903866036,77.50000000088221,0,60,1.0,6,2.0757879075758598e-11
8.12,0.1197651512573837,77.5000000005455,0,60,1.0,6,1.283524397877045e-11
8.125,0.09224675744988023,77.50000000033563,0,60,1.0,6,7.897222745026846e-12
8.13,0.06829565320281596,77.50000000020549,0,60,1.0,6,4.8350343336899055e-12
8.135,0.04860224607515734,77.50000000012518,0,60,1.0,6,2.9454922161462225e-12
8.14,0.03324612389699793,77.50000000007589,0,60,1.0,6,1.7855520983336164e-12
8.145,0.021859876340472782,77.50000000004577,0,60,1.0,6,1.0770156008862506e-12
8.15,0.01381595518554205,77.50000000002747,0,60,1.0,6,6.463431097525994e-13
8.155,0.008394095110402422,77.50000000001641,0,60,1.0,6,3.862008752013721e-13
8.16,0.0049052535271608,77.50000000000975,0,60,1.0,6,2.2937991375596645e-13
8.165,0.0027671663551903634,77.50000000000577,0,60,1.0,6,1.3575545916169443e-13
8.17,0.0015425553464444616,77.5000000000034,0,60,1.0,6,7.991515945725361e-14
8.175,0.0009638206637011801,77.50000000000199,0,60,1.0,6,4.681222729713601e-14
8.18,0.0009804935156568228,77.50000000000115,0,60,1.0,6,2.7084217221914406e-14
8.185,0.0018793744894085216,77.50000000000067,0,60,1.0,6,1.5715533449752805e-14
8.19,0.004535525206900863,77.50000000000038,0,60,1.0,6,9.028072407304802e-15
8.195,0.010832767979632273,77.50000000000023,0,60,1.0,6,5.349968833958401e-15
8.2,0.024208003392322392,77.50000000000013,0,60,1.0,6,3.0093574691016007e-15
8.205,0.0500971897335304,77.50000000000007,0,60,1.0,6,1.6718652606120004e-15
8.21,0.09582894921774403,77.50000000000004,0,60,1.0,6,1.0031191563672002e-15
8.215,0.16937896721820658,77.50000000000003,0,60,1.0,6,6.687461042448002e-16
8.22,0.27661303008991756,77.50000000000001,0,60,1.0,6,3.343730521224001e-16
8.225,0.4173782800009149,77.5,0,60,1.0,6,0.0
8.23,0.5818720934538056,77.5,0,60,1.0,6,0.0
8.235,0.7494718801585675,77.5,0,60,1.0,6,0.0
8.24,0.891813020752378,77.5,0,60,1.0,6,0.0
8.245,0.9800361632936612,77.5,0,60,1.0,6,0.0
8.25,0.993574479225126,77.50000249060646,1,60,1.0,6,5.860250499769309e-08
8.255,0.9263438449375362,77.50000385734029,0,60,1.0,6,9.076094797552179e-08
8.26,0.7873015962290536,77.50000610730334,0,60,1.0,6,1.437012549425109e-07
8.265,0.5959516244629897,77.50000999976028,0,60,1.0,6,2.3528847718272813e-07
8.27,0.376910120078773,77.50001711607312,0,60,1.0,6,4.027311323331078e-07
8.275,0.15739335672107918,77.5000308127143,0,60,1.0,6,7.250050423542288e-07
8.28,-0.033361226269301235,77.50005823243188,0,60,1.0,6,1.3701748678292514e-06
8.285,-0.1680180840843834,77.50011443699209,0,60,1.0,6,2.6926351080526407e-06
8.29,-0.23069703190837854,77.50023065316174,0,60,1.0,6,5.427133217327697e-06
8.295,-0.22587267821131068,77.50047021644501,0,60,1.0,6,1.106391635316333e-05
8.3,-0.17718181630665902,77.5009583966,0,60,1.0,6,2.255050823524631e-05
8.305,-0.11494332516451301,77.50193629964134,0,60,1.0,6,4.5559991561022426e-05
8.31,-0.061810214049552864,77.50385483894526,0,60,1.0,6,9.07020928296146e-05
8.315,-0.026546104631500547,77.50753250751332,0,60,1.0,6,0.0001772354709015979
8.32,-0.00719600351942686,77.51440996954433,0,60,1.0,6,0.00033905810692544944
8.325,0.0022072757983807078,77.52694391670826,0,60,1.0,6,0.0006339745107826435
8.33,0.006917199873730717,77.54918926053296,0,60,1.0,6,0.0011573943654813025
8.335,0.01004859748264829,77.5876176648087,0,60,1.0,6,0.0020615921131459745
8.34,0.013037082251128167,77.65220482613245,0,60,1.0,6,0.003581290026645815
8.345,0.01645163937690478,77.7577808422973,0,60,1.0,6,0.006065431583465732
8.35,0.020526639934696615,77.92557045679185,0,60,1.0,6,0.010013422512749311
8.355,0.02539629541761738,78.1847502601857,0,60,1.0,6,0.016111770827898695
8.36,0.031171612185577933,78.57372412531626,0,60,1.0,6,0.02526409706626496
8.365,0.03795853426638131,79.14068530680169,0,60,1.0,6,0.038604360160039666
8.37,0.0458588961882057,79.94292800606925,0,60,1.0,6,0.05748065896633534
8.375,0.054966995891435555,81.0443400664048,0,60,1.0,6,0.08339623685658352
8.38,0.06536491004445595,82.51060356247285,0,60,1.0,6,0.11789655441112593
8.385,0.07711726085088699,84.4018923138275,0,60,1.0,6,0.16239746620770595
8.39,0.09026570629555215,86.76329520888174,0,60,1.0,6,0.2179598872678057
8.395,0.10482339848670268,89.61377301640115,0,60,1.0,6,0.28502995332708597
8.4,0.12076968927580028,92.93507670582724,0,60,1.0,6,0.3631782754312292
8.405,0.13804539501007884,96.66256820647882,0,60,1.0,6,0.45088395779950174
8.41,0.15654895051787066,100.68011755916041,0,60,1.0,6,0.5454145308037743
8.415,0.17613378141900526,104.82105425803283,0,60,1.0,6,0.6428483354831255
8.42,0.19660720058055794,108.8764532668383,0,60,1.0,6,0.7382694886314893
8.425,0.21773108748496234,112.61088723201624,0,60,1.0,6,0.8261385231062645
8.43,0.23922453870058807,115.78436216317712,0,60,1.0,6,0.9008085214865205
8.435,0.2607685857914563,118.1777713622895,0,60,1.0,7,0.9571240320538708
8.44,0.2820129681603682,119.61819191512663,0,60,1.0,7,0.9910162803559207
8.445,0.30258482867153996,120.0,0,60,1.0,7,1.0
8.45,0.3220990771751686,119.29824545748835,0,60,1.0,7,0.9834881284114906
8.455,0.3401700499968971,117.5719546188641,0,60,1.0,7,0.9428695204438611
8.46,0.3564239911198326,114.95677661133668,0,60,1.0,7,0.8813359202667453
8.465,0.3705118017738417,111.64826619736436,0,60,1.0,7,0.8034886164085733
8.47,0.3821214567925213,107.87868369700878,0,60,1.0,7,0.7147925575766773
8.475,0.39098947374066967,103.89114672130673,0,60,1.0,7,0.6209681581483936
8.48,0.3969108472035567,99.91511507625712,0,60,1.0,7,0.5274144723825206
8.485,0.3997469255491936,96.14656082953842,0,60,1.0,7,0.4387426077538451
8.49,0.3994308076379137,92.73498319976926,0,60,1.0,7,0.3584701929357473
8.495,0.3959699661768434,89.77799372275705,0,60,1.0,7,0.2888939699472246
8.5,0.38944595408114946,87.32285486110474,0,60,1.0,7,0.23112599673187634
8.505,0.38001120995358023,85.37336529966561,0,60,1.0,7,0.185255654109779
8.51,0.3678831374098315,83.89998207819981,0,60,1.0,7,0.15058781360470147
8.515,0.35333577933796634,82.8510525309259,0,60,1.0,7,0.125907118374727
8.52,0.33668953221163944,82.16338984647568,0,60,1.0,7,0.10972681991707485
8.525,0.3182994390982644,81.7710004035094,0,60,1.0,7,0.10049412714139776
8.53,0.29854265738230645,81.61139076399436,0,60,1.0,7,0.0967386062116321
8.535,0.2778057157821067,81.62941598109197,0,60,1.0,7,0.0971627289668698
8.54,0.2564721553719815,81.7790040818856,0,60,1.0,7,0.1006824489855436
8.545,0.23491109433464996,82.02328621441396,0,60,1.0,7,0.1064302638685637
8.55,0.21346717185309805,82.33370255304422,0,60,1.0,7,0.1137341777186875
8.555,0.19245222055656455,82.68858789463043,0,60,1.0,7,0.12208442105012778
8.56,0.17213889801761392,83.07161944197627,0,60,1.0,7,0.13109692804650042
8.565,0.15275638501270183,83.47037548139828,0,60,1.0,7,0.1404794230917242
8.57,0.13448814019607322,83.87513591955003,0,60,1.0,7,0.1500031981070596
8.575,0.11747159495449566,84.27796761085855,0,60,1.0,7,0.15948159084373068
8.58,0.10179958433370105,84.67208126420148,0,60,1.0,7,0.16875485327532896
8.585,0.08752324394101413,85.05141767098016,0,60,1.0,7,0.17768041578776841
8.59,0.07465606047174059,85.41041137477472,0,60,1.0,7,0.18612732646528765
8.595,0.0631787448609295,85.74388204533,0,60,1.0,7,0.1939736951842352
8.6,0.05304460019959574,86.0470116192692,0,60,1.0,7,0.20110615574751056
8.605,0.044185078305849994,86.31537463568876,0,60,1.0,7,0.20742057966326483
8.61,0.03651525513023255,86.54499785256412,0,60,1.0,7,0.21282347888386172
8.615,0.0299390014708757,86.73243223546459,0,60,1.0,7,0.21723369965799025
8.62,0.024353677220580638,86.87482563242001,0,60,1.0,7,0.2205841325275297
8.625,0.01965423034339045,86.96998815607745,0,60,1.0,7,0.22282325073123407
8.63,0.015736632374757337,87.01644488029292,0,60,1.0,7,0.22391635012453937
8.635,0.012500627640593535,87.01347229325384,0,60,1.0,7,0.22384640690009036
8.64,0.009851811652115898,86.96111631870204,0,60,1.0,7,0.22261450161651858
8.645,0.007703084175428559,86.86019081224607,0,60,1.0,7,0.22023978381755469
8.65,0.005975544002062424,86.7122563730027,0,60,1.0,7,0.21675897348241652
8.655,0.004598905818663047,86.51958013614413,0,60,1.0,7,0.21222541496809713
8.66,0.0035115256454839104,86.28507794654647,0,60,1.0,7,0.2067077163893286
8.665,0.002660121266303676,86.01224095394758,0,60,1.0,7,0.20028802244582547
8.67,0.0019992692560877024,85.7050492026738,0,60,1.0,7,0.19305998123938367
8.675,0.0014907520044639367,85.36787519896696,0,60,1.0,7,0.18512647526981074
8.68,0.0011028178277539807,85.00538071378118,0,60,1.0,7,0.1765971932654395
8.685,0.0008094059938923333,84.6224102114667,0,60,1.0,7,0.1675861226227459
8.69,0.0005893771793717645,84.22388428441178,0,60,1.0,7,0.15820904198615957
8.695,0.0004257792353490551,83.81469632673434,0,60,1.0,7,0.14858109004080788
8.7,0.0003051686392901525,83.39961540923211,0,60,1.0,7,0.13881448021722617
8.705,0.00021699992642659966,82.98319794133803,0,60,1.0,7,0.1290164221491302
8.71,0.00015308884054097838,82.5697102464525,0,60,1.0,7,0.11928729991652945
8.715,0.00010714989329311098,82.16306366028918,0,60,1.0,7,0.10971914494798077
8.72,7.440535854020571e-05,81.76676321464303,0,60,1.0,7,0.10039442857983612
8.725,5.1260276743925106e-05,81.3838704178972,0,60,1.0,7,0.09138518630346351
8.73,3.503659887882241e-05,81.01698011357695,0,60,1.0,7,0.08275247326063409
8.735,2.375894748103639e-05,80.66821091136433,0,60,1.0,7,0.07454613909092533
8.74,1.5984413869232557e-05,80.33920825933811,0,60,1.0,7,0.06680490021972017
8.745,1.0669166579899869e-05,80.03115887537963,0,60,1.0,7,0.059556679420697214
8.75,7.06526633560511e-06,79.74481498835964,0,60,1.0,7,0.052819176196697314
8.755,4.641847214699205e-06,79.48052665965687,0,60,1.0,7,0.0466006272860441
8.76,3.025641074479182e-06,79.23828036186586,0,60,1.0,7,0.0409007143968438
8.765,1.9566278676921314e-06,79.01774197921334,0,60,1.0,7,0.03571157598149037
8.77,1.2553456560008793e-06,78.8183024547782,0,60,1.0,7,0.03101888128889895
8.775,7.990660428214668e-07,78.6391244320625,0,60,1.0,7,0.02680292781323534
8.78,5.046221251618276e-07,78.47918841005006,0,60,1.0,7,0.023039727295295454
8.785,3.1616527078858815e-07,78.3373371380437,0,60,1.0,7,0.019702050306910437
8.79,1.9652884407760343e-07,78.21231720572483,0,60,1.0,7,0.016760404840584227
8.795,1.2120002189836396e-07,78.10281702217611,0,60,1.0,7,0.014183929933555566
8.8,7.415549848886236e-08,78.00750061349781,0,60,1.0,7,0.011941190905830849
8.805,4.501406988770349e-08,77.92503689230902,0,60,1.0,7,0.010000868054329965
8.81,0.0,77.85412425603842,0,60,1.0,7,0.008332335436198064
8.815,0.0,77.79351054877074,0,60,1.0,7,0.006906130559311537
8.82,0.0,77.74200856992353,0,60,1.0,7,0.005694319292318288
8.825,0.0,77.69850743053568,0,60,1.0,7,0.004670763071427874
8.83,0.0,77.66198014454383,0,60,1.0,7,0.003811297518678416
8.835,0.0,77.63148789963498,0,60,1.0,7,0.0030938329325876754
8.84,0.0,77.60618148274689,0,60,1.0,7,0.0024983878293386064
8.845,0.0,77.58530034248456,0,60,1.0,7,0.0020070668819896047
8.85,0.0,77.56816975854922,0,60,1.0,7,0.0016039943188051143
