Time,ECG,Pressure,R_Peaks,mean_hr,hrv_scale,Phase_Bin,Normalized_Pressure
0.0,0.001684486749771458,77.5,0,60,1.0,0,0.0
0.005,0.003097557930867117,77.5,0,60,1.0,0,0.0
0.01,0.005475106668887023,77.5,0,60,1.0,0,0.0
0.015,0.00930222931468658,77.5,0,60,1.0,0,0.0
0.02,0.01519157517868857,77.5,0,60,1.0,0,0.0
0.025,0.023847336626128316,77.5,0,60,1.0,0,0.0
0.03,0.0359830743700859,77.5,0,60,1.0,0,0.0
0.035,0.05218887796857759,77.5,0,60,1.0,0,0.0
0.04,0.0727577001223134,77.5,0,60,1.0,0,0.0
0.045,0.0974992498694751,77.5,0,60,1.0,0,0.0
0.05,0.12558706050443358,77.5,0,60,1.0,0,0.0
0.055,0.15549263588878245,77.5,0,60,1.0,0,0.0
0.06,0.1850529723539114,77.5,0,60,1.0,0,0.0
0.065,0.21169159439317053,77.5,0,60,1.0,0,0.0
0.07,0.23277292922115492,77.5,0,60,1.0,0,0.0
0.075,0.24602692519491282,77.5,0,60,1.0,0,0.0
0.08,0.24995056064839283,77.5,0,60,1.0,0,0.0
0.085,0.24408826520424054,77.5,0,60,1.0,0,0.0
0.09,0.22911894216865275,77.5,0,60,1.0,0,0.0
0.095,0.20672661788705934,77.5,0,60,1.0,0,0.0
0.1,0.17928878030241233,77.5,0,60,1.0,0,0.0
0.105,0.14946211903866036,77.5,0,60,1.0,0,0.0
0.11,0.1197651512573837,77.5,0,60,1.0,0,0.0
0.115,0.09224675744988023,77.5,0,60,1.0,0,0.0
0.12,0.06829565320281596,77.5,0,60,1.0,0,0.0
0.125,0.04860224607515734,77.5,0,60,1.0,0,0.0
0.13,0.03324612389699793,77.5,0,60,1.0,0,0.0
0.135,0.021859876340472782,77.5,0,60,1.0,0,0.0
0.14,0.01381595518554205,77.5,0,60,1.0,0,0.0
0.145,0.008394095110402422,77.5,0,60,1.0,0,0.0
0.15,0.0049052535271608,77.5,0,60,1.0,0,0.0
0.155,0.0027671663551903634,77.5,0,60,1.0,0,0.0
0.16,0.0015425553464444616,77.5,0,60,1.0,0,0.0
0.165,0.0009638206637011801,77.5,0,60,1.0,0,0.0
0.17,0.0009804935156568228,77.5,0,60,1.0,0,0.0
0.175,0.0018793744894085216,77.5,0,60,1.0,0,0.0
0.18,0.004535525206900863,77.5,0,60,1.0,0,0.0
0.185,0.010832767979632273,77.5,0,60,1.0,0,0.0
0.19,0.024208003392322392,77.5,0,60,1.0,0,0.0
0.195,0.0500971897335304,77.5,0,60,1.0,0,0.0
0.2,0.09582894921774403,77.5,0,60,1.0,0,0.0
0.205,0.16937896721820658,77.5,0,60,1.0,0,0.0
0.21,0.27661303008991756,77.5,0,60,1.0,0,0.0
0.215,0.4173782800009149,77.5,0,60,1.0,0,0.0
0.22,0.5818720934538056,77.5,0,60,1.0,0,0.0
0.225,0.7494718801585675,77.5,0,60,1.0,0,0.0
0.23,0.891813020752378,77.5,0,60,1.0,0,0.0
0.235,0.9800361632936612,77.5,0,60,1.0,0,0.0
0.24,0.993574479225126,77.5,0,60,1.0,0,0.0
0.245,0.9263438449375362,77.5,0,60,1.0,0,0.0
0.25,0.7873015962290536,77.5,0,60,1.0,0,0.0
0.255,0.5959516244629897,77.5,0,60,1.0,0,0.0
0.26,0.376910120078773,77.5,0,60,1.0,0,0.0
0.265,0.15739335672107918,77.5,0,60,1.0,0,0.0
0.27,-0.033361226269301235,77.5,0,60,1.0,0,0.0
0.275,-0.1680180840843834,77.5,0,60,1.0,0,0.0
0.28,-0.23069703190837854,77.5,0,60,1.0,0,0.0
0.285,-0.22587267821131068,77.5,0,60,1.0,0,0.0
0.29,-0.17718181630665902,77.5,0,60,1.0,0,0.0
0.295,-0.11494332516451301,77.5,0,60,1.0,0,0.0
0.3,-0.061810214049552864,77.5,0,60,1.0,0,0.0
0.305,-0.026546104631500547,77.5,0,60,1.0,0,0.0
0.31,-0.00719600351942686,77.5,0,60,1.0,0,0.0
0.315,0.0022072757983807078,77.5,0,60,1.0,0,0.0
0.32,0.006917199873730717,77.5,0,60,1.0,0,0.0
0.325,0.01004859748264829,77.5,0,60,1.0,0,0.0
0.33,0.013037082251128167,77.5,0,60,1.0,0,0.0
0.335,0.01645163937690478,77.5,0,60,1.0,0,0.0
0.34,0.020526639934696615,77.5,0,60,1.0,0,0.0
0.345,0.02539629541761738,77.5,0,60,1.0,0,0.0
0.35,0.031171612185577933,77.5,0,60,1.0,0,0.0
0.355,0.03795853426638131,77.5,0,60,1.0,0,0.0
0.36,0.0458588961882057,77.5,0,60,1.0,0,0.0
0.365,0.054966995891435555,77.5,0,60,1.0,0,0.0
0.37,0.06536491004445595,77.5,0,60,1.0,0,0.0
0.375,0.07711726085088699,77.5,0,60,1.0,0,0.0
0.38,0.09026570629555215,77.5,0,60,1.0,0,0.0
0.385,0.10482339848670268,77.5,0,60,1.0,0,0.0
0.39,0.12076968927580028,77.5,0,60,1.0,0,0.0
0.395,0.13804539501007884,77.5,0,60,1.0,0,0.0
0.4,0.15654895051787066,77.5,0,60,1.0,0,0.0
0.405,0.17613378141900526,77.5,0,60,1.0,0,0.0
0.41,0.19660720058055794,77.5,0,60,1.0,0,0.0
0.415,0.21773108748496234,77.5,0,60,1.0,0,0.0
0.42,0.23922453870058807,77.5,0,60,1.0,0,0.0
0.425,0.2607685857914563,77.5,0,60,1.0,0,0.0
0.43,0.2820129681603682,77.5,0,60,1.0,0,0.0
0.435,0.30258482867153996,77.5,0,60,1.0,0,0.0
0.44,0.3220990771751686,77.5,0,60,1.0,0,0.0
0.445,0.3401700499968971,77.5,0,60,1.0,0,0.0
0.45,0.3564239911198326,77.5,0,60,1.0,0,0.0
0.455,0.3705118017738417,77.5,0,60,1.0,0,0.0
0.46,0.3821214567925213,77.5,0,60,1.0,0,0.0
0.465,0.39098947374066967,77.5,0,60,1.0,0,0.0
0.47,0.3969108472035567,77.5,0,60,1.0,0,0.0
0.475,0.3997469255491936,77.5,0,60,1.0,0,0.0
0.48,0.3994308076379137,77.5,0,60,1.0,0,0.0
0.485,0.3959699661768434,77.5,0,60,1.0,0,0.0
0.49,0.38944595408114946,77.5,0,60,1.0,0,0.0
0.495,0.38001120995358023,77.5,0,60,1.0,0,0.0
0.5,0.3678831374098315,77.5,0,60,1.0,0,0.0
0.505,0.35333577933796634,77.5,0,60,1.0,0,0.0
0.51,0.33668953221163944,77.5,0,60,1.0,0,0.0
0.515,0.3182994390982644,77.5,0,60,1.0,0,0.0
0.52,0.29854265738230645,77.5,0,60,1.0,0,0.0
0.525,0.2778057157821067,77.5,0,60,1.0,0,0.0
0.53,0.2564721553719815,77.5,0,60,1.0,0,0.0
0.535,0.23491109433464996,77.5,0,60,1.0,0,0.0
0.54,0.21346717185309805,77.5,0,60,1.0,0,0.0
0.545,0.19245222055656455,77.5,0,60,1.0,0,0.0
0.55,0.17213889801761392,77.5,0,60,1.0,0,0.0
0.555,0.15275638501270183,77.5,0,60,1.0,0,0.0
0.56,0.13448814019607322,77.5,0,60,1.0,0,0.0
0.565,0.11747159495449566,77.5,0,60,1.0,0,0.0
0.57,0.10179958433370105,77.5,0,60,1.0,0,0.0
0.575,0.08752324394101413,77.5,0,60,1.0,0,0.0
0.58,0.07465606047174059,77.5,0,60,1.0,0,0.0
0.585,0.0631787448609295,77.5,0,60,1.0,0,0.0
0.59,0.05304460019959574,77.5,0,60,1.0,0,0.0
0.595,0.044185078305849994,77.5,0,60,1.0,0,0.0
0.6,0.03651525513023255,77.5,0,60,1.0,0,0.0
0.605,0.0299390014708757,77.5,0,60,1.0,0,0.0
0.61,0.024353677220580638,77.5,0,60,1.0,0,0.0
0.615,0.01965423034339045,77.5,0,60,1.0,0,0.0
0.62,0.015736632374757337,77.5,0,60,1.0,0,0.0
0.625,0.012500627640593535,77.5,0,60,1.0,0,0.0
0.63,0.009851811652115898,77.5,0,60,1.0,0,0.0
0.635,0.007703084175428559,77.5,0,60,1.0,0,0.0
0.64,0.005975544002062424,77.5,0,60,1.0,0,0.0
0.645,0.004598905818663047,77.5,0,60,1.0,0,0.0
0.65,0.0035115256454839104,77.5,0,60,1.0,0,0.0
0.655,0.002660121266303676,77.5,0,60,1.0,0,0.0
0.66,0.0019992692560877024,77.5,0,60,1.0,0,0.0
0.665,0.0014907520044639367,77.5,0,60,1.0,0,0.0
0.67,0.0011028178277539807,77.5,0,60,1.0,0,0.0
0.675,0.0008094059938923333,77.5,0,60,1.0,0,0.0
0.68,0.0005893771793717645,77.5,0,60,1.0,0,0.0
0.685,0.0004257792353490551,77.5,0,60,1.0,0,0.0
0.69,0.0003051686392901525,77.5,0,60,1.0,0,0.0
0.695,0.00021699992642659966,77.5,0,60,1.0,0,0.0
0.7,0.00015308884054097838,77.5,0,60,1.0,0,0.0
0.705,0.00010714989329311098,77.5,0,60,1.0,0,0.0
0.71,7.440535854020571e-05,77.5,0,60,1.0,0,0.0
0.715,5.1260276743925106e-05,77.5,0,60,1.0,0,0.0
0.72,3.503659887882241e-05,77.5,0,60,1.0,0,0.0
0.725,2.375894748103639e-05,77.5,0,60,1.0,0,0.0
0.73,1.5984413869232557e-05,77.5,0,60,1.0,0,0.0
0.735,1.0669166579899869e-05,77.5,0,60,1.0,0,0.0
0.74,7.06526633560511e-06,77.5,0,60,1.0,0,0.0
0.745,4.641847214699205e-06,77.5,0,60,1.0,0,0.0
0.75,3.025641074479182e-06,77.5,0,60,1.0,0,0.0
0.755,1.9566278676921314e-06,77.5,0,60,1.0,0,0.0
0.76,1.2553456560008793e-06,77.5,0,60,1.0,0,0.0
0.765,7.990660428214668e-07,77.5,0,60,1.0,0,0.0
0.77,5.046221251618276e-07,77.5,0,60,1.0,0,0.0
0.775,3.1616527078858815e-07,77.5,0,60,1.0,0,0.0
0.78,1.9652884407760343e-07,77.5,0,60,1.0,0,0.0
0.785,1.2120002189836396e-07,77.5,0,60,1.0,0,0.0
0.79,7.415549848886236e-08,77.5,0,60,1.0,0,0.0
0.795,4.501406988770349e-08,77.5,0,60,1.0,0,0.0
0.8,0.0,77.5,0,60,1.0,0,0.0
0.805,0.0,77.5,0,60,1.0,0,0.0
0.81,0.0,77.5,0,60,1.0,0,0.0
0.815,0.0,77.5,0,60,1.0,0,0.0
0.82,0.0,77.5,0,60,1.0,0,0.0
0.825,0.0,77.5,0,60,1.0,0,0.0
0.83,0.0,77.5,0,60,1.0,0,0.0
0.835,0.0,77.5,0,60,1.0,0,0.0
0.84,0.0,77.5,0,60,1.0,0,0.0
0.845,0.0,77.5,0,60,1.0,0,0.0
0.85,0.0,77.5,0,60,1.0,0,0.0
0.855,0.0,77.5,0,60,1.0,0,0.0
0.86,0.0,77.5,0,60,1.0,0,0.0
0.865,0.0,77.5,0,60,1.0,0,0.0
0.87,0.0,77.5,0,60,1.0,0,0.0
0.875,0.0,77.5,0,60,1.0,0,0.0
0.88,0.0,77.5,0,60,1.0,0,0.0
0.885,0.0,77.5,0,60,1.0,0,0.0
0.89,0.0,77.5,0,60,1.0,0,0.0
0.895,0.0,77.5,0,60,1.0,0,0.0
0.9,0.0,77.5,0,60,1.0,0,0.0
0.905,0.0,77.5,0,60,1.0,0,0.0
0.91,0.0,77.5,0,60,1.0,0,0.0
0.915,0.0,77.5,0,60,1.0,0,0.0
0.92,0.0,77.5,0,60,1.0,0,0.0
0.925,0.0,77.5,0,60,1.0,0,0.0
0.93,0.0,77.5,0,60,1.0,0,0.0
0.935,0.0,77.5,0,60,1.0,0,0.0
0.94,0.0,77.5,0,60,1.0,0,0.0
0.945,0.0,77.5,0,60,1.0,0,0.0
0.95,0.0,77.5,0,60,1.0,0,0.0
0.955,0.0,77.5,0,60,1.0,0,0.0
0.96,0.0,77.5,0,60,1.0,0,0.0
0.965,0.0,77.5,0,60,1.0,0,0.0
0.97,0.0,77.5,0,60,1.0,0,0.0
0.975,0.0,77.5,0,60,1.0,0,0.0
0.98,0.001684486749771458,77.5,0,60,1.0,0,0.0
0.985,0.003097557930867117,77.5,0,60,1.0,0,0.0
0.99,0.005475106668887023,77.5,0,60,1.0,0,0.0
0.995,0.00930222931468658,77.5,0,60,1.0,0,0.0
1.0,0.01519157517868857,77.5,0,60,1.0,0,0.0
1.005,0.023847336626128316,77.5,0,60,1.0,0,0.0
1.01,0.0359830743700859,77.5,0,60,1.0,0,0.0
1.015,0.05218887796857759,77.5,0,60,1.0,0,0.0
1.02,0.0727577001223134,77.5,0,60,1.0,0,0.0
1.025,0.0974992498694751,77.5,0,60,1.0,0,0.0
1.03,0.12558706050443358,77.5,0,60,1.0,0,0.0
1.035,0.15549263588878245,77.5,0,60,1.0,0,0.0
1.04,0.1850529723539114,77.5,0,60,1.0,0,0.0
1.045,0.21169159439317053,77.5,0,60,1.0,0,0.0
1.05,0.23277292922115492,77.5,0,60,1.0,0,0.0
1.055,0.24602692519491282,77.5,0,60,1.0,0,0.0
1.06,0.24995056064839283,77.5,0,60,1.0,0,0.0
1.065,0.24408826520424054,77.5,0,60,1.0,0,0.0
1.07,0.22911894216865275,77.5,0,60,1.0,0,0.0
1.075,0.20672661788705934,77.5,0,60,1.0,0,0.0
1.08,0.17928878030241233,77.5,0,60,1.0,0,0.0
1.085,0.14946211903866036,77.5,0,60,1.0,0,0.0
1.09,0.1197651512573837,77.5,0,60,1.0,0,0.0
1.095,0.09224675744988023,77.5,0,60,1.0,0,0.0
1.1,0.06829565320281596,77.5,0,60,1.0,0,0.0
1.105,0.04860224607515734,77.5,0,60,1.0,0,0.0
1.11,0.03324612389699793,77.5,0,60,1.0,0,0.0
1.115,0.021859876340472782,77.5,0,60,1.0,0,0.0
1.12,0.01381595518554205,77.5,0,60,1.0,0,0.0
1.125,0.008394095110402422,77.5,0,60,1.0,0,0.0
1.13,0.0049052535271608,77.5,0,60,1.0,0,0.0
1.135,0.0027671663551903634,77.5,0,60,1.0,0,0.0
1.14,0.0015425553464444616,77.5,0,60,1.0,0,0.0
1.145,0.0009638206637011801,77.5,0,60,1.0,0,0.0
1.15,0.0009804935156568228,77.5,0,60,1.0,0,0.0
1.155,0.0018793744894085216,77.5,0,60,1.0,0,0.0
1.16,0.004535525206900863,77.5,0,60,1.0,0,0.0
1.165,0.010832767979632273,77.5,0,60,1.0,0,0.0
1.17,0.024208003392322392,77.5,0,60,1.0,0,0.0
1.175,0.0500971897335304,77.5,0,60,1.0,0,0.0
1.18,0.09582894921774403,77.5,0,60,1.0,0,0.0
1.185,0.16937896721820658,77.5,0,60,1.0,0,0.0
1.19,0.27661303008991756,77.5,0,60,1.0,0,0.0
1.195,0.4173782800009149,77.5,0,60,1.0,0,0.0
1.2,0.5818720934538056,77.5,0,60,1.0,0,0.0
1.205,0.7494718801585675,77.5,0,60,1.0,1,0.0
1.21,0.891813020752378,77.5,0,60,1.0,1,0.0
1.215,0.9800361632936612,77.5,0,60,1.0,1,0.0
1.22,0.993574479225126,77.50000249055736,1,60,1.0,1,5.860134973879801e-08
1.225,0.9263438449375362,77.50000390266074,0,60,1.0,1,9.182731145408659e-08
1.23,0.7873015962290536,77.5000062610317,0,60,1.0,1,1.4731839294600993e-07
1.235,0.5959516244629897,77.5000104126822,0,60,1.0,1,2.4500428708051913e-07
1.24,0.376910120078773,77.50001815880528,0,60,1.0,1,4.2726600648112414e-07
1.245,0.15739335672107918,77.5000334012751,0,60,1.0,1,7.859123553878496e-07
1.25,-0.033361226269301235,77.50006460378755,0,60,1.0,1,1.5200891188188132e-06
1.255,-0.1680180840843834,77.50012992730984,0,60,1.0,1,3.057113172765051e-06
1.26,-0.23069703190837854,77.50026761566144,0,60,1.0,1,6.296839092770182e-06
1.265,-0.22587267821131068,77.50055630925912,0,60,1.0,1,1.3089629626459581e-05
1.27,-0.17718181630665902,77.50115340923121,0,60,1.0,1,2.713904073429523e-05
1.275,-0.11494332516451301,77.50236492593112,0,60,1.0,1,5.564531602631713e-05
1.28,-0.061810214049552864,77.50476787701339,0,60,1.0,1,0.00011218534149159441
1.285,-0.026546104631500547,77.50941633263068,0,60,1.0,1,0.00022156076778066884
1.29,-0.00719600351942686,77.5181738644655,0,60,1.0,1,0.00042762034036460296
1.295,0.0022072757983807078,77.5342261502554,0,60,1.0,1,0.0008053211824801565
1.3,0.006917199873730717,77.56283330869695,0,60,1.0,1,0.001478430792869457
1.305,0.01004859748264829,77.61237503104077,0,60,1.0,1,0.0026441183774298838
1.31,0.013037082251128167,77.6957132392228,0,60,1.0,1,0.00460501739347759
1.315,0.01645163937690478,77.83183666400365,0,60,1.0,1,0.007807921505968138
1.32,0.020526639934696615,78.04765202417518,0,60,1.0,1,0.012885929980592436
1.325,0.02539629541761738,78.37964807981832,0,60,1.0,1,0.02069760187807821
1.33,0.031171612185577933,78.87499658157523,0,60,1.0,1,0.03235286074294663
1.335,0.03795853426638131,79.591501931469,0,60,1.0,1,0.049211810152211696
1.34,0.0458588961882057,80.59572263286991,0,60,1.0,1,0.07284053253811548
1.345,0.054966995891435555,81.95862818810917,0,60,1.0,1,0.10490889854374526
1.35,0.06536491004445595,83.74838670535817,0,60,1.0,1,0.1470208636554864
1.355,0.07711726085088699,86.02033399330428,0,60,1.0,1,0.2004784469012771
1.36,0.09026570629555215,88.8048315443595,0,60,1.0,1,0.2659960363378706
1.365,0.10482339848670268,92.09448096566497,0,60,1.0,1,0.34339955213329343
1.37,0.12076968927580028,95.83285417186961,0,60,1.0,1,0.4313612746322262
1.375,0.13804539501007884,99.90730401880838,0,60,1.0,1,0.5272306827954912
1.38,0.15654895051787066,104.14833129667961,0,60,1.0,1,0.6270195599218733
1.385,0.17613378141900526,108.33727604108216,0,60,1.0,1,0.7255829656725215
1.39,0.19660720058055794,112.22279730887875,0,60,1.0,1,0.8170069955030295
1.395,0.21773108748496234,115.54490959056277,0,60,1.0,1,0.8951743433073592
1.4,0.23922453870058807,118.06361697299218,0,60,1.0,1,0.9544380464233454
1.405,0.2607685857914563,119.58786456364993,0,60,1.0,1,0.9903026956152925
1.41,0.2820129681603682,120.0,0,60,1.0,1,1.0
1.415,0.30258482867153996,119.27142299958258,0,60,1.0,1,0.9828570117548843
1.42,0.3220990771751686,117.46655828444447,0,60,1.0,1,0.9403896066928111
1.425,0.3401700499968971,114.73441248783143,0,60,1.0,1,0.8761038232430925
1.43,0.3564239911198326,111.28927580351457,0,60,1.0,1,0.7950417836121075
1.435,0.3705118017738417,107.38406102338513,0,60,1.0,1,0.7031543770208266
1.44,0.3821214567925213,103.28089833002707,0,60,1.0,1,0.6066093724712252
1.445,0.39098947374066967,99.22371126121679,0,60,1.0,1,0.5111461473227481
1.45,0.3969108472035567,95.41664685863836,0,60,1.0,1,0.4215681613797261
1.455,0.3997469255491936,92.0107136810468,0,60,1.0,1,0.34142855720110105
1.46,0.3994308076379137,89.09921702002791,0,60,1.0,1,0.27292275341242134
1.465,0.3959699661768434,86.72099306384327,0,60,1.0,1,0.2169645426786651
1.47,0.38944595408114946,84.86934322745678,0,60,1.0,1,0.1733963112342772
1.475,0.38001120995358023,83.50409389992826,0,60,1.0,1,0.14127279764537093
1.48,0.3678831374098315,82.5643187163182,0,60,1.0,1,0.1191604403839576
1.485,0.35333577933796634,81.97979641551007,0,60,1.0,1,0.10540697448258979
1.49,0.33668953221163944,81.68001798316348,0,60,1.0,1,0.09835336430972896
1.495,0.3182994390982644,81.60029568688363,0,60,1.0,1,0.09647754557373239
1.5,0.29854265738230645,81.68511720481757,0,60,1.0,1,0.09847334599570759
1.505,0.2778057157821067,81.8892611786442,0,60,1.0,1,0.10327673361515775
1.51,0.2564721553719815,82.17734651540148,0,60,1.0,1,0.11005521212709368
1.515,0.23491109433464996,82.52247317147288,0,60,1.0,1,0.1181758393287737
1.52,0.21346717185309805,82.90449269890502,0,60,1.0,1,0.12716453409188275
1.525,0.19245222055656455,83.30828526471531,0,60,1.0,1,0.13666553564036021
1.53,0.17213889801761392,83.72226285659941,0,60,1.0,1,0.1464061848611627
1.535,0.15275638501270183,84.13719258266862,0,60,1.0,1,0.1561692372392616
1.54,0.13448814019607322,84.54534839222734,0,60,1.0,1,0.16577290334652564
1.545,0.11747159495449566,84.93995127272836,0,60,1.0,1,0.17505767700537328
1.55,0.10179958433370105,85.31483813156787,0,60,1.0,1,0.1838785442721851
1.555,0.08752324394101413,85.66429795931882,0,60,1.0,1,0.19210112845456037
1.56,0.07465606047174059,85.98302177258904,0,60,1.0,1,0.19960051229621273
1.565,0.0631787448609295,86.2661241010189,0,60,1.0,1,0.20626174355338595
1.57,0.05304460019959574,86.509204811254,0,60,1.0,1,0.21198128967656457
1.575,0.044185078305849994,86.70842921313016,0,60,1.0,1,0.21666892266188612
1.58,0.03651525513023255,86.86061128456899,0,60,1.0,1,0.2202496772839762
1.585,0.0299390014708757,86.96328974342804,0,60,1.0,1,0.2226656410218361
1.59,0.024353677220580638,87.0147900798478,0,60,1.0,1,0.22387741364347763
1.595,0.01965423034339045,87.01426803196546,0,60,1.0,1,0.22386513016389312
1.6,0.015736632374757337,86.9617317279995,0,60,1.0,1,0.2226289818352825
1.605,0.012500627640593535,86.85804109034562,0,60,1.0,1,0.22018920212577936
1.61,0.009851811652115898,86.70488425603972,0,60,1.0,1,0.2165855119068169
1.615,0.007703084175428559,86.50473178744132,0,60,1.0,1,0.2118760420574427
1.62,0.005975544002062424,86.26077035135903,0,60,1.0,1,0.2061357729731536
1.625,0.004598905818663047,85.97681832982333,0,60,1.0,1,0.19945454893701955
1.63,0.0035115256454839104,85.6572264743845,0,60,1.0,1,0.19193474057375295
1.635,0.002660121266303676,85.30676720877216,0,60,1.0,1,0.1836886402064037
1.64,0.0019992692560877024,84.93051650632438,0,60,1.0,1,0.17483568250175013
1.645,0.0014907520044639367,84.53373241029662,0,60,1.0,1,0.1654995861246264
1.65,0.0011028178277539807,84.12173422728785,0,60,1.0,1,0.15580551123030226
1.655,0.0008094059938923333,83.69978621594157,0,60,1.0,1,0.145877322728037
1.66,0.0005893771793717645,83.27298923259978,0,60,1.0,1,0.13583504076705374
1.665,0.0004257792353490551,82.84618330765194,0,60,1.0,1,0.1257925484153398
1.67,0.0003051686392901525,82.42386354125402,0,60,1.0,1,0.11585561273538875
1.675,0.00021699992642659966,82.01011105855213,0,60,1.0,1,0.10612026020122652
1.68,0.00015308884054097838,81.60854008739086,0,60,1.0,1,0.09667153146802032
1.685,0.00010714989329311098,81.22226154968438,0,60,1.0,1,0.0875826246984559
1.69,7.440535854020571e-05,80.85386292236346,0,60,1.0,1,0.07891442170266968
1.695,5.1260276743925106e-05,80.50540355191389,0,60,1.0,1,0.07071537769209145
1.7,3.503659887882241e-05,80.17842411927857,0,60,1.0,1,0.06302174398302528
1.705,2.375894748103639e-05,79.8739685643194,0,60,1.0,1,0.055858083866338774
1.71,1.5984413869232557e-05,79.59261649957682,0,60,1.0,1,0.04923803528416048
1.715,1.0669166579899869e-05,79.33452397376828,0,60,1.0,1,0.04316526997101846
1.72,7.06526633560511e-06,79.09947038249331,0,60,1.0,1,0.037634597235136666
1.725,4.641847214699205e-06,78.88690935809102,0,60,1.0,1,0.03263316136684747
1.73,3.025641074479182e-06,78.6960215896651,0,60,1.0,1,0.028141684462708087
1.735,1.9566278676921314e-06,78.5257677122978,0,60,1.0,1,0.02413571087759545
1.74,1.2553456560008793e-06,78.37493964417503,0,60,1.0,1,0.020586815157059513
1.745,7.990660428214668e-07,78.2422090240731,0,60,1.0,1,0.017463741742896593
1.75,5.046221251618276e-07,78.12617169236393,0,60,1.0,1,0.014733451585033542
1.755,3.1616527078858815e-07,78.025387450806,0,60,1.0,1,0.012362057666023381
1.76,1.9652884407760343e-07,77.93841461647177,0,60,1.0,1,0.010315638034629995
1.765,1.2120002189836396e-07,77.8638391423511,0,60,1.0,1,0.008560920996496394
1.77,7.415549848886236e-08,77.80029830339164,0,60,1.0,1,0.007065842432744523
1.775,4.501406988770349e-08,77.74649913671861,0,60,1.0,1,0.005799979687496743
1.78,0.0,77.70123197589588,0,60,1.0,1,0.00473487002107952
1.785,0.0,77.66337953109218,0,60,1.0,1,0.003844224260992365
1.79,0.0,77.63192204162286,0,60,1.0,1,0.0031040480381848818
1.795,0.0,77.60593906782344,0,60,1.0,1,0.0024926839487868753
1.8,0.0,77.5846084999467,0,60,1.0,1,0.001990788234039923
1.805,0.0,77.56720334779462,0,60,1.0,1,0.0015812552422262878
1.81,0.0,77.55308684140455,0,60,1.0,1,0.0012491021506952941
1.815,0.0,77.54170632554015,0,60,1.0,1,0.0009813253068269954
1.82,0.0,77.53258637389288,0,60,1.0,1,0.0007667382092443083
1.825,0.0,77.5253214871494,0,60,1.0,1,0.000595799697632896
1.83,0.0,77.5195686761332,0,60,1.0,1,0.00046043943842833225
1.835,0.0,77.51504017008224,0,60,1.0,1,0.00035388635487633484
1.84,0.0,77.51149643304234,0,60,1.0,1,0.0002705043068785659
1.845,0.0,77.50873961991796,0,60,1.0,1,0.00020563811571672457
1.85,0.0,77.50660755888478,0,60,1.0,1,0.00015547197375955125
1.855,0.0,77.50496830905382,0,60,1.0,1,0.00011690138950170342
1.86,0.0,77.5037153114783,0,60,1.0,1,8.741909360711522e-05
1.865,0.0,77.50276312746773,0,60,1.0,1,6.501476394659863e-05
1.87,0.0,77.50204374014463,0,60,1.0,1,4.808800340302856e-05
1.875,0.0,77.50150338251946,0,60,1.0,1,3.537370634021767e-05
1.88,0.0,77.50109984727075,0,60,1.0,1,2.587875931179523e-05
1.885,0.0,77.50080022908391,0,60,1.0,1,1.8828919621348497e-05
1.89,0.0,77.50057904904067,0,60,1.0,1,1.3624683309805785e-05
1.895,0.0,77.50041671144271,0,60,1.0,1,9.804975122599845e-06
1.9,0.0,77.50029824596082,0,60,1.0,1,7.017552019306095e-06
1.905,0.0,77.50021229158524,0,60,1.0,1,4.995096123352863e-06
1.91,0.0,77.50015028306859,0,60,1.0,1,3.536072202169795e-06
1.915,0.0,77.50010580504913,0,60,1.0,1,2.4895305677867272e-06
1.92,0.0,77.50007408355204,0,60,1.0,1,1.7431424008490842e-06
1.925,0.0,77.50005158889975,0,60,1.0,1,1.213856464734336e-06
1.93,0.0,77.50003572808994,0,60,1.0,1,8.406609397832868e-07
1.935,0.0,77.50002460834446,0,60,1.0,1,5.790198696665946e-07
1.94,0.001684486749771458,77.50001685675832,0,60,1.0,1,3.9662960756793514e-07
1.945,0.003097557930867117,77.500011483778,0,60,1.0,1,2.7020654108448924e-07
1.95,0.005475106668887023,77.50000778062673,0,60,1.0,1,1.830735701493241e-07
1.955,0.00930222931468658,77.50000524280178,0,60,1.0,1,1.233600418051056e-07
1.96,0.01519157517868857,77.50000351343044,0,60,1.0,1,8.266895159014145e-08
1.965,0.023847336626128316,77.5000023416304,0,60,1.0,1,5.5097186024046524e-08
1.97,0.0359830743700859,77.5000015521168,0,60,1.0,1,3.652039528306512e-08
1.975,0.05218887796857759,77.50000102317405,0,60,1.0,1,2.4074683538214337e-08
1.98,0.0727577001223134,77.500000670801,0,60,1.0,1,1.5783552953507752e-08
1.985,0.0974992498694751,77.500000437378,0,60,1.0,1,1.029124719560273e-08
1.99,0.12558706050443358,77.50000028362157,0,60,1.0,1,6.6734488053257606e-09
1.995,0.15549263588878245,77.50000018291134,0,60,1.0,1,4.303796137772973e-09
2.0,0.1850529723539114,77.50000011731703,0,60,1.0,1,2.760400681889972e-09
2.005,0.21169159439317053,77.50000007483428,0,60,1.0,1,1.7608064862382462e-09
2.01,0.23277292922115492,77.50000004747436,0,60,1.0,1,1.1170437333288752e-09
2.015,0.24602692519491282,77.50000002995276,0,60,1.0,1,7.047707881343633e-10
2.02,0.24995056064839283,77.50000001879462,0,60,1.0,1,4.4222641757668874e-10
2.025,0.24408826520424054,77.50000001172869,0,60,1.0,1,2.759691142273368e-10
2.03,0.22911894216865275,77.50000000727921,0,60,1.0,1,1.7127557411560487e-10
2.035,0.20672661788705934,77.50000000449302,0,60,1.0,1,1.0571805914343499e-10
2.04,0.17928878030241233,77.5000000027581,0,60,1.0,1,6.48964594481239e-11
2.045,0.14946211903866036,77.50000000168384,0,60,1.0,1,3.9619862945983186e-11
2.05,0.1197651512573837,77.50000000102239,0,60,1.0,1,2.405613486189395e-11
2.055,0.09224675744988023,77.50000000061736,0,60,1.0,1,1.4526168503353428e-11
2.06,0.06829565320281596,77.50000000037076,0,60,1.0,1,8.723792929873418e-12
2.065,0.04860224607515734,77.50000000022145,0,60,1.0,1,5.210535271223361e-12
2.07,0.03324612389699793,77.50000000013154,0,60,1.0,1,3.094956970444935e-12
2.075,0.021859876340472782,77.5000000000777,0,60,1.0,1,1.8283518490052836e-12
2.08,0.01381595518554205,77.50000000004566,0,60,1.0,1,1.0743406164692714e-12
2.085,0.008394095110402422,77.50000000002667,0,60,1.0,1,6.27618218833745e-13
2.09,0.0049052535271608,77.5000000000155,0,60,1.0,1,3.648009998655385e-13
2.095,0.0027671663551903634,77.50000000000895,0,60,1.0,1,2.1065502283711206e-13
2.1,0.0015425553464444616,77.50000000000514,0,60,1.0,1,1.2104304486830883e-13
2.105,0.0009638206637011801,77.50000000000294,0,60,1.0,1,6.921522178933681e-14
2.11,0.0009804935156568228,77.50000000000168,0,60,1.0,1,3.945602015044321e-14
2.115,0.0018793744894085216,77.50000000000095,0,60,1.0,1,2.2402994492200805e-14
2.12,0.004535525206900863,77.50000000000053,0,60,1.0,1,1.2371802928528803e-14
2.125,0.010832767979632273,77.5000000000003,0,60,1.0,1,7.021834094570402e-15
2.13,0.024208003392322392,77.50000000000017,0,60,1.0,1,4.012476625468801e-15
2.135,0.0500971897335304,77.50000000000009,0,60,1.0,1,2.0062383127344005e-15
2.14,0.09582894921774403,77.50000000000004,0,60,1.0,1,1.0031191563672002e-15
2.145,0.16937896721820658,77.50000000000003,0,60,1.0,1,6.687461042448002e-16
2.15,0.27661303008991756,77.50000000000001,0,60,1.0,1,3.343730521224001e-16
2.155,0.4173782800009149,77.50000000000001,0,60,1.0,1,3.343730521224001e-16
2.16,0.5818720934538056,77.5,0,60,1.0,1,0.0
2.165,0.7494718801585675,77.5,0,60,1.0,1,0.0
2.17,0.891813020752378,77.5,0,60,1.0,1,0.0
2.175,0.9800361632936612,77.5,0,60,1.0,1,0.0
2.18,0.993574479225126,77.50000249606323,1,60,1.0,1,5.8730899568485364e-08
2.185,0.9263438449375362,77.5000038398575,0,60,1.0,1,9.034958820313264e-08
2.19,0.7873015962290536,77.500006033868,0,60,1.0,1,1.4197336480826967e-07
2.195,0.5959516244629897,77.50000979196264,0,60,1.0,1,2.303991209373635e-07
2.2,0.376910120078773,77.50001658325932,0,60,1.0,1,3.9019433703448587e-07
2.205,0.15739335672107918,77.50002948944842,0,60,1.0,1,6.938693746526362e-07
2.21,-0.033361226269301235,77.50005499618474,0,60,1.0,1,1.2940278763300524e-06
2.215,-0.1680180840843834,77.50010664152244,0,60,1.0,1,2.509212292606582e-06
2.22,-0.23069703190837854,77.50021223841208,0,60,1.0,1,4.993844990006919e-06
2.225,-0.22587267821131068,77.50042774487464,0,60,1.0,1,1.006458528569751e-05
2.23,-0.17718181630665902,77.50086306382961,0,60,1.0,1,2.0307384226177473e-05
2.235,-0.11494332516451301,77.50172846110615,0,60,1.0,1,4.0669673085978825e-05
2.24,-0.061810214049552864,77.5034152292072,0,60,1.0,1,8.035833428721162e-05
2.245,-0.026546104631500547,77.5066308676186,0,60,1.0,1,0.00015602041455522073
2.25,-0.00719600351942686,77.51261714788687,0,60,1.0,1,0.0002968740679263834
2.255,0.0022072757983807078,77.5234879390857,0,60,1.0,1,0.000552657390251705
2.26,0.006917199873730717,77.5427303078502,0,60,1.0,1,0.00100541900824015
2.265,0.01004859748264829,77.57591328443115,0,60,1.0,1,0.001786194927791819
2.27,0.013037082251128167,77.63163821024733,0,60,1.0,1,0.0030973696528783824
2.275,0.01645163937690478,77.7227359889992,0,60,1.0,1,0.005240846799981281
2.28,0.020526639934696615,77.86766338596527,0,60,1.0,1,0.008650903199182882
2.285,0.02539629541761738,78.09196918540792,0,60,1.0,1,0.013928686715480447
2.29,0.031171612185577933,78.42959438652437,0,60,1.0,1,0.021872809094691092
2.295,0.03795853426638131,78.9236517302522,0,60,1.0,1,0.03349768777064007
2.3,0.0458588961882057,79.62622444184039,0,60,1.0,1,0.05002881039624453
2.305,0.054966995891435555,80.5966700411891,0,60,1.0,1,0.07286282449856706
2.31,0.06536491004445595,81.89795705296187,0,60,1.0,1,0.10348134242263227
2.315,0.07711726085088699,83.590740736457,0,60,1.0,1,0.14331154674016455
2.32,0.09026570629555215,85.72521884287897,0,60,1.0,1,0.19353456100891703
2.325,0.10482339848670268,88.3312835786459,0,60,1.0,1,0.25485373126225636
2.33,0.12076968927580028,91.40803681418913,0,60,1.0,1,0.32724792503974426
2.335,0.13804539501007884,94.91424919828907,0,60,1.0,1,0.4097470399597428
2.34,0.15654895051787066,98.7616754538298,0,60,1.0,1,0.5002747165607011
2.345,0.17613378141900526,102.81314459839467,0,60,1.0,1,0.5956034023151687
2.35,0.19660720058055794,106.88692793605124,0,60,1.0,1,0.6914571279070879
2.355,0.21773108748496234,110.76804090701927,0,60,1.0,1,0.7827774331063357
2.36,0.23922453870058807,114.22596317855158,0,60,1.0,1,0.8641403100835666
2.365,0.2607685857914563,117.0369802382121,0,60,1.0,1,0.9302818879579317
2.37,0.2820129681603682,119.00824368351186,0,60,1.0,1,0.9766645572591027
2.375,0.30258482867153996,120.0,0,60,1.0,1,1.0
2.38,0.3220990771751686,119.94245116636986,0,60,1.0,1,0.998645909796938
2.385,0.3401700499968971,118.84443995887491,0,60,1.0,1,0.9728103519735274
2.39,0.3564239911198326,116.79247804582917,0,60,1.0,1,0.9245288951959805
2.395,0.3705118017738417,113.94028233815197,0,60,1.0,1,0.857418407956517
2.4,0.3821214567925213,110.4905961503334,0,60,1.0,1,0.7762493211843153
2.405,0.39098947374066967,106.67229771772733,0,60,1.0,1,0.686407005122996
2.41,0.3969108472035567,102.71639188641603,0,60,1.0,2,0.5933268679156714
2.415,0.3997469255491936,98.83435529010902,0,60,1.0,2,0.5019848303555062
2.42,0.3994308076379137,95.20154861737079,0,60,1.0,2,0.4165070262910774
2.425,0.3959699661768434,91.94724589020063,0,60,1.0,2,0.3399351974164855
2.43,0.38944595408114946,89.1515501373611,0,60,1.0,2,0.2741541208790847
2.435,0.38001120995358023,86.84834318674413,0,60,1.0,2,0.21996101615868544
2.44,0.3678831374098315,85.03265064487029,0,60,1.0,2,0.17723883870283028
2.445,0.35333577933796634,83.67047424017679,0,60,1.0,2,0.1451876291806303
2.45,0.33668953221163944,82.70922389874646,0,60,1.0,2,0.12256997408815196
2.455,0.3182994390982644,82.08726133343396,0,60,1.0,2,0.10793556078668136
2.46,0.29854265738230645,81.74159879534122,0,60,1.0,2,0.09980232459626397
2.465,0.2778057157821067,81.61334027722147,0,60,1.0,2,0.09678447711109336
2.47,0.2564721553719815,81.6509036668351,0,60,1.0,2,0.09766832157259073
2.475,0.23491109433464996,81.81136644357802,0,60,1.0,2,0.10144391631948291
2.48,0.21346717185309805,82.06042651697676,0,60,1.0,2,0.10730415334062968
2.485,0.19245222055656455,82.37148928088116,0,60,1.0,2,0.11462327719720386
2.49,0.17213889801761392,82.72432417484066,0,60,1.0,2,0.12292527470213319
2.495,0.15275638501270183,83.10362302191093,0,60,1.0,2,0.13184995345672787
2.5,0.13448814019607322,83.49767392349987,0,60,1.0,2,0.14112173937646763
2.505,0.11747159495449566,83.89726171789964,0,60,1.0,2,0.15052380512705033
2.51,0.10179958433370105,84.29482974674242,0,60,1.0,2,0.15987834698217465
2.515,0.08752324394101413,84.68388923933297,0,60,1.0,2,0.16903268798430518
2.52,0.07465606047174059,85.05863764443257,0,60,1.0,2,0.17785029751606035
2.525,0.0631787448609295,85.41373904216793,0,60,1.0,2,0.18620562452159842
2.53,0.05304460019959574,85.74422176195922,0,60,1.0,2,0.19398168851668762
2.535,0.044185078305849994,86.0454552613927,0,60,1.0,2,0.20106953556218127
2.54,0.03651525513023255,86.31317664893982,0,60,1.0,2,0.20736886232799567
2.545,0.0299390014708757,86.54354497329876,0,60,1.0,2,0.2127892934893827
2.55,0.024353677220580638,86.73320770957436,0,60,1.0,2,0.21725194610763196
2.555,0.01965423034339045,86.87936861096367,0,60,1.0,2,0.22069102614032157
2.56,0.015736632374757337,86.97984948291244,0,60,1.0,2,0.223055281950881
2.565,0.012500627640593535,87.03314081261668,0,60,1.0,2,0.2243091955909807
2.57,0.009851811652115898,87.03843787511315,0,60,1.0,2,0.22443383235560344
2.575,0.007703084175428559,86.99566019345913,0,60,1.0,2,0.2234272986696266
2.58,0.005975544002062424,86.90545322943116,0,60,1.0,2,0.22130478186896846
2.585,0.004598905818663047,86.76917202771214,0,60,1.0,2,0.2180981653579328
2.59,0.0035115256454839104,86.58884728386485,0,60,1.0,2,0.21385523020858474
2.595,0.002660121266303676,86.36713497361453,0,60,1.0,2,0.2086384699674006
2.6,0.0019992692560877024,86.10725126733229,0,60,1.0,2,0.20252355923134793
2.605,0.0014907520044639367,85.81289494876535,0,60,1.0,2,0.19559752820624346
2.61,0.0011028178277539807,85.48815994788507,0,60,1.0,2,0.1879567046561192
2.615,0.0008094059938923333,85.13744087266727,0,60,1.0,2,0.17970449112158282
2.62,0.0005893771793717645,84.76533457621503,0,60,1.0,2,0.17094904885211823
2.625,0.0004257792353490551,84.37654082180066,0,60,1.0,2,0.1618009605129567
2.63,0.0003051686392901525,83.97576501288177,0,60,1.0,2,0.15237094147957095
2.635,0.00021699992642659966,83.5676257473155,0,60,1.0,2,0.14276766464271773
2.64,0.00015308884054097838,83.1565696492459,0,60,1.0,2,0.1330957564528446
2.645,0.00010714989329311098,82.74679554691296,0,60,1.0,2,0.12345401286854031
2.65,7.440535854020571e-05,82.34218962124325,0,60,1.0,2,0.11393387344101764
2.655,5.1260276743925106e-05,81.94627267143458,0,60,1.0,2,0.10461818050434317
2.66,3.503659887882241e-05,81.5621601530088,0,60,1.0,2,0.0955802388943248
2.665,2.375894748103639e-05,81.19253516317026,0,60,1.0,2,0.08688318030988854
2.67,1.5984413869232557e-05,80.83963409787519,0,60,1.0,2,0.07857962583235743
2.675,1.0669166579899869e-05,80.5052443018934,0,60,1.0,2,0.07071163063278585
2.68,7.06526633560511e-06,80.19071269077197,0,60,1.0,2,0.06331088684169352
2.685,4.641847214699205e-06,79.89696405136633,0,60,1.0,2,0.056399154149795884
2.69,3.025641074479182e-06,79.6245275306656,0,60,1.0,2,0.04998888307448477
2.695,1.9566278676921314e-06,79.37356970210506,0,60,1.0,2,0.044083992990707255
2.7,1.2553456560008793e-06,79.14393255178399,0,60,1.0,2,0.03868076592432919
2.705,7.990660428214668e-07,78.93517474813203,0,60,1.0,2,0.03376881760310653
2.71,5.046221251618276e-07,78.74661463915068,0,60,1.0,2,0.029332109156486548
2.715,3.1616527078858815e-07,78.57737355111618,0,60,1.0,2,0.02534996590861604
2.72,1.9652884407760343e-07,78.42641813017309,0,60,1.0,2,0.021798073651131532
2.725,1.2120002189836396e-07,78.29260066180315,0,60,1.0,2,0.01864942733654469
2.73,7.415549848886236e-08,78.17469651121884,0,60,1.0,2,0.0158752120286786
2.735,4.501406988770349e-08,78.07143803963184,0,60,1.0,2,0.013445600932513959
2.74,0.0,77.98154455767332,0,60,1.0,2,0.011330460180548632
2.745,0.0,77.9037480701592,0,60,1.0,2,0.009499954591981082
2.75,0.0,77.83681473981095,0,60,1.0,2,0.00792505270143405
2.755,0.0,77.7795621471775,0,60,1.0,2,0.006577932874764723
2.76,0.0,77.730872547324,0,60,1.0,2,0.005432295231152881
2.765,0.0,77.68970241993146,0,60,1.0,2,0.0044635863513285716
2.77,0.0,77.65508867876439,0,60,1.0,2,0.0036491453826914388
2.775,0.0,77.62615195063168,0,60,1.0,2,0.002968281191333651
2.78,0.0,77.60209735548692,0,60,1.0,2,0.0024022907173392627
2.785,0.0,77.58221322128246,0,60,1.0,2,0.001934428736057846
2.79,0.0,77.56586815304183,0,60,1.0,2,0.001549838895101964
2.795,0.0,77.5525068488899,0,60,1.0,2,0.0012354552679977695
2.8,0.0,77.54164501992928,0,60,1.0,2,0.0009798828218653371
2.805,0.0,77.53286372908609,0,60,1.0,2,0.0007732642137903119
2.81,0.0,77.52580341921859,0,60,1.0,2,0.0006071392757315366
2.815,0.0,77.5201578553129,0,60,1.0,2,0.0004743024779506467
2.82,0.0,77.51566816144691,0,60,1.0,2,0.0003686626222802528
2.825,0.0,77.51211709188321,0,60,1.0,2,0.0002851080443108725
2.83,0.0,77.50932363821491,0,60,1.0,2,0.0002193797227037334
2.835,0.0,77.50713804159365,0,60,1.0,2,0.00016795391985056086
2.84,0.0,77.50543725103012,0,60,1.0,2,0.00012793531835567966
2.845,0.0,77.5041208456039,0,60,1.0,2,9.69610730327772e-05
2.85,0.0,77.5031074199587,0,60,1.0,2,7.311576373400813e-05
2.855,0.0,77.50233141833475,0,60,1.0,2,5.485690199407145e-05
2.86,0.0,77.50174039213948,0,60,1.0,2,4.095040328192066e-05
2.865,0.0,77.501292649158,0,60,1.0,2,3.0415274305957664e-05
2.87,0.0,77.50095525841263,0,60,1.0,2,2.2476668532496712e-05
2.875,0.0,77.50070237286243,0,60,1.0,2,1.6526420292580843e-05
2.88,0.0,77.50051383209139,0,60,1.0,2,1.2090166856135992e-05
2.885,0.0,77.50037400841595,0,60,1.0,2,8.800198022259686e-06
2.89,0.0,77.50027086205799,0,60,1.0,2,6.37322489383758e-06
2.895,0.0,77.50019517384675,0,60,1.0,2,4.5923258058417775e-06
2.9,0.0,77.50013992706306,0,60,1.0,2,3.292401483764372e-06
2.905,0.0,77.50009981331155,0,60,1.0,2,2.348548507063028e-06
2.91,0.0,77.5000708405394,0,60,1.0,2,1.6668362210272307e-06
2.915,0.0,77.50005002440169,0,60,1.0,2,1.177044745592117e-06
2.92,0.0,77.50003514702703,0,60,1.0,2,8.269888714012803e-07
2.925,0.0,77.50002456981785,0,60,1.0,2,5.781133612505501e-07
2.93,0.0,77.50001708920767,0,60,1.0,2,4.0209900409054705e-07
2.935,0.0,77.50001182629116,0,60,1.0,2,2.782656742831879e-07
2.94,0.001684486749771458,77.50000814295163,0,60,1.0,2,1.9159886184805894e-07
2.945,0.003097557930867117,77.50000557855593,0,60,1.0,2,1.312601394896346e-07
2.95,0.005475106668887023,77.5000038024926,0,60,1.0,2,8.947041411535312e-08
2.955,0.00930222931468658,77.50000257882347,0,60,1.0,2,6.067819928081436e-08
2.96,0.01519157517868857,77.5000017401292,0,60,1.0,2,4.0944216634135744e-08
2.965,0.023847336626128316,77.50000116828292,0,60,1.0,2,2.748900990755989e-08
2.97,0.0359830743700859,77.50000078040709,0,60,1.0,2,1.836251980795864e-08
2.975,0.05218887796857759,77.50000051868184,0,60,1.0,2,1.220427868568496e-08
2.98,0.0727577001223134,77.50000034299478,0,60,1.0,2,8.070465435808086e-09
2.985,0.0974992498694751,77.50000022567355,0,60,1.0,2,5.3099657794946855e-09
2.99,0.12558706050443358,77.50000014773399,0,60,1.0,2,3.4760937657719136e-09
2.995,0.15549263588878245,77.50000009622477,0,60,1.0,2,2.2641121605000295e-09
3.0,0.1850529723539114,77.5000000623591,0,60,1.0,2,1.4672730899559718e-09
3.005,0.21169159439317053,77.50000004020866,0,60,1.0,2,9.460861479858388e-10
3.01,0.23277292922115492,77.50000002579563,0,60,1.0,2,6.069559704508933e-10
3.015,0.24602692519491282,77.50000001646566,0,60,1.0,2,3.874273555565571e-10
3.02,0.24995056064839283,77.50000001045728,0,60,1.0,2,2.460537603731021e-10
3.025,0.24408826520424054,77.50000000660792,0,60,1.0,2,1.5548045987944693e-10
3.03,0.22911894216865275,77.50000000415449,0,60,1.0,2,9.775262429577518e-11
3.035,0.20672661788705934,77.50000000259882,0,60,1.0,2,6.114880627993604e-11
3.04,0.17928878030241233,77.5000000016175,0,60,1.0,2,3.80586751656237e-11
3.045,0.14946211903866036,77.50000000100165,0,60,1.0,2,2.356828457884737e-11
3.05,0.1197651512573837,77.50000000061716,0,60,1.0,2,1.4521487280623714e-11
3.055,0.09224675744988023,77.50000000037834,0,60,1.0,2,8.902013766654657e-12
3.06,0.06829565320281596,77.50000000023077,0,60,1.0,2,5.4298839934156554e-12
3.065,0.04860224607515734,77.50000000014005,0,60,1.0,2,3.2952464286662528e-12
3.07,0.03324612389699793,77.50000000008457,0,60,1.0,2,1.989854033180403e-12
3.075,0.021859876340472782,77.5000000000508,0,60,1.0,2,1.1953836613375804e-12
3.08,0.01381595518554205,77.50000000003037,0,60,1.0,2,7.14555212385569e-13
3.085,0.008394095110402422,77.50000000001806,0,60,1.0,2,4.249881492475705e-13
3.09,0.0049052535271608,77.50000000001069,0,60,1.0,2,2.514485351960449e-13
3.095,0.0027671663551903634,77.5000000000063,0,60,1.0,2,1.4812726209022324e-13
3.1,0.0015425553464444616,77.50000000000368,0,60,1.0,2,8.660262049970162e-14
3.105,0.0009638206637011801,77.50000000000215,0,60,1.0,2,5.049033087048241e-14
3.11,0.0009804935156568228,77.50000000000125,0,60,1.0,2,2.942482858677121e-14
3.115,0.0018793744894085216,77.50000000000072,0,60,1.0,2,1.7053025658242404e-14
3.12,0.004535525206900863,77.50000000000041,0,60,1.0,2,9.696818511549603e-15
3.125,0.010832767979632273,77.50000000000024,0,60,1.0,2,5.684341886080802e-15
3.13,0.024208003392322392,77.50000000000013,0,60,1.0,2,3.0093574691016007e-15
3.135,0.0500971897335304,77.50000000000007,0,60,1.0,2,1.6718652606120004e-15
3.14,0.09582894921774403,77.50000000000004,0,60,1.0,2,1.0031191563672002e-15
3.145,0.16937896721820658,77.50000000000003,0,60,1.0,2,6.687461042448002e-16
3.15,0.27661303008991756,77.50000000000001,0,60,1.0,2,3.343730521224001e-16
3.155,0.4173782800009149,77.5,0,60,1.0,2,0.0
3.16,0.5818720934538056,77.5,0,60,1.0,2,0.0
3.165,0.7494718801585675,77.5,0,60,1.0,2,0.0
3.17,0.891813020752378,77.5,0,60,1.0,2,0.0
3.175,0.9800361632936612,77.5,0,60,1.0,2,0.0
3.18,0.993574479225126,77.5000024899223,1,60,1.0,2,5.858640694147171e-08
3.185,0.9263438449375362,77.50000376594136,0,60,1.0,2,8.86103848910459e-08
3.19,0.7873015962290536,77.50000580655897,0,60,1.0,2,1.366249170373254e-07
3.195,0.5959516244629897,77.50000921610113,0,60,1.0,2,2.1684943844240265e-07
3.2,0.376910120078773,77.50001520125163,0,60,1.0,2,3.5767650889711684e-07
3.205,0.15739335672107918,77.50002621870189,0,60,1.0,2,6.169106327166339e-07
3.21,-0.033361226269301235,77.5000472946736,0,60,1.0,2,1.1128158495707526e-06
3.215,-0.1680180840843834,77.50008865159667,0,60,1.0,2,2.085919921642819e-06
3.22,-0.23069703190837854,77.50017080335597,0,60,1.0,2,4.018902493432024e-06
3.225,-0.22587267821131068,77.50033416889595,0,60,1.0,2,7.862797551685136e-06
3.23,-0.17718181630665902,77.50065668969144,0,60,1.0,2,1.5451522151512537e-05
3.235,-0.11494332516451301,77.50128514742521,0,60,1.0,2,3.023876294605543e-05
3.24,-0.061810214049552864,77.50248910111931,0,60,1.0,2,5.8567085160214394e-05
3.245,-0.026546104631500547,77.50475076687931,0,60,1.0,2,0.00011178275010145038
3.25,-0.00719600351942686,77.50890971075603,0,60,1.0,2,0.00020964025308303996
3.255,0.0022072757983807078,77.51638746319077,0,60,1.0,2,0.0003855873691945282
3.26,0.006917199873730717,77.52952295821818,0,60,1.0,2,0.0006946578404277742
3.265,0.01004859748264829,77.55205296713095,0,60,1.0,2,0.0012247756971987655
3.27,0.013037082251128167,77.58976923193298,0,60,1.0,2,0.0021122172219523853
3.275,0.01645163937690478,77.65137158913011,0,60,1.0,2,0.0035616844501201767
3.28,0.020526639934696615,77.74950933960535,0,60,1.0,2,0.005870807990714197
3.285,0.02539629541761738,77.90195754734947,0,60,1.0,2,0.009457824643516901
3.29,0.031171612185577933,78.13280954845649,0,60,1.0,2,0.014889636434270414
3.295,0.03795853426638131,78.47348539969117,0,60,1.0,2,0.022905538816262845
3.3,0.0458588961882057,78.96326918151414,0,60,1.0,2,0.03442986309445025
3.305,0.054966995891435555,79.64901532307513,0,60,1.0,2,0.050565066425297255
3.31,0.06536491004445595,80.58363230643764,0,60,1.0,2,0.07255605426912085
3.315,0.07711726085088699,81.82299164268099,0,60,1.0,2,0.10171745041602327
3.32,0.09026570629555215,83.42104740979093,0,60,1.0,2,0.139318762583316
3.325,0.10482339848670268,85.42319949161549,0,60,1.0,2,0.18642822333212922
3.33,0.12076968927580028,87.85828024175694,0,60,1.0,2,0.24372424098251633
3.335,0.13804539501007884,90.72994635140763,0,60,1.0,2,0.31129285532723844
3.34,0.15654895051787066,94.00864020707704,0,60,1.0,2,0.38843859310769496
3.345,0.17613378141900526,97.62555096793857,0,60,1.0,2,0.47354237571620156
3.35,0.19660720058055794,101.4700561076917,0,60,1.0,2,0.5640013201809813
3.355,0.21773108748496234,105.39188588857056,0,60,1.0,2,0.656279667966366
3.36,0.23922453870058807,109.20870606171526,0,60,1.0,2,0.7460872014521238
3.365,0.2607685857914563,112.7190103692385,0,60,1.0,2,0.828682596923259
3.37,0.2820129681603682,115.71928120045192,0,60,1.0,2,0.8992772047165157
3.375,0.30258482867153996,118.02349647615935,0,60,1.0,2,0.9534940347331612
3.38,0.3220990771751686,119.48243235510543,0,60,1.0,2,0.9878219377671866
3.385,0.3401700499968971,120.0,0,60,1.0,2,1.0
3.39,0.3564239911198326,119.54414514623332,0,60,1.0,2,0.989274003440784
3.395,0.3705118017738417,118.15060626577718,0,60,1.0,2,0.9564848533124044
3.4,0.3821214567925213,115.9189340023266,0,60,1.0,2,0.9039749177018022
3.405,0.39098947374066967,113.0014023537604,0,60,1.0,2,0.835327114206127
3.41,0.3969108472035567,109.58654217728734,0,60,1.0,2,0.7549774629949962
3.415,0.3997469255491936,105.87978274020551,0,60,1.0,2,0.6677595938871885
3.42,0.3994308076379137,102.08396338043309,0,60,1.0,2,0.5784461971866609
3.425,0.3959699661768434,98.38225280045256,0,60,1.0,2,0.49134712471653086
3.43,0.38944595408114946,94.92537560220612,0,60,1.0,2,0.41000883769896745
3.435,0.38001120995358023,91.82416132737285,0,60,1.0,2,0.3370390900558317
3.44,0.3678831374098315,89.14749954500232,0,60,1.0,2,0.27405881282358396
3.445,0.35333577933796634,86.92498677093954,0,60,1.0,2,0.2217643946103421
3.45,0.33668953221163944,85.15301231421464,0,60,1.0,2,0.18007087798152083
3.455,0.3182994390982644,83.802800714477,0,60,1.0,2,0.1483011932818118
3.46,0.29854265738230645,82.82898633651617,0,60,1.0,2,0.1253879138003804
3.465,0.2778057157821067,82.17756644157681,0,60,1.0,2,0.11006038686063094
3.47,0.2564721553719815,81.79246348760998,0,60,1.0,2,0.10099914088494068
3.475,0.23491109433464996,81.6203288855974,0,60,1.0,2,0.096948914955233
3.48,0.21346717185309805,81.61356473758555,0,60,1.0,2,0.09678975853142467
3.485,0.19245222055656455,81.73178486073043,0,60,1.0,2,0.09957140848777479
3.49,0.17213889801761392,81.9420707420853,0,60,1.0,2,0.1045193115784778
3.495,0.15275638501270183,82.21841509548847,0,60,1.0,2,0.11102153165855216
3.5,0.13448814019607322,82.54071215799348,0,60,1.0,2,0.11860499195278781
3.505,0.11747159495449566,82.89358016634176,0,60,1.0,2,0.1269077686198062
3.51,0.10179958433370105,83.26521429635454,0,60,1.0,2,0.13565210109069512
3.515,0.08752324394101413,83.64638683025535,0,60,1.0,2,0.14462086659424359
3.52,0.07465606047174059,84.02964611158836,0,60,1.0,2,0.15363873203737324
3.525,0.0631787448609295,84.40872047275327,0,60,1.0,2,0.16255812877066525
3.53,0.05304460019959574,84.77810639599608,0,60,1.0,2,0.1712495622587312
3.535,0.044185078305849994,85.13280774851903,0,60,1.0,2,0.17959547643574184
3.54,0.03651525513023255,85.46819036181611,0,60,1.0,2,0.18748683204273206
3.545,0.0299390014708757,85.77991932370172,0,60,1.0,2,0.1948216311459228
3.55,0.024353677220580638,86.06395196190566,0,60,1.0,2,0.20150475204483903
3.555,0.01965423034339045,86.31656557761202,0,60,1.0,2,0.20744860182616529
3.56,0.015736632374757337,86.53440443454016,0,60,1.0,2,0.21257422198918033
3.565,0.012500627640593535,86.71453489258448,0,60,1.0,2,0.21681258570787015
3.57,0.009851811652115898,86.85450086784542,0,60,1.0,2,0.22010590277283335
3.575,0.007703084175428559,86.95237417392687,0,60,1.0,2,0.22240880409239694
3.58,0.005975544002062424,87.0067959844984,0,60,1.0,2,0.2236893172823152
3.585,0.004598905818663047,87.01700687163441,0,60,1.0,2,0.22392957345022135
3.59,0.0035115256454839104,86.98286378900848,0,60,1.0,2,0.22312620680019946
3.595,0.002660121266303676,86.90484310169278,0,60,1.0,2,0.22129042592218298
3.6,0.0019992692560877024,86.78402938747664,0,60,1.0,2,0.21844775029356792
3.605,0.0014907520044639367,86.62209028632776,0,60,1.0,2,0.21463741850182969
3.61,0.0011028178277539807,86.42123816980182,0,60,1.0,2,0.20991148634827822
3.615,0.0008094059938923333,86.18417984182693,0,60,1.0,3,0.20433364333710427
3.62,0.0005893771793717645,85.91405586012334,0,60,1.0,3,0.1979777849440786
3.625,0.0004257792353490551,85.61437137477117,0,60,1.0,3,0.19092638528873335
3.63,0.0003051686392901525,85.28892060876314,0,60,1.0,3,0.18326872020619142
3.635,0.00021699992642659966,84.94170724870098,0,60,1.0,3,0.17509899408708185
3.64,0.00015308884054097838,84.57686306932412,0,60,1.0,3,0.16651442516056753
3.645,0.00010714989329311098,84.19856708424052,0,60,1.0,3,0.15761334315860054
3.65,7.440535854020571e-05,83.81096740174658,0,60,1.0,3,0.1484933506293313
3.655,5.1260276743925106e-05,83.41810777713161,0,60,1.0,3,0.13924959475603788
3.66,3.503659887882241e-05,83.02386060247123,0,60,1.0,3,0.1299731906463819
3.665,2.375894748103639e-05,82.63186777501524,0,60,1.0,3,0.12074983000035854
3.67,1.5984413869232557e-05,82.24549055077581,0,60,1.0,3,0.11165860119472501
3.675,1.0669166579899869e-05,81.86776913642002,0,60,1.0,3,0.10277103850400053
3.68,7.06526633560511e-06,81.50139241554777,0,60,1.0,3,0.09415040977759458
3.685,4.641847214699205e-06,81.14867785950845,0,60,1.0,3,0.08585124375314007
3.69,3.025641074479182e-06,80.81156135115772,0,60,1.0,3,0.07791909061547579
3.695,1.9566278676921314e-06,80.49159636340788,0,60,1.0,3,0.07039050266842069
3.7,1.2553456560008793e-06,80.18996169166836,0,60,1.0,3,0.0632932162745496
3.705,7.990660428214668e-07,79.90747674623394,0,60,1.0,3,0.05664651167609269
3.71,5.046221251618276e-07,79.64462327056756,0,60,1.0,3,0.05046172401335445
3.715,3.1616527078858815e-07,79.40157226481837,0,60,1.0,3,0.04474287681925576
3.72,1.9652884407760343e-07,79.17821485897923,0,60,1.0,3,0.03948740844657015
3.725,1.2120002189836396e-07,78.97419589290332,0,60,1.0,3,0.034686962185960575
3.73,7.415549848886236e-08,78.78894901536232,0,60,1.0,3,0.030328212126172236
3.735,4.501406988770349e-08,78.62173220460336,0,60,1.0,3,0.0263936989318438
3.74,0.0,78.4716627308444,0,60,1.0,3,0.022862652490456478
3.745,0.0,78.33775071891439,0,60,1.0,3,0.019711781621515122
3.75,0.0,78.21893061897777,0,60,1.0,3,0.016916014564182714
3.755,0.0,78.11409004761917,0,60,1.0,3,0.014449177591039334
3.76,0.0,78.02209561389758,0,60,1.0,3,0.012284602679942977
3.765,0.0,77.94181548966863,0,60,1.0,3,0.010395658580438293
3.77,0.0,77.87213861598158,0,60,1.0,3,0.008756202728978438
3.775,0.0,77.81199055431146,0,60,1.0,3,0.0073409542190932715
3.78,0.0,77.76034609057041,0,60,1.0,3,0.006125790366362547
3.785,0.0,77.7162387801301,0,60,1.0,3,0.0050879712971787765
3.79,0.0,77.67876768333062,0,60,1.0,3,0.00420629843130869
3.795,0.0,77.64710158383804,0,60,1.0,3,0.00346121373736557
3.8,0.0,77.62048100809753,0,60,1.0,3,0.0028348472493535956
3.805,0.0,77.59821837486274,0,60,1.0,3,0.0023110205850056286
3.81,0.0,77.57969660154583,0,60,1.0,3,0.001875214154019619
3.815,0.0,77.56436648127566,0,60,1.0,3,0.0015145054417801287
3.82,0.0,77.55174312345649,0,60,1.0,3,0.0012174852577997546
3.825,0.0,77.54140172358554,0,60,1.0,3,0.0009741582020126316
3.83,0.0,77.53297289723739,0,60,1.0,3,0.0007758328761737817
3.835,0.0,77.52613778034294,0,60,1.0,3,0.0006150065963043637
3.84,0.0,77.52062306478282,0,60,1.0,3,0.0004852485831252927
3.845,0.0,77.51619610618371,0,60,1.0,3,0.0003810848513814883
3.85,0.0,77.51266021065541,0,60,1.0,3,0.0002978873095390982
3.855,0.0,77.50985017975476,0,60,1.0,3,0.00023176893540621408
3.86,0.0,77.50762816866609,0,60,1.0,3,0.00017948632155500544
3.865,0.0,77.50587989168099,0,60,1.0,3,0.0001383503924938957
3.87,0.0,77.50451119158359,0,60,1.0,3,0.0001061456843197394
3.875,0.0,77.50344497539443,0,60,1.0,3,8.105824457482627e-05
3.88,0.0,77.50261850787646,0,60,1.0,3,6.161195003441582e-05
3.885,0.0,77.50198104596413,0,60,1.0,3,4.6612846214804236e-05
3.89,0.0,77.5014917914954,0,60,1.0,3,3.510097636228024e-05
3.895,0.0,77.50111813594486,0,60,1.0,3,2.63090810556284e-05
3.9,0.0,77.50083416890804,0,60,1.0,3,1.962750371864572e-05
3.905,0.0,77.5006194215277,0,60,1.0,3,1.4574624181223578e-05
3.91,0.0,77.50045781656114,0,60,1.0,3,1.0772154379711698e-05
3.915,0.0,77.50033679808233,0,60,1.0,3,7.924660760703345e-06
3.92,0.0,77.50024661564738,0,60,1.0,3,5.802721114926445e-06
3.925,0.0,77.50017973992418,0,60,1.0,3,4.229174686543047e-06
3.93,0.0,77.50013038912986,0,60,1.0,3,3.0679795262291437e-06
3.935,0.0,77.50009414800623,0,60,1.0,3,2.2152472053328573e-06
3.94,0.0,77.50006766339348,0,60,1.0,3,1.5920798465926697e-06
3.945,0.0,77.5000484026712,0,60,1.0,3,1.1388863811134798e-06
3.95,0.0,77.5000344633739,0,60,1.0,3,8.109029151375366e-07
3.955,0.0,77.50002442413327,0,60,1.0,3,5.74685488760117e-07
3.96,0.0,77.50001722873685,0,60,1.0,3,4.053820435621995e-07
3.965,0.0,77.50001209652484,0,60,1.0,3,2.8462411391421267e-07
3.97,0.0,77.50000845358089,0,60,1.0,3,1.9890778563582418e-07
3.975,0.0,77.50000588022185,0,60,1.0,3,1.383581611528772e-07
3.98,0.001684486749771458,77.50000407117355,0,60,1.0,3,9.579231880921083e-08
3.985,0.003097557930867117,77.5000028055527,0,60,1.0,3,6.601300463123206e-08
3.99,0.005475106668887023,77.50000192437696,0,60,1.0,3,4.527945788247641e-08
3.995,0.00930222931468658,77.5000013138167,0,60,1.0,3,3.09133340311639e-08
4.0,0.01519157517868857,77.50000089279615,0,60,1.0,3,2.1006968274698867e-08
4.005,0.023847336626128316,77.50000060386903,0,60,1.0,3,1.4208682962228468e-08
4.01,0.0359830743700859,77.50000040654264,0,60,1.0,3,9.565709165947149e-09
4.015,0.05218887796857759,77.50000027242211,0,60,1.0,3,6.4099320779325135e-09
4.02,0.0727577001223134,77.50000018169858,0,60,1.0,3,4.2752607415048475e-09
4.025,0.0974992498694751,77.50000012062397,0,60,1.0,3,2.8382109629841153e-09
4.03,0.12558706050443358,77.50000007970556,0,60,1.0,3,1.875424887283075e-09
4.035,0.15549263588878245,77.50000005242235,0,60,1.0,3,1.233467080109061e-09
4.04,0.1850529723539114,77.50000003431762,0,60,1.0,3,8.074734710937585e-10
4.045,0.21169159439317053,77.50000002236098,0,60,1.0,3,5.261406787373262e-10
4.05,0.23277292922115492,77.50000001450232,0,60,1.0,3,3.412310434214305e-10
4.055,0.24602692519491282,77.50000000936176,0,60,1.0,3,2.202766074119341e-10
4.06,0.24995056064839283,77.50000000601518,0,60,1.0,3,1.4153375987542164e-10
4.065,0.24408826520424054,77.50000000384694,0,60,1.0,3,9.05161227017422e-11
4.07,0.22911894216865275,77.5000000024488,0,60,1.0,3,5.761882996867986e-11
4.075,0.20672661788705934,77.50000000155154,0,60,1.0,3,3.650684983072364e-11
4.08,0.17928878030241233,77.50000000097847,0,60,1.0,3,2.3022922130835734e-11
4.085,0.14946211903866036,77.5000000006142,0,60,1.0,3,1.4451603312730133e-11
4.09,0.1197651512573837,77.50000000038374,0,60,1.0,3,9.02907552646117e-12
4.095,0.09224675744988023,77.50000000023864,0,60,1.0,3,5.615126664291465e-12
4.1,0.06829565320281596,77.50000000014771,0,60,1.0,3,3.4754735037602265e-12
4.105,0.04860224607515734,77.500000000091,0,60,1.0,3,2.1413250257918502e-12
4.11,0.03324612389699793,77.5000000000558,0,60,1.0,3,1.3130829756846652e-12
4.115,0.021859876340472782,77.50000000003406,0,60,1.0,3,8.01492205937393e-13
4.12,0.01381595518554205,77.50000000002069,0,60,1.0,3,4.868471638902145e-13
4.125,0.008394095110402422,77.50000000001252,0,60,1.0,3,2.945826589198345e-13
4.13,0.0049052535271608,77.50000000000753,0,60,1.0,3,1.7721771762487205e-13
4.135,0.0027671663551903634,77.5000000000045,0,60,1.0,3,1.0599625752280083e-13
4.14,0.0015425553464444616,77.50000000000269,0,60,1.0,3,6.319650685113362e-14
4.145,0.0009638206637011801,77.50000000000159,0,60,1.0,3,3.744978183770881e-14
4.15,0.0009804935156568228,77.50000000000094,0,60,1.0,3,2.2068621440078406e-14
4.155,0.0018793744894085216,77.50000000000055,0,60,1.0,3,1.3040549032773603e-14
4.16,0.004535525206900863,77.50000000000033,0,60,1.0,3,7.690580198815202e-15
4.165,0.010832767979632273,77.50000000000018,0,60,1.0,3,4.3468496775912015e-15
4.17,0.024208003392322392,77.50000000000011,0,60,1.0,3,2.6749844169792007e-15
4.175,0.0500971897335304,77.50000000000006,0,60,1.0,3,1.3374922084896003e-15
4.18,0.09582894921774403,77.50000000000004,0,60,1.0,3,1.0031191563672002e-15
4.185,0.16937896721820658,77.50000000000001,0,60,1.0,3,3.343730521224001e-16
4.19,0.27661303008991756,77.50000000000001,0,60,1.0,3,3.343730521224001e-16
4.195,0.4173782800009149,77.5,0,60,1.0,3,0.0
4.2,0.5818720934538056,77.5,0,60,1.0,3,0.0
4.205,0.7494718801585675,77.5,0,60,1.0,3,0.0
4.21,0.891813020752378,77.5,0,60,1.0,3,0.0
4.215,0.9800361632936612,77.5,0,60,1.0,3,0.0
4.22,0.993574479225126,77.50000249060646,1,60,1.0,3,5.860250499769309e-08
4.225,0.9263438449375362,77.50000385734029,0,60,1.0,3,9.076094797552179e-08
4.23,0.7873015962290536,77.50000610730334,0,60,1.0,3,1.437012549425109e-07
4.235,0.5959516244629897,77.50000999976028,0,60,1.0,3,2.3528847718272813e-07
4.24,0.376910120078773,77.50001711607312,0,60,1.0,3,4.027311323331078e-07
4.245,0.15739335672107918,77.5000308127143,0,60,1.0,3,7.250050423542288e-07
4.25,-0.033361226269301235,77.50005823243188,0,60,1.0,3,1.3701748678292514e-06
4.255,-0.1680180840843834,77.50011443699209,0,60,1.0,3,2.6926351080526407e-06
4.26,-0.23069703190837854,77.50023065316174,0,60,1.0,3,5.427133217327697e-06
4.265,-0.22587267821131068,77.50047021644501,0,60,1.0,3,1.106391635316333e-05
4.27,-0.17718181630665902,77.5009583966,0,60,1.0,3,2.255050823524631e-05
4.275,-0.11494332516451301,77.50193629964134,0,60,1.0,3,4.5559991561022426e-05
4.28,-0.061810214049552864,77.50385483894526,0,60,1.0,3,9.07020928296146e-05
4.285,-0.026546104631500547,77.50753250751332,0,60,1.0,3,0.0001772354709015979
4.29,-0.00719600351942686,77.51440996954433,0,60,1.0,3,0.00033905810692544944
4.295,0.0022072757983807078,77.52694391670826,0,60,1.0,3,0.0006339745107826435
4.3,0.006917199873730717,77.54918926053296,0,60,1.0,3,0.0011573943654813025
4.305,0.01004859748264829,77.5876176648087,0,60,1.0,3,0.0020615921131459745
4.31,0.013037082251128167,77.65220482613245,0,60,1.0,3,0.003581290026645815
4.315,0.01645163937690478,77.7577808422973,0,60,1.0,3,0.006065431583465732
4.32,0.020526639934696615,77.92557045679185,0,60,1.0,3,0.010013422512749311
4.325,0.02539629541761738,78.1847502601857,0,60,1.0,3,0.016111770827898695
4.33,0.031171612185577933,78.57372412531626,0,60,1.0,3,0.02526409706626496
4.335,0.03795853426638131,79.14068530680169,0,60,1.0,3,0.038604360160039666
4.34,0.0458588961882057,79.94292800606925,0,60,1.0,3,0.05748065896633534
4.345,0.054966995891435555,81.0443400664048,0,60,1.0,3,0.08339623685658352
4.35,0.06536491004445595,82.51060356247285,0,60,1.0,3,0.11789655441112593
4.355,0.07711726085088699,84.4018923138275,0,60,1.0,3,0.16239746620770595
4.36,0.09026570629555215,86.76329520888174,0,60,1.0,3,0.2179598872678057
4.365,0.10482339848670268,89.61377301640115,0,60,1.0,3,0.28502995332708597
4.37,0.12076968927580028,92.93507670582724,0,60,1.0,3,0.3631782754312292
4.375,0.13804539501007884,96.66256820647882,0,60,1.0,3,0.45088395779950174
4.38,0.15654895051787066,100.68011755916041,0,60,1.0,3,0.5454145308037743
4.385,0.17613378141900526,104.82105425803283,0,60,1.0,3,0.6428483354831255
4.39,0.19660720058055794,108.8764532668383,0,60,1.0,3,0.7382694886314893
4.395,0.21773108748496234,112.61088723201624,0,60,1.0,3,0.8261385231062645
4.4,0.23922453870058807,115.78436216317712,0,60,1.0,3,0.9008085214865205
4.405,0.2607685857914563,118.1777713622895,0,60,1.0,3,0.9571240320538708
4.41,0.2820129681603682,119.61819191512663,0,60,1.0,3,0.9910162803559207
4.415,0.30258482867153996,120.0,0,60,1.0,3,1.0
4.42,0.3220990771751686,119.29824545748835,0,60,1.0,3,0.9834881284114906
4.425,0.3401700499968971,117.5719546188641,0,60,1.0,3,0.9428695204438611
4.43,0.3564239911198326,114.95677661133668,0,60,1.0,3,0.8813359202667453
4.435,0.3705118017738417,111.64826619736436,0,60,1.0,3,0.8034886164085733
4.44,0.3821214567925213,107.87868369700878,0,60,1.0,3,0.7147925575766773
4.445,0.39098947374066967,103.89114672130673,0,60,1.0,3,0.6209681581483936
4.45,0.3969108472035567,99.91511507625712,0,60,1.0,3,0.5274144723825206
4.455,0.3997469255491936,96.14656082953842,0,60,1.0,3,0.4387426077538451
4.46,0.3994308076379137,92.73498319976926,0,60,1.0,3,0.3584701929357473
4.465,0.3959699661768434,89.77799372275705,0,60,1.0,3,0.2888939699472246
4.47,0.38944595408114946,87.32285486110474,0,60,1.0,3,0.23112599673187634
4.475,0.38001120995358023,85.37336529966561,0,60,1.0,3,0.185255654109779
4.48,0.3678831374098315,83.89998207819981,0,60,1.0,3,0.15058781360470147
4.485,0.35333577933796634,82.8510525309259,0,60,1.0,3,0.125907118374727
4.49,0.33668953221163944,82.16338984647568,0,60,1.0,3,0.10972681991707485
4.495,0.3182994390982644,81.7710004035094,0,60,1.0,3,0.10049412714139776
4.5,0.29854265738230645,81.61139076399436,0,60,1.0,3,0.0967386062116321
4.505,0.2778057157821067,81.62941598109197,0,60,1.0,3,0.0971627289668698
4.51,0.2564721553719815,81.7790040818856,0,60,1.0,3,0.1006824489855436
4.515,0.23491109433464996,82.02328621441396,0,60,1.0,3,0.1064302638685637
4.52,0.21346717185309805,82.33370255304422,0,60,1.0,3,0.1137341777186875
4.525,0.19245222055656455,82.68858789463043,0,60,1.0,3,0.12208442105012778
4.53,0.17213889801761392,83.07161944197627,0,60,1.0,3,0.13109692804650042
4.535,0.15275638501270183,83.47037548139828,0,60,1.0,3,0.1404794230917242
4.54,0.13448814019607322,83.87513591955003,0,60,1.0,3,0.1500031981070596
4.545,0.11747159495449566,84.27796761085855,0,60,1.0,3,0.15948159084373068
4.55,0.10179958433370105,84.67208126420148,0,60,1.0,3,0.16875485327532896
4.555,0.08752324394101413,85.05141767098016,0,60,1.0,3,0.17768041578776841
4.56,0.07465606047174059,85.41041137477472,0,60,1.0,3,0.18612732646528765
4.565,0.0631787448609295,85.74388204533,0,60,1.0,3,0.1939736951842352
4.57,0.05304460019959574,86.0470116192692,0,60,1.0,3,0.20110615574751056
4.575,0.044185078305849994,86.31537463568876,0,60,1.0,3,0.20742057966326483
4.58,0.03651525513023255,86.54499785256412,0,60,1.0,3,0.21282347888386172
4.585,0.0299390014708757,86.73243223546459,0,60,1.0,3,0.21723369965799025
4.59,0.024353677220580638,86.87482563242001,0,60,1.0,3,0.2205841325275297
4.595,0.01965423034339045,86.96998815607745,0,60,1.0,3,0.22282325073123407
4.6,0.015736632374757337,87.01644488029292,0,60,1.0,3,0.22391635012453937
4.605,0.012500627640593535,87.01347229325384,0,60,1.0,3,0.22384640690009036
4.61,0.009851811652115898,86.96111631870204,0,60,1.0,3,0.22261450161651858
4.615,0.007703084175428559,86.86019081224607,0,60,1.0,3,0.22023978381755469
4.62,0.005975544002062424,86.7122563730027,0,60,1.0,3,0.21675897348241652
4.625,0.004598905818663047,86.51958013614413,0,60,1.0,3,0.21222541496809713
4.63,0.0035115256454839104,86.28507794654647,0,60,1.0,3,0.2067077163893286
4.635,0.002660121266303676,86.01224095394758,0,60,1.0,3,0.20028802244582547
4.64,0.0019992692560877024,85.7050492026738,0,60,1.0,3,0.19305998123938367
4.645,0.0014907520044639367,85.36787519896696,0,60,1.0,3,0.18512647526981074
4.65,0.0011028178277539807,85.00538071378118,0,60,1.0,3,0.1765971932654395
4.655,0.0008094059938923333,84.6224102114667,0,60,1.0,3,0.1675861226227459
4.66,0.0005893771793717645,84.22388428441178,0,60,1.0,3,0.15820904198615957
4.665,0.0004257792353490551,83.81469632673434,0,60,1.0,3,0.14858109004080788
4.67,0.0003051686392901525,83.39961540923211,0,60,1.0,3,0.13881448021722617
4.675,0.00021699992642659966,82.98319794133803,0,60,1.0,3,0.1290164221491302
4.68,0.00015308884054097838,82.5697102464525,0,60,1.0,3,0.11928729991652945
4.685,0.00010714989329311098,82.16306366028918,0,60,1.0,3,0.10971914494798077
4.69,7.440535854020571e-05,81.76676321464303,0,60,1.0,3,0.10039442857983612
4.695,5.1260276743925106e-05,81.3838704178972,0,60,1.0,3,0.09138518630346351
4.7,3.503659887882241e-05,81.01698011357695,0,60,1.0,3,0.08275247326063409
4.705,2.375894748103639e-05,80.66821091136433,0,60,1.0,3,0.07454613909092533
4.71,1.5984413869232557e-05,80.33920825933811,0,60,1.0,3,0.06680490021972017
4.715,1.0669166579899869e-05,80.03115887537963,0,60,1.0,3,0.059556679420697214
4.72,7.06526633560511e-06,79.74481498835964,0,60,1.0,3,0.052819176196697314
4.725,4.641847214699205e-06,79.48052665965687,0,60,1.0,3,0.0466006272860441
4.73,3.025641074479182e-06,79.23828036186586,0,60,1.0,3,0.0409007143968438
4.735,1.9566278676921314e-06,79.01774197921334,0,60,1.0,3,0.03571157598149037
4.74,1.2553456560008793e-06,78.8183024547782,0,60,1.0,3,0.03101888128889895
4.745,7.990660428214668e-07,78.6391244320625,0,60,1.0,3,0.02680292781323534
4.75,5.046221251618276e-07,78.47918841005006,0,60,1.0,3,0.023039727295295454
4.755,3.1616527078858815e-07,78.3373371380437,0,60,1.0,3,0.019702050306910437
4.76,1.9652884407760343e-07,78.21231720572483,0,60,1.0,3,0.016760404840584227
4.765,1.2120002189836396e-07,78.10281702217611,0,60,1.0,3,0.014183929933555566
4.77,7.415549848886236e-08,78.00750061349781,0,60,1.0,3,0.011941190905830849
4.775,4.501406988770349e-08,77.92503689230902,0,60,1.0,3,0.010000868054329965
4.78,0.0,77.85412425603842,0,60,1.0,3,0.008332335436198064
4.785,0.0,77.79351054877074,0,60,1.0,3,0.006906130559311537
4.79,0.0,77.74200856992353,0,60,1.0,3,0.005694319292318288
4.795,0.0,77.69850743053568,0,60,1.0,3,0.004670763071427874
4.8,0.0,77.66198014454383,0,60,1.0,3,0.003811297518678416
4.805,0.0,77.63148789963498,0,60,1.0,3,0.0030938329325876754
4.81,0.0,77.60618148274689,0,60,1.0,3,0.0024983878293386064
4.815,0.0,77.58530034248456,0,60,1.0,3,0.0020070668819896047
4.82,0.0,77.56816975854922,0,60,1.0,4,0.0016039943188051143
4.825,0.0,77.55419656084052,0,60,1.0,4,0.0012752131962476116
4.83,0.0,77.542863802236,0,60,1.0,4,0.0010085600526117426
4.835,0.0,77.53372474296843,0,60,1.0,4,0.0007935233639630844
4.84,0.0,77.52639645440267,0,60,1.0,4,0.0006210930447687535
4.845,0.0,77.52055329875957,0,60,1.0,4,0.0004836070296368475
4.85,0.0,77.51592049130771,0,60,1.0,4,0.00037459979547553997
4.855,0.0,77.5122679045549,0,60,1.0,4,0.0002886565777624342
4.86,0.0,77.50940423131003,0,60,1.0,4,0.00022127603082420887
4.865,0.0,77.50717158596277,0,60,1.0,4,0.0001687431991239036
4.87,0.0,77.50544059134097,0,60,1.0,4,0.00012801391390519925
4.875,0.0,77.50410597211048,0,60,1.0,4,9.661110848188561e-05
4.88,0.0,77.50308265466796,0,60,1.0,4,7.253305101090411e-05
4.885,0.0,77.50230235743923,0,60,1.0,4,5.4173116217270946e-05
4.89,0.0,77.50171064389794,0,60,1.0,4,4.025044465733759e-05
4.895,0.0,77.50126440285658,0,60,1.0,4,2.9750655448879117e-05
4.9,0.0,77.50092971602302,0,60,1.0,4,2.1875671129959407e-05
4.905,0.0,77.50068007084202,0,60,1.0,4,1.6001666871127728e-05
4.91,0.0,77.5004948766761,0,60,1.0,4,1.1644157084714715e-05
4.915,0.0,77.50035824390325,0,60,1.0,4,8.429268311762345e-06
4.92,0.0,77.50025798806918,0,60,1.0,4,6.070307510111995e-06
4.925,0.0,77.50018482445232,0,60,1.0,4,4.348810642795798e-06
4.93,0.0,77.50013172197245,0,60,1.0,4,3.0993405282649347e-06
4.935,0.0,77.50009338906223,0,60,1.0,4,2.1973896995110835e-06
4.94,0.0,77.50006586774495,0,60,1.0,4,1.5498292929591758e-06
4.945,0.0,77.50004621559701,0,60,1.0,4,1.0874258119950836e-06
4.95,0.0,77.5000322584378,0,60,1.0,4,7.590220658424669e-07
4.955,0.0,77.5000223994362,0,60,1.0,4,5.270455577534877e-07
4.96,0.0,77.50001547283287,0,60,1.0,4,3.6406665578718223e-07
4.965,0.001684486749771458,77.50001063265135,0,60,1.0,4,2.5018003183878834e-07
4.97,0.003097557930867117,77.50000726862568,0,60,1.0,4,1.7102648658852988e-07
4.975,0.005475106668887023,77.50000494312994,0,60,1.0,4,1.1630893970290987e-07
4.98,0.00930222931468658,77.50000334418844,0,60,1.0,4,7.86867868849667e-08
4.985,0.01519157517868857,77.50000225070433,0,60,1.0,4,5.2957748868506956e-08
4.99,0.023847336626128316,77.50000150690246,0,60,1.0,4,3.545652856808053e-08
4.995,0.0359830743700859,77.50000100366974,0,60,1.0,4,2.3615758530414656e-08
5.0,0.05218887796857759,77.50000066502123,0,60,1.0,4,1.564755841761379e-08
5.005,0.0727577001223134,77.50000043834815,0,60,1.0,4,1.0314074175125022e-08
5.01,0.0974992498694751,77.50000028743645,0,60,1.0,4,6.763210582421915e-09
5.015,0.12558706050443358,77.50000018750096,0,60,1.0,4,4.411787264924736e-09
5.02,0.15549263588878245,77.50000012167578,0,60,1.0,4,2.8629595844369546e-09
5.025,0.1850529723539114,77.50000007854956,0,60,1.0,4,1.8482249769851263e-09
5.03,0.21169159439317053,77.5000000504455,0,60,1.0,4,1.1869527792013661e-09
5.035,0.23277292922115492,77.5000000322285,0,60,1.0,4,7.583176230742965e-10
5.04,0.24602692519491282,77.50000002048314,0,60,1.0,4,4.819562892568202e-10
5.045,0.24995056064839283,77.50000001295066,0,60,1.0,4,3.047215186062899e-10
5.05,0.24408826520424054,77.50000000814568,0,60,1.0,4,1.9166296784961186e-10
5.055,0.22911894216865275,77.50000000509684,0,60,1.0,4,1.1992557012811578e-10
5.06,0.20672661788705934,77.50000000317259,0,60,1.0,4,7.464911825937794e-11
5.065,0.17928878030241233,77.50000000196455,0,60,1.0,4,4.622473384455696e-11
5.07,0.14946211903866036,77.5000000012102,0,60,1.0,4,2.847520911874359e-11
5.075,0.1197651512573837,77.50000000074162,0,60,1.0,4,1.7449926471111694e-11
5.08,0.09224675744988023,77.50000000045212,0,60,1.0,4,1.063807865327416e-11
5.085,0.06829565320281596,77.5000000002742,0,60,1.0,4,6.45172804070171e-12
5.09,0.04860224607515734,77.50000000016543,0,60,1.0,4,3.892436699756859e-12
5.095,0.03324612389699793,77.50000000009929,0,60,1.0,4,2.3362645151792095e-12
5.1,0.021859876340472782,77.50000000005929,0,60,1.0,4,1.3950043734546533e-12
5.105,0.01381595518554205,77.50000000003521,0,60,1.0,4,8.285764231593074e-13
5.11,0.008394095110402422,77.5000000000208,0,60,1.0,4,4.895221483071937e-13
5.115,0.0049052535271608,77.50000000001224,0,60,1.0,4,2.8789519787738646e-13
5.12,0.0027671663551903634,77.50000000000715,0,60,1.0,4,1.6818964521756725e-13
5.125,0.0015425553464444616,77.50000000000416,0,60,1.0,4,9.797130427186323e-14
5.13,0.0009638206637011801,77.5000000000024,0,60,1.0,4,5.6509045808685616e-14
5.135,0.0009804935156568228,77.50000000000138,0,60,1.0,4,3.243418605587281e-14
5.14,0.0018793744894085216,77.5000000000008,0,60,1.0,4,1.8724890918854405e-14
5.145,0.004535525206900863,77.50000000000045,0,60,1.0,4,1.0699937667916803e-14
5.15,0.010832767979632273,77.50000000000026,0,60,1.0,4,6.0187149382032015e-15
5.155,0.024208003392322392,77.50000000000014,0,60,1.0,4,3.343730521224001e-15
5.16,0.0500971897335304,77.50000000000009,0,60,1.0,4,2.0062383127344005e-15
5.165,0.09582894921774403,77.50000000000004,0,60,1.0,4,1.0031191563672002e-15
5.17,0.16937896721820658,77.50000000000003,0,60,1.0,4,6.687461042448002e-16
5.175,0.27661303008991756,77.50000000000001,0,60,1.0,4,3.343730521224001e-16
5.18,0.4173782800009149,77.5,0,60,1.0,4,0.0
5.185,0.5818720934538056,77.5,0,60,1.0,4,0.0
5.19,0.7494718801585675,77.5,0,60,1.0,4,0.0
5.195,0.891813020752378,77.5,0,60,1.0,4,0.0
5.2,0.9800361632936612,77.5,0,60,1.0,4,0.0
5.205,0.993574479225126,77.5000024966485,1,60,1.0,4,5.874467072263702e-08
5.21,0.9263438449375362,77.50000388454893,0,60,1.0,4,9.140115132729132e-08
5.215,0.7873015962290536,77.50000618232913,0,60,1.0,4,1.454665677743726e-07
5.22,0.5959516244629897,77.5000101847726,0,60,1.0,4,2.396417083700191e-07
5.225,0.376910120078773,77.50001756083037,0,60,1.0,4,4.1319600875474007e-07
5.23,0.15739335672107918,77.50003188149957,0,60,1.0,4,7.501529309780274e-07
5.235,-0.033361226269301235,77.50006080365405,0,60,1.0,4,1.4306742129707239e-06
5.24,-0.1680180840843834,77.50012058486693,0,60,1.0,4,2.8372909866902773e-06
5.245,-0.23069703190837854,77.50024513995355,0,60,1.0,4,5.7679989070306076e-06
5.25,-0.22587267821131068,77.50050363241509,0,60,1.0,4,1.1850174472690068e-05
5.255,-0.17718181630665902,77.50103350758017,0,60,1.0,4,2.4317825415878626e-05
5.26,-0.11494332516451301,77.50210036935763,0,60,1.0,4,4.942045547375742e-05
5.265,-0.061810214049552864,77.50420258594323,0,60,1.0,4,9.888437513489087e-05
5.27,-0.026546104631500547,77.50824711533218,0,60,1.0,4,0.00019404977252192754
5.275,-0.00719600351942686,77.51583324529174,0,60,1.0,4,0.0003725469480410565
5.28,0.0022072757983807078,77.52969102922935,0,60,1.0,4,0.0006986124524554029
5.285,0.006917199873730717,77.55432766935884,0,60,1.0,4,0.0012782981025609656
5.29,0.01004859748264829,77.5969322368778,0,60,1.0,4,0.0022807585147718865
5.295,0.013037082251128167,77.66856909864642,0,60,1.0,4,0.003966331732856829
5.3,0.01645163937690478,77.78564441251984,0,60,1.0,4,0.006721045000466909
5.305,0.020526639934696615,77.97155076923681,0,60,1.0,4,0.011095312217336789
5.31,0.02539629541761738,78.2582808201053,0,60,1.0,4,0.017841901649536432
5.315,0.031171612185577933,78.68766052792253,0,60,1.0,4,0.027944953598177214
5.32,0.03795853426638131,79.31171075246023,0,60,1.0,4,0.04262848829318186
5.325,0.0458588961882057,80.19154347445966,0,60,1.0,4,0.06333043469316856
5.33,0.054966995891435555,81.39419054317591,0,60,1.0,4,0.09162801278060964
5.335,0.06536491004445595,82.9869047835598,0,60,1.0,4,0.1291036419661128
5.34,0.07711726085088699,85.02880519220997,0,60,1.0,4,0.17714835746376406
5.345,0.09026570629555215,87.56025991780172,0,60,1.0,4,0.23671199806592272
5.35,0.10482339848670268,90.59105402879193,0,60,1.0,4,0.3080248006774572
5.355,0.12076968927580028,94.08904924277502,0,60,1.0,4,0.3903305704182357
5.36,0.13804539501007884,97.97153364558193,0,60,1.0,4,0.48168314460192774
5.365,0.15654895051787066,102.10159121830677,0,60,1.0,4,0.5788609698425121
5.37,0.17613378141900526,106.29144711748273,0,60,1.0,4,0.6774458145290054
5.375,0.19660720058055794,110.31382182199403,0,60,1.0,4,0.7720899252233888
5.38,0.21773108748496234,113.92095766616347,0,60,1.0,4,0.8569637097920817
5.385,0.23922453870058807,116.86941633089845,0,60,1.0,4,0.9263392077858458
5.39,0.2607685857914563,118.94734075580467,0,60,1.0,4,0.9752315471954041
5.395,0.2820129681603682,120.0,0,60,1.0,4,1.0
5.4,0.30258482867153996,119.94936806517826,0,60,1.0,4,0.9988086603571356
5.405,0.3220990771751686,118.80431883209974,0,60,1.0,4,0.9718663254611704
5.41,0.3401700499968971,116.65961054384493,0,60,1.0,4,0.9214026010316455
5.415,0.3564239911198326,113.6838413525704,0,60,1.0,4,0.8513845024134211
5.42,0.3705118017738417,110.09852371838782,0,60,1.0,4,0.7670240874914782
5.425,0.3821214567925213,106.15190294941635,0,60,1.0,4,0.6741624223392083
5.43,0.39098947374066967,102.09182171295444,0,60,1.0,4,0.5786310991283398
5.435,0.3969108472035567,98.14171008969322,0,60,1.0,4,0.48568729622807577
5.44,0.3997469255491936,94.48278858522536,0,60,1.0,4,0.39959502553471443
5.445,0.3994308076379137,91.24411073570738,0,60,1.0,4,0.32339084084017367
5.45,0.3959699661768434,88.50051791606685,0,60,1.0,4,0.2588357156721613
5.455,0.38944595408114946,86.27727400892925,0,60,1.0,4,0.20652409432774715
5.46,0.38001120995358023,84.55931872476093,0,60,1.0,4,0.1661016170531983
5.465,0.3678831374098315,83.3028005744429,0,60,1.0,4,0.13653648410453878
5.47,0.35333577933796634,82.44675842842192,0,60,1.0,4,0.1163943159628686
5.475,0.33668953221163944,81.9233555217599,0,60,1.0,4,0.10407895345317417
5.48,0.3182994390982644,81.6657405782961,0,60,1.0,4,0.09801742537167282
5.485,0.29854265738230645,81.61324823680155,0,60,1.0,4,0.0967823114541542
5.49,0.2778057157821067,81.71414190823803,0,60,1.0,4,0.09915628019383609
5.495,0.2564721553719815,81.92639917335062,0,60,1.0,4,0.10415056878472041
5.5,0.23491109433464996,82.21715152529522,0,60,1.0,4,0.1109918005951817
5.505,0.21346717185309805,82.56136080468661,0,60,1.0,4,0.11909084246321447
5.51,0.19245222055656455,82.94020128362216,0,60,1.0,4,0.12800473608522728
5.515,0.17213889801761392,83.33947177339249,0,60,1.0,4,0.13739933584452915
5.52,0.15275638501270183,83.74822470521731,0,60,1.0,4,0.14701705188746614
5.525,0.13448814019607322,84.1576901961562,0,60,1.0,4,0.1566515340272046
5.53,0.11747159495449566,84.56049942906901,0,60,1.0,4,0.16612939833103557
5.535,0.10179958433370105,84.95017025612171,0,60,1.0,4,0.17529812367345196
5.54,0.08752324394101413,85.32080099438407,0,60,1.0,4,0.18401884692668405
5.545,0.07465606047174059,85.66691715781909,0,60,1.0,4,0.19216275665456672
5.55,0.0631787448609295,85.98342289070791,0,60,1.0,4,0.19960995036959797
5.555,0.05304460019959574,86.26561884786955,0,60,1.0,4,0.20624985524398934
5.56,0.044185078305849994,86.50925808244908,0,60,1.0,4,0.21198254311644893
5.565,0.03651525513023255,86.71061970560895,0,60,1.0,4,0.21672046366138703
5.57,0.0299390014708757,86.86658630913784,0,60,1.0,4,0.22039026609736104
5.575,0.024353677220580638,86.97471559675341,0,60,1.0,4,0.22293448462949206
5.58,0.01965423034339045,87.03329977142683,0,60,1.0,4,0.22431293579827827
5.585,0.015736632374757337,87.04140840180983,0,60,1.0,4,0.2245037271014078
5.59,0.012500627640593535,86.99891208474476,0,60,1.0,4,0.2235038137587002
5.595,0.009851811652115898,86.90648547061232,0,60,1.0,4,0.22132906989676057
5.6,0.007703084175428559,86.76558926724239,0,60,1.0,4,0.21801386511158566
5.605,0.005975544002062424,86.5784317591195,0,60,1.0,4,0.2136101590381058
5.61,0.004598905818663047,86.34791119812435,0,60,1.0,4,0.20818614583822
5.615,0.0035115256454839104,86.07754113966531,0,60,1.0,4,0.20182449740388975
5.62,0.002660121266303676,85.77136140052126,0,60,1.0,4,0.19462026824755901
5.625,0.0019992692560877024,85.43383778522907,0,60,1.0,4,0.18667853612303703
5.63,0.0014907520044639367,85.06975405182008,0,60,1.0,4,0.1781118600428255
5.635,0.0011028178277539807,84.68409975610096,0,60,1.0,4,0.16903764132002266
5.64,0.0008094059938923333,84.2819576246531,0,60,1.0,4,0.15957547352124948
5.645,0.0005893771793717645,83.86839396614698,0,60,1.0,4,0.14984456390934076
5.65,0.0004257792353490551,83.44835535165316,0,60,1.0,4,0.13996130239183913
5.655,0.0003051686392901525,83.02657439701731,0,60,1.0,4,0.13003704463570148
5.66,0.00021699992642659966,82.6074869887465,0,60,1.0,4,0.12017616444109415
5.665,0.00015308884054097838,82.19516273734413,0,60,1.0,4,0.11047441734927374
5.67,0.00010714989329311098,81.7932498483948,0,60,1.0,4,0.1010176434916422
5.675,7.440535854020571e-05,81.40493500158567,0,60,1.0,4,0.09188082356672166
5.68,5.1260276743925106e-05,81.03291824914021,0,60,1.0,4,0.08312748821506374
5.685,3.503659887882241e-05,80.6794024125245,0,60,1.0,4,0.07480946852998814
5.69,2.375894748103639e-05,80.34609599014749,0,60,1.0,4,0.06696696447405857
5.695,1.5984413869232557e-05,80.03422820440662,0,60,1.0,4,0.05962889892721451
5.7,1.0669166579899869e-05,79.74457452363798,0,60,1.0,4,0.05281351820324657
5.705,7.06526633560511e-06,79.4774907976045,0,60,1.0,4,0.04652919523775301
5.71,4.641847214699205e-06,79.23295404316598,0,60,1.0,4,0.04077538925096412
5.715,3.025641074479182e-06,79.01060790415472,0,60,1.0,4,0.035543715391875876
5.72,1.9566278676921314e-06,78.80981087682954,0,60,1.0,4,0.030819079454812815
5.725,1.2553456560008793e-06,78.62968552729907,0,60,1.0,4,0.0265808359364488
5.73,7.990660428214668e-07,78.4691671158064,0,60,1.0,4,0.022803932136621168
5.735,5.046221251618276e-07,78.32705026967079,0,60,1.0,4,0.01946000634519511
5.74,3.1616527078858815e-07,78.2020325969465,0,60,1.0,4,0.01651841404579988
5.745,1.9652884407760343e-07,78.0927543922857,0,60,1.0,4,0.013947162171428197
5.75,1.2120002189836396e-07,77.99783384238104,0,60,1.0,4,0.011713737467789209
5.755,7.415549848886236e-08,77.91589737998032,0,60,1.0,4,0.009785820705419343
5.76,4.501406988770349e-08,77.84560505434425,0,60,1.0,4,0.008131883631629347
5.765,0.0,77.78567097606587,0,60,1.0,4,0.006721670025079367
5.77,0.0,77.73487905164139,0,60,1.0,4,0.0055265659209737805
5.775,0.0,77.69209434649721,0,60,1.0,4,0.004519866976405036
5.78,0.0,77.65627050466959,0,60,1.0,4,0.0036769530510492344
5.785,0.0,77.62645371089663,0,60,1.0,4,0.0029753814328618024
5.79,0.0,77.60178370962433,0,60,1.0,4,0.0023949108146900794
5.795,0.0,77.58149239927823,0,60,1.0,4,0.0019174682183113552
5.8,0.0,77.5649005035173,0,60,1.0,4,0.001527070670995138
5.805,0.0,77.55141278863067,0,60,1.0,4,0.001209712673662847
5.81,0.0,77.5405122522104,0,60,1.0,4,0.0009532294637742379
5.815,0.0,77.53175365686594,0,60,1.0,4,0.0007471448674339974
5.82,0.0,77.5247567276939,0,60,1.0,4,0.0005825112398564242
5.825,0.0,77.51919927656837,0,60,1.0,4,0.0004517476839616981
5.83,0.0,77.51481046255032,0,60,1.0,4,0.0003484814717721212
5.835,0.0,77.51136434769356,0,60,1.0,4,0.0002673964163190088
5.84,0.0,77.50867386254117,0,60,1.0,4,0.00020409088332170916
5.845,0.0,77.50658525642717,0,60,1.0,4,0.0001549472100511112
5.85,0.0,77.50497307465665,0,60,1.0,4,0.00011701352133286491
5.855,0.0,77.50373567769842,0,60,1.0,4,8.78982987862454e-05
5.86,0.0,77.50279129638474,0,60,1.0,4,6.567756199394674e-05
5.865,0.0,77.50207460126839,0,60,1.0,4,4.88141474915317e-05
5.87,0.0,77.50153375311476,0,60,1.0,4,3.608830858250739e-05
5.875,0.0,77.50112789431837,0,60,1.0,4,2.653868984406044e-05
5.88,0.0,77.50082503712781,0,60,1.0,4,1.9412638301432976e-05
5.885,0.0,77.50060030327039,0,60,1.0,4,1.4124782832676133e-05
5.89,0.0,77.50043447026465,0,60,1.0,4,1.022282975648469e-05
5.895,0.0,77.50031278184728,0,60,1.0,4,7.35957287728899e-06
5.9,0.0,77.50022398305025,0,60,1.0,4,5.270189417588507e-06
5.905,0.0,77.50015954415629,0,60,1.0,4,3.753980147995903e-06
5.91,0.0,77.50011304172635,0,60,1.0,4,2.659805325907548e-06
5.915,0.0,77.50007966889501,0,60,1.0,4,1.8745622355709203e-06
5.92,0.0,77.50005585099808,0,60,1.0,4,1.3141411313079194e-06
5.925,0.0,77.50003894621133,0,60,1.0,4,9.163814431357263e-07
5.93,0.0,77.50002701416986,0,60,1.0,4,6.356275261008276e-07
5.935,0.0,77.50001863846614,0,60,1.0,4,4.3855214458102745e-07
5.94,0.001684486749771458,77.50001279148142,0,60,1.0,4,3.00976033512972e-07
5.945,0.003097557930867117,77.50000873219956,0,60,1.0,4,2.0546351907689635e-07
5.95,0.005475106668887023,77.5000059295071,0,60,1.0,4,1.3951781404423802e-07
5.955,0.00930222931468658,77.50000400502901,0,60,1.0,4,9.42359767631227e-08
5.96,0.01519157517868857,77.50000269082139,0,60,1.0,4,6.331344446366797e-08
5.965,0.023847336626128316,77.50000179827543,0,60,1.0,4,4.231236316092477e-08
5.97,0.0359830743700859,77.5000011954177,0,60,1.0,4,2.8127475188204484e-08
5.975,0.05218887796857759,77.50000079045161,0,60,1.0,4,1.8598861368659796e-08
5.98,0.0727577001223134,77.50000051990384,0,60,1.0,4,1.2233031424436965e-08
5.985,0.0974992498694751,77.50000034014406,0,60,1.0,4,8.003389532806229e-09
5.99,0.12558706050443358,77.50000022135784,0,60,1.0,4,5.208419692922582e-09
5.995,0.15549263588878245,77.50000014329103,0,60,1.0,4,3.3715537028911058e-09
6.0,0.1850529723539114,77.50000009226464,0,60,1.0,4,2.170932756438132e-09
6.005,0.21169159439317053,77.50000005909403,0,60,1.0,4,1.3904478718733812e-09
6.01,0.23277292922115492,77.5000000376482,0,60,1.0,4,8.858401489466333e-10
6.015,0.24602692519491282,77.50000002385815,0,60,1.0,4,5.613682172706296e-10
6.02,0.24995056064839283,77.50000001503909,0,60,1.0,4,3.538609823461978e-10
6.025,0.24408826520424054,77.50000000942971,0,60,1.0,5,2.2187557934718345e-10
6.03,0.22911894216865275,77.50000000588122,0,60,1.0,5,1.3838162511306377e-10
6.035,0.20672661788705934,77.50000000364862,0,60,1.0,5,8.58499467593741e-11
6.04,0.17928878030241233,77.50000000225155,0,60,1.0,5,5.297773200522095e-11
6.045,0.14946211903866036,77.50000000138206,0,60,1.0,5,3.25191168111119e-11
6.05,0.1197651512573837,77.50000000084385,0,60,1.0,5,1.985540620808024e-11
6.055,0.09224675744988023,77.5000000005125,0,60,1.0,5,1.2058829751742238e-11
6.06,0.06829565320281596,77.50000000030961,0,60,1.0,5,7.28498568659073e-12
6.065,0.04860224607515734,77.50000000018605,0,60,1.0,5,4.377611998386462e-12
6.07,0.03324612389699793,77.50000000011121,0,60,1.0,5,2.6168035059099033e-12
6.075,0.021859876340472782,77.50000000006612,0,60,1.0,5,1.5558378115255276e-12
6.08,0.01381595518554205,77.50000000003911,0,60,1.0,5,9.20194639440845e-13
6.085,0.008394095110402422,77.50000000002301,0,60,1.0,5,5.413499713861657e-13
6.09,0.0049052535271608,77.50000000001346,0,60,1.0,5,3.1665128035991287e-13
6.095,0.0027671663551903634,77.50000000000783,0,60,1.0,5,1.8423955171944245e-13
6.1,0.0015425553464444616,77.50000000000453,0,60,1.0,5,1.0666500362704563e-13
6.105,0.0009638206637011801,77.50000000000261,0,60,1.0,5,6.152464159052161e-14
6.11,0.0009804935156568228,77.50000000000149,0,60,1.0,5,3.510917047285201e-14
6.115,0.0018793744894085216,77.50000000000085,0,60,1.0,5,2.0062383127344007e-14
6.12,0.004535525206900863,77.50000000000048,0,60,1.0,5,1.1368683772161604e-14
6.125,0.010832767979632273,77.50000000000027,0,60,1.0,5,6.353087990325602e-15
6.13,0.024208003392322392,77.50000000000016,0,60,1.0,5,3.678103573346401e-15
6.135,0.0500971897335304,77.50000000000009,0,60,1.0,5,2.0062383127344005e-15
6.14,0.09582894921774403,77.50000000000004,0,60,1.0,5,1.0031191563672002e-15
6.145,0.16937896721820658,77.50000000000003,0,60,1.0,5,6.687461042448002e-16
6.15,0.27661303008991756,77.50000000000001,0,60,1.0,5,3.343730521224001e-16
6.155,0.4173782800009149,77.50000000000001,0,60,1.0,5,3.343730521224001e-16
6.16,0.5818720934538056,77.5,0,60,1.0,5,0.0
6.165,0.7494718801585675,77.5,0,60,1.0,5,0.0
6.17,0.891813020752378,77.5,0,60,1.0,5,0.0
6.175,0.9800361632936612,77.5,0,60,1.0,5,0.0
6.18,0.993574479225126,77.50000249055736,1,60,1.0,5,5.860134973879801e-08
6.185,0.9263438449375362,77.50000390266074,0,60,1.0,5,9.182731145408659e-08
6.19,0.7873015962290536,77.5000062610317,0,60,1.0,5,1.4731839294600993e-07
6.195,0.5959516244629897,77.5000104126822,0,60,1.0,5,2.4500428708051913e-07
6.2,0.376910120078773,77.50001815880528,0,60,1.0,5,4.2726600648112414e-07
6.205,0.15739335672107918,77.5000334012751,0,60,1.0,5,7.859123553878496e-07
6.21,-0.033361226269301235,77.50006460378755,0,60,1.0,5,1.5200891188188132e-06
6.215,-0.1680180840843834,77.50012992730984,0,60,1.0,5,3.057113172765051e-06
6.22,-0.23069703190837854,77.50026761566144,0,60,1.0,5,6.296839092770182e-06
6.225,-0.22587267821131068,77.50055630925912,0,60,1.0,5,1.3089629626459581e-05
6.23,-0.17718181630665902,77.50115340923121,0,60,1.0,5,2.713904073429523e-05
6.235,-0.11494332516451301,77.50236492593112,0,60,1.0,5,5.564531602631713e-05
6.24,-0.061810214049552864,77.50476787701339,0,60,1.0,5,0.00011218534149159441
6.245,-0.026546104631500547,77.50941633263068,0,60,1.0,5,0.00022156076778066884
6.25,-0.00719600351942686,77.5181738644655,0,60,1.0,5,0.00042762034036460296
6.255,0.0022072757983807078,77.5342261502554,0,60,1.0,5,0.0008053211824801565
6.26,0.006917199873730717,77.56283330869695,0,60,1.0,5,0.001478430792869457
6.265,0.01004859748264829,77.61237503104077,0,60,1.0,5,0.0026441183774298838
6.27,0.013037082251128167,77.6957132392228,0,60,1.0,5,0.00460501739347759
6.275,0.01645163937690478,77.83183666400365,0,60,1.0,5,0.007807921505968138
6.28,0.020526639934696615,78.04765202417518,0,60,1.0,5,0.012885929980592436
6.285,0.02539629541761738,78.37964807981832,0,60,1.0,5,0.02069760187807821
6.29,0.031171612185577933,78.87499658157523,0,60,1.0,5,0.03235286074294663
6.295,0.03795853426638131,79.591501931469,0,60,1.0,5,0.049211810152211696
6.3,0.0458588961882057,80.59572263286991,0,60,1.0,5,0.07284053253811548
6.305,0.054966995891435555,81.95862818810917,0,60,1.0,5,0.10490889854374526
6.31,0.06536491004445595,83.74838670535817,0,60,1.0,5,0.1470208636554864
6.315,0.07711726085088699,86.02033399330428,0,60,1.0,5,0.2004784469012771
6.32,0.09026570629555215,88.8048315443595,0,60,1.0,5,0.2659960363378706
6.325,0.10482339848670268,92.09448096566497,0,60,1.0,5,0.34339955213329343
6.33,0.12076968927580028,95.83285417186961,0,60,1.0,5,0.4313612746322262
6.335,0.13804539501007884,99.90730401880838,0,60,1.0,5,0.5272306827954912
6.34,0.15654895051787066,104.14833129667961,0,60,1.0,5,0.6270195599218733
6.345,0.17613378141900526,108.33727604108216,0,60,1.0,5,0.7255829656725215
6.35,0.19660720058055794,112.22279730887875,0,60,1.0,5,0.8170069955030295
6.355,0.21773108748496234,115.54490959056277,0,60,1.0,5,0.8951743433073592
6.36,0.23922453870058807,118.06361697299218,0,60,1.0,5,0.9544380464233454
6.365,0.2607685857914563,119.58786456364993,0,60,1.0,5,0.9903026956152925
6.37,0.2820129681603682,120.0,0,60,1.0,5,1.0
6.375,0.30258482867153996,119.27142299958258,0,60,1.0,5,0.9828570117548843
6.38,0.3220990771751686,117.46655828444447,0,60,1.0,5,0.9403896066928111
6.385,0.3401700499968971,114.73441248783143,0,60,1.0,5,0.8761038232430925
6.39,0.3564239911198326,111.28927580351457,0,60,1.0,5,0.7950417836121075
6.395,0.3705118017738417,107.38406102338513,0,60,1.0,5,0.7031543770208266
6.4,0.3821214567925213,103.28089833002707,0,60,1.0,5,0.6066093724712252
6.405,0.39098947374066967,99.22371126121679,0,60,1.0,5,0.5111461473227481
6.41,0.3969108472035567,95.41664685863836,0,60,1.0,5,0.4215681613797261
6.415,0.3997469255491936,92.0107136810468,0,60,1.0,5,0.34142855720110105
6.42,0.3994308076379137,89.09921702002791,0,60,1.0,5,0.27292275341242134
6.425,0.3959699661768434,86.72099306384327,0,60,1.0,5,0.2169645426786651
6.43,0.38944595408114946,84.86934322745678,0,60,1.0,5,0.1733963112342772
6.435,0.38001120995358023,83.50409389992826,0,60,1.0,5,0.14127279764537093
6.44,0.3678831374098315,82.5643187163182,0,60,1.0,5,0.1191604403839576
6.445,0.35333577933796634,81.97979641551007,0,60,1.0,5,0.10540697448258979
6.45,0.33668953221163944,81.68001798316348,0,60,1.0,5,0.09835336430972896
6.455,0.3182994390982644,81.60029568688363,0,60,1.0,5,0.09647754557373239
6.46,0.29854265738230645,81.68511720481757,0,60,1.0,5,0.09847334599570759
6.465,0.2778057157821067,81.8892611786442,0,60,1.0,5,0.10327673361515775
6.47,0.2564721553719815,82.17734651540148,0,60,1.0,5,0.11005521212709368
6.475,0.23491109433464996,82.52247317147288,0,60,1.0,5,0.1181758393287737
6.48,0.21346717185309805,82.90449269890502,0,60,1.0,5,0.12716453409188275
6.485,0.19245222055656455,83.30828526471531,0,60,1.0,5,0.13666553564036021
6.49,0.17213889801761392,83.72226285659941,0,60,1.0,5,0.1464061848611627
6.495,0.15275638501270183,84.13719258266862,0,60,1.0,5,0.1561692372392616
6.5,0.13448814019607322,84.54534839222734,0,60,1.0,5,0.16577290334652564
6.505,0.11747159495449566,84.93995127272836,0,60,1.0,5,0.17505767700537328
6.51,0.10179958433370105,85.31483813156787,0,60,1.0,5,0.1838785442721851
6.515,0.08752324394101413,85.66429795931882,0,60,1.0,5,0.19210112845456037
6.52,0.07465606047174059,85.98302177258904,0,60,1.0,5,0.19960051229621273
6.525,0.0631787448609295,86.2661241010189,0,60,1.0,5,0.20626174355338595
6.53,0.05304460019959574,86.509204811254,0,60,1.0,5,0.21198128967656457
6.535,0.044185078305849994,86.70842921313016,0,60,1.0,5,0.21666892266188612
6.54,0.03651525513023255,86.86061128456899,0,60,1.0,5,0.2202496772839762
6.545,0.0299390014708757,86.96328974342804,0,60,1.0,5,0.2226656410218361
6.55,0.024353677220580638,87.0147900798478,0,60,1.0,5,0.22387741364347763
6.555,0.01965423034339045,87.01426803196546,0,60,1.0,5,0.22386513016389312
6.56,0.015736632374757337,86.9617317279995,0,60,1.0,5,0.2226289818352825
6.565,0.012500627640593535,86.85804109034562,0,60,1.0,5,0.22018920212577936
6.57,0.009851811652115898,86.70488425603972,0,60,1.0,5,0.2165855119068169
6.575,0.007703084175428559,86.50473178744132,0,60,1.0,5,0.2118760420574427
6.58,0.005975544002062424,86.26077035135903,0,60,1.0,5,0.2061357729731536
6.585,0.004598905818663047,85.97681832982333,0,60,1.0,5,0.19945454893701955
6.59,0.0035115256454839104,85.6572264743845,0,60,1.0,5,0.19193474057375295
6.595,0.002660121266303676,85.30676720877216,0,60,1.0,5,0.1836886402064037
6.6,0.0019992692560877024,84.93051650632438,0,60,1.0,5,0.17483568250175013
6.605,0.0014907520044639367,84.53373241029662,0,60,1.0,5,0.1654995861246264
6.61,0.0011028178277539807,84.12173422728785,0,60,1.0,5,0.15580551123030226
6.615,0.0008094059938923333,83.69978621594157,0,60,1.0,5,0.145877322728037
6.62,0.0005893771793717645,83.27298923259978,0,60,1.0,5,0.13583504076705374
6.625,0.0004257792353490551,82.84618330765194,0,60,1.0,5,0.1257925484153398
6.63,0.0003051686392901525,82.42386354125402,0,60,1.0,5,0.11585561273538875
6.635,0.00021699992642659966,82.01011105855213,0,60,1.0,5,0.10612026020122652
6.64,0.00015308884054097838,81.60854008739086,0,60,1.0,5,0.09667153146802032
6.645,0.00010714989329311098,81.22226154968438,0,60,1.0,5,0.0875826246984559
6.65,7.440535854020571e-05,80.85386292236346,0,60,1.0,5,0.07891442170266968
6.655,5.1260276743925106e-05,80.50540355191389,0,60,1.0,5,0.07071537769209145
6.66,3.503659887882241e-05,80.17842411927857,0,60,1.0,5,0.06302174398302528
6.665,2.375894748103639e-05,79.8739685643194,0,60,1.0,5,0.055858083866338774
6.67,1.5984413869232557e-05,79.59261649957682,0,60,1.0,5,0.04923803528416048
6.675,1.0669166579899869e-05,79.33452397376828,0,60,1.0,5,0.04316526997101846
6.68,7.06526633560511e-06,79.09947038249331,0,60,1.0,5,0.037634597235136666
6.685,4.641847214699205e-06,78.88690935809102,0,60,1.0,5,0.03263316136684747
6.69,3.025641074479182e-06,78.6960215896651,0,60,1.0,5,0.028141684462708087
6.695,1.9566278676921314e-06,78.5257677122978,0,60,1.0,5,0.02413571087759545
6.7,1.2553456560008793e-06,78.37493964417503,0,60,1.0,5,0.020586815157059513
6.705,7.990660428214668e-07,78.2422090240731,0,60,1.0,5,0.017463741742896593
6.71,5.046221251618276e-07,78.12617169236393,0,60,1.0,5,0.014733451585033542
6.715,3.1616527078858815e-07,78.025387450806,0,60,1.0,5,0.012362057666023381
6.72,1.9652884407760343e-07,77.93841461647177,0,60,1.0,5,0.010315638034629995
6.725,1.2120002189836396e-07,77.8638391423511,0,60,1.0,5,0.008560920996496394
6.73,7.415549848886236e-08,77.80029830339164,0,60,1.0,5,0.007065842432744523
6.735,4.501406988770349e-08,77.74649913671861,0,60,1.0,5,0.005799979687496743
6.74,0.0,77.70123197589588,0,60,1.0,5,0.00473487002107952
6.745,0.0,77.66337953109218,0,60,1.0,5,0.003844224260992365
6.75,0.0,77.63192204162286,0,60,1.0,5,0.0031040480381848818
6.755,0.0,77.60593906782344,0,60,1.0,5,0.0024926839487868753
6.76,0.0,77.5846084999467,0,60,1.0,5,0.001990788234039923
6.765,0.0,77.56720334779462,0,60,1.0,5,0.0015812552422262878
6.77,0.0,77.55308684140455,0,60,1.0,5,0.0012491021506952941
6.775,0.0,77.54170632554015,0,60,1.0,5,0.0009813253068269954
6.78,0.0,77.53258637389288,0,60,1.0,5,0.0007667382092443083
6.785,0.0,77.5253214871494,0,60,1.0,5,0.000595799697632896
6.79,0.0,77.5195686761332,0,60,1.0,5,0.00046043943842833225
6.795,0.0,77.51504017008224,0,60,1.0,5,0.00035388635487633484
6.8,0.0,77.51149643304234,0,60,1.0,5,0.0002705043068785659
6.805,0.0,77.50873961991796,0,60,1.0,5,0.00020563811571672457
6.81,0.0,77.50660755888478,0,60,1.0,5,0.00015547197375955125
6.815,0.0,77.50496830905382,0,60,1.0,5,0.00011690138950170342
6.82,0.0,77.5037153114783,0,60,1.0,5,8.741909360711522e-05
6.825,0.0,77.50276312746773,0,60,1.0,5,6.501476394659863e-05
6.83,0.0,77.50204374014463,0,60,1.0,5,4.808800340302856e-05
6.835,0.0,77.50150338251946,0,60,1.0,5,3.537370634021767e-05
6.84,0.0,77.50109984727075,0,60,1.0,5,2.587875931179523e-05
6.845,0.0,77.50080022908391,0,60,1.0,5,1.8828919621348497e-05
6.85,0.0,77.50057904904067,0,60,1.0,5,1.3624683309805785e-05
6.855,0.0,77.50041671144271,0,60,1.0,5,9.804975122599845e-06
6.86,0.0,77.50029824596082,0,60,1.0,5,7.017552019306095e-06
6.865,0.0,77.50021229158524,0,60,1.0,5,4.995096123352863e-06
6.87,0.0,77.50015028306859,0,60,1.0,5,3.536072202169795e-06
6.875,0.0,77.50010580504913,0,60,1.0,5,2.4895305677867272e-06
6.88,0.0,77.50007408355204,0,60,1.0,5,1.7431424008490842e-06
6.885,0.0,77.50005158889975,0,60,1.0,5,1.213856464734336e-06
6.89,0.0,77.50003572808994,0,60,1.0,5,8.406609397832868e-07
6.895,0.0,77.50002460834446,0,60,1.0,5,5.790198696665946e-07
6.9,0.001684486749771458,77.50001685675832,0,60,1.0,5,3.9662960756793514e-07
6.905,0.003097557930867117,77.500011483778,0,60,1.0,5,2.7020654108448924e-07
6.91,0.005475106668887023,77.50000778062673,0,60,1.0,5,1.830735701493241e-07
6.915,0.00930222931468658,77.50000524280178,0,60,1.0,5,1.233600418051056e-07
6.92,0.01519157517868857,77.50000351343044,0,60,1.0,5,8.266895159014145e-08
6.925,0.023847336626128316,77.5000023416304,0,60,1.0,5,5.5097186024046524e-08
6.93,0.0359830743700859,77.5000015521168,0,60,1.0,5,3.652039528306512e-08
6.935,0.05218887796857759,77.50000102317405,0,60,1.0,5,2.4074683538214337e-08
6.94,0.0727577001223134,77.500000670801,0,60,1.0,5,1.5783552953507752e-08
6.945,0.0974992498694751,77.500000437378,0,60,1.0,5,1.029124719560273e-08
6.95,0.12558706050443358,77.50000028362157,0,60,1.0,5,6.6734488053257606e-09
6.955,0.15549263588878245,77.50000018291134,0,60,1.0,5,4.303796137772973e-09
6.96,0.1850529723539114,77.50000011731703,0,60,1.0,5,2.760400681889972e-09
6.965,0.21169159439317053,77.50000007483428,0,60,1.0,5,1.7608064862382462e-09
6.97,0.23277292922115492,77.50000004747436,0,60,1.0,5,1.1170437333288752e-09
6.975,0.24602692519491282,77.50000002995276,0,60,1.0,5,7.047707881343633e-10
6.98,0.24995056064839283,77.50000001879462,0,60,1.0,5,4.4222641757668874e-10
6.985,0.24408826520424054,77.50000001172869,0,60,1.0,5,2.759691142273368e-10
6.99,0.22911894216865275,77.50000000727921,0,60,1.0,5,1.7127557411560487e-10
6.995,0.20672661788705934,77.50000000449302,0,60,1.0,5,1.0571805914343499e-10
7.0,0.17928878030241233,77.5000000027581,0,60,1.0,5,6.48964594481239e-11
7.005,0.14946211903866036,77.50000000168384,0,60,1.0,5,3.9619862945983186e-11
7.01,0.1197651512573837,77.50000000102239,0,60,1.0,5,2.405613486189395e-11
7.015,0.09224675744988023,77.50000000061736,0,60,1.0,5,1.4526168503353428e-11
7.02,0.06829565320281596,77.50000000037076,0,60,1.0,5,8.723792929873418e-12
7.025,0.04860224607515734,77.50000000022145,0,60,1.0,5,5.210535271223361e-12
7.03,0.03324612389699793,77.50000000013154,0,60,1.0,5,3.094956970444935e-12
7.035,0.021859876340472782,77.5000000000777,0,60,1.0,5,1.8283518490052836e-12
7.04,0.01381595518554205,77.50000000004566,0,60,1.0,5,1.0743406164692714e-12
7.045,0.008394095110402422,77.50000000002667,0,60,1.0,5,6.27618218833745e-13
7.05,0.0049052535271608,77.5000000000155,0,60,1.0,5,3.648009998655385e-13
7.055,0.0027671663551903634,77.50000000000895,0,60,1.0,5,2.1065502283711206e-13
7.06,0.0015425553464444616,77.50000000000514,0,60,1.0,5,1.2104304486830883e-13
7.065,0.0009638206637011801,77.50000000000294,0,60,1.0,5,6.921522178933681e-14
7.07,0.0009804935156568228,77.50000000000168,0,60,1.0,5,3.945602015044321e-14
7.075,0.0018793744894085216,77.50000000000095,0,60,1.0,5,2.2402994492200805e-14
7.08,0.004535525206900863,77.50000000000053,0,60,1.0,5,1.2371802928528803e-14
7.085,0.010832767979632273,77.5000000000003,0,60,1.0,5,7.021834094570402e-15
7.09,0.024208003392322392,77.50000000000017,0,60,1.0,5,4.012476625468801e-15
7.095,0.0500971897335304,77.50000000000009,0,60,1.0,5,2.0062383127344005e-15
7.1,0.09582894921774403,77.50000000000004,0,60,1.0,5,1.0031191563672002e-15
7.105,0.16937896721820658,77.50000000000003,0,60,1.0,5,6.687461042448002e-16
7.11,0.27661303008991756,77.50000000000001,0,60,1.0,5,3.343730521224001e-16
7.115,0.4173782800009149,77.50000000000001,0,60,1.0,5,3.343730521224001e-16
7.12,0.5818720934538056,77.5,0,60,1.0,5,0.0
7.125,0.7494718801585675,77.5,0,60,1.0,5,0.0
7.13,0.891813020752378,77.5,0,60,1.0,5,0.0
7.135,0.9800361632936612,77.5,0,60,1.0,5,0.0
7.14,0.993574479225126,77.50000249060646,1,60,1.0,5,5.860250499769309e-08
7.145,0.9263438449375362,77.50000385734029,0,60,1.0,5,9.076094797552179e-08
7.15,0.7873015962290536,77.50000610730334,0,60,1.0,5,1.437012549425109e-07
7.155,0.5959516244629897,77.50000999976028,0,60,1.0,5,2.3528847718272813e-07
7.16,0.376910120078773,77.50001711607312,0,60,1.0,5,4.027311323331078e-07
7.165,0.15739335672107918,77.5000308127143,0,60,1.0,5,7.250050423542288e-07
7.17,-0.033361226269301235,77.50005823243188,0,60,1.0,5,1.3701748678292514e-06
7.175,-0.1680180840843834,77.50011443699209,0,60,1.0,5,2.6926351080526407e-06
7.18,-0.23069703190837854,77.50023065316174,0,60,1.0,5,5.427133217327697e-06
7.185,-0.22587267821131068,77.50047021644501,0,60,1.0,5,1.106391635316333e-05
7.19,-0.17718181630665902,77.5009583966,0,60,1.0,5,2.255050823524631e-05
7.195,-0.11494332516451301,77.50193629964134,0,60,1.0,5,4.5559991561022426e-05
7.2,-0.061810214049552864,77.50385483894526,0,60,1.0,5,9.07020928296146e-05
7.205,-0.026546104631500547,77.50753250751332,0,60,1.0,5,0.0001772354709015979
7.21,-0.00719600351942686,77.51440996954433,0,60,1.0,5,0.00033905810692544944
7.215,0.0022072757983807078,77.52694391670826,0,60,1.0,5,0.0006339745107826435
7.22,0.006917199873730717,77.54918926053296,0,60,1.0,5,0.0011573943654813025
7.225,0.01004859748264829,77.5876176648087,0,60,1.0,5,0.0020615921131459745
7.23,0.013037082251128167,77.65220482613245,0,60,1.0,6,0.003581290026645815
7.235,0.01645163937690478,77.7577808422973,0,60,1.0,6,0.006065431583465732
7.24,0.020526639934696615,77.92557045679185,0,60,1.0,6,0.010013422512749311
7.245,0.02539629541761738,78.1847502601857,0,60,1.0,6,0.016111770827898695
7.25,0.031171612185577933,78.57372412531626,0,60,1.0,6,0.02526409706626496
7.255,0.03795853426638131,79.14068530680169,0,60,1.0,6,0.038604360160039666
7.26,0.0458588961882057,79.94292800606925,0,60,1.0,6,0.05748065896633534
7.265,0.054966995891435555,81.0443400664048,0,60,1.0,6,0.08339623685658352
7.27,0.06536491004445595,82.51060356247285,0,60,1.0,6,0.11789655441112593
7.275,0.07711726085088699,84.4018923138275,0,60,1.0,6,0.16239746620770595
7.28,0.09026570629555215,86.76329520888174,0,60,1.0,6,0.2179598872678057
7.285,0.10482339848670268,89.61377301640115,0,60,1.0,6,0.28502995332708597
7.29,0.12076968927580028,92.93507670582724,0,60,1.0,6,0.3631782754312292
7.295,0.13804539501007884,96.66256820647882,0,60,1.0,6,0.45088395779950174
7.3,0.15654895051787066,100.68011755916041,0,60,1.0,6,0.5454145308037743
7.305,0.17613378141900526,104.82105425803283,0,60,1.0,6,0.6428483354831255
7.31,0.19660720058055794,108.8764532668383,0,60,1.0,6,0.7382694886314893
7.315,0.21773108748496234,112.61088723201624,0,60,1.0,6,0.8261385231062645
7.32,0.23922453870058807,115.78436216317712,0,60,1.0,6,0.9008085214865205
7.325,0.2607685857914563,118.1777713622895,0,60,1.0,6,0.9571240320538708
7.33,0.2820129681603682,119.61819191512663,0,60,1.0,6,0.9910162803559207
7.335,0.30258482867153996,120.0,0,60,1.0,6,1.0
7.34,0.3220990771751686,119.29824545748835,0,60,1.0,6,0.9834881284114906
7.345,0.3401700499968971,117.5719546188641,0,60,1.0,6,0.9428695204438611
7.35,0.3564239911198326,114.95677661133668,0,60,1.0,6,0.8813359202667453
7.355,0.3705118017738417,111.64826619736436,0,60,1.0,6,0.8034886164085733
7.36,0.3821214567925213,107.87868369700878,0,60,1.0,6,0.7147925575766773
7.365,0.39098947374066967,103.89114672130673,0,60,1.0,6,0.6209681581483936
7.37,0.3969108472035567,99.91511507625712,0,60,1.0,6,0.5274144723825206
7.375,0.3997469255491936,96.14656082953842,0,60,1.0,6,0.4387426077538451
7.38,0.3994308076379137,92.73498319976926,0,60,1.0,6,0.3584701929357473
7.385,0.3959699661768434,89.77799372275705,0,60,1.0,6,0.2888939699472246
7.39,0.38944595408114946,87.32285486110474,0,60,1.0,6,0.23112599673187634
7.395,0.38001120995358023,85.37336529966561,0,60,1.0,6,0.185255654109779
7.4,0.3678831374098315,83.89998207819981,0,60,1.0,6,0.15058781360470147
7.405,0.35333577933796634,82.8510525309259,0,60,1.0,6,0.125907118374727
7.41,0.33668953221163944,82.16338984647568,0,60,1.0,6,0.10972681991707485
7.415,0.3182994390982644,81.7710004035094,0,60,1.0,6,0.10049412714139776
7.42,0.29854265738230645,81.61139076399436,0,60,1.0,6,0.0967386062116321
7.425,0.2778057157821067,81.62941598109197,0,60,1.0,6,0.0971627289668698
7.43,0.2564721553719815,81.7790040818856,0,60,1.0,6,0.1006824489855436
7.435,0.23491109433464996,82.02328621441396,0,60,1.0,6,0.1064302638685637
7.44,0.21346717185309805,82.33370255304422,0,60,1.0,6,0.1137341777186875
7.445,0.19245222055656455,82.68858789463043,0,60,1.0,6,0.12208442105012778
7.45,0.17213889801761392,83.07161944197627,0,60,1.0,6,0.13109692804650042
7.455,0.15275638501270183,83.47037548139828,0,60,1.0,6,0.1404794230917242
7.46,0.13448814019607322,83.87513591955003,0,60,1.0,6,0.1500031981070596
7.465,0.11747159495449566,84.27796761085855,0,60,1.0,6,0.15948159084373068
7.47,0.10179958433370105,84.67208126420148,0,60,1.0,6,0.16875485327532896
7.475,0.08752324394101413,85.05141767098016,0,60,1.0,6,0.17768041578776841
7.48,0.07465606047174059,85.41041137477472,0,60,1.0,6,0.18612732646528765
7.485,0.0631787448609295,85.74388204533,0,60,1.0,6,0.1939736951842352
7.49,0.05304460019959574,86.0470116192692,0,60,1.0,6,0.20110615574751056
7.495,0.044185078305849994,86.31537463568876,0,60,1.0,6,0.20742057966326483
7.5,0.03651525513023255,86.54499785256412,0,60,1.0,6,0.21282347888386172
7.505,0.0299390014708757,86.73243223546459,0,60,1.0,6,0.21723369965799025
7.51,0.024353677220580638,86.87482563242001,0,60,1.0,6,0.2205841325275297
7.515,0.01965423034339045,86.96998815607745,0,60,1.0,6,0.22282325073123407
7.52,0.015736632374757337,87.01644488029292,0,60,1.0,6,0.22391635012453937
7.525,0.012500627640593535,87.01347229325384,0,60,1.0,6,0.22384640690009036
7.53,0.009851811652115898,86.96111631870204,0,60,1.0,6,0.22261450161651858
7.535,0.007703084175428559,86.86019081224607,0,60,1.0,6,0.22023978381755469
7.54,0.005975544002062424,86.7122563730027,0,60,1.0,6,0.21675897348241652
7.545,0.004598905818663047,86.51958013614413,0,60,1.0,6,0.21222541496809713
7.55,0.0035115256454839104,86.28507794654647,0,60,1.0,6,0.2067077163893286
7.555,0.002660121266303676,86.01224095394758,0,60,1.0,6,0.20028802244582547
7.56,0.0019992692560877024,85.7050492026738,0,60,1.0,6,0.19305998123938367
7.565,0.0014907520044639367,85.36787519896696,0,60,1.0,6,0.18512647526981074
7.57,0.0011028178277539807,85.00538071378118,0,60,1.0,6,0.1765971932654395
7.575,0.0008094059938923333,84.6224102114667,0,60,1.0,6,0.1675861226227459
7.58,0.0005893771793717645,84.22388428441178,0,60,1.0,6,0.15820904198615957
7.585,0.0004257792353490551,83.81469632673434,0,60,1.0,6,0.14858109004080788
7.59,0.0003051686392901525,83.39961540923211,0,60,1.0,6,0.13881448021722617
7.595,0.00021699992642659966,82.98319794133803,0,60,1.0,6,0.1290164221491302
7.6,0.00015308884054097838,82.5697102464525,0,60,1.0,6,0.11928729991652945
7.605,0.00010714989329311098,82.16306366028918,0,60,1.0,6,0.10971914494798077
7.61,7.440535854020571e-05,81.76676321464303,0,60,1.0,6,0.10039442857983612
7.615,5.1260276743925106e-05,81.3838704178972,0,60,1.0,6,0.09138518630346351
7.62,3.503659887882241e-05,81.01698011357695,0,60,1.0,6,0.08275247326063409
7.625,2.375894748103639e-05,80.66821091136433,0,60,1.0,6,0.07454613909092533
7.63,1.5984413869232557e-05,80.33920825933811,0,60,1.0,6,0.06680490021972017
7.635,1.0669166579899869e-05,80.03115887537963,0,60,1.0,6,0.059556679420697214
7.64,7.06526633560511e-06,79.74481498835964,0,60,1.0,6,0.052819176196697314
7.645,4.641847214699205e-06,79.48052665965687,0,60,1.0,6,0.0466006272860441
7.65,3.025641074479182e-06,79.23828036186586,0,60,1.0,6,0.0409007143968438
7.655,1.9566278676921314e-06,79.01774197921334,0,60,1.0,6,0.03571157598149037
7.66,1.2553456560008793e-06,78.8183024547782,0,60,1.0,6,0.03101888128889895
7.665,7.990660428214668e-07,78.6391244320625,0,60,1.0,6,0.02680292781323534
7.67,5.046221251618276e-07,78.47918841005006,0,60,1.0,6,0.023039727295295454
7.675,3.1616527078858815e-07,78.3373371380437,0,60,1.0,6,0.019702050306910437
7.68,1.9652884407760343e-07,78.21231720572483,0,60,1.0,6,0.016760404840584227
7.685,1.2120002189836396e-07,78.10281702217611,0,60,1.0,6,0.014183929933555566
7.69,7.415549848886236e-08,78.00750061349781,0,60,1.0,6,0.011941190905830849
7.695,4.501406988770349e-08,77.92503689230902,0,60,1.0,6,0.010000868054329965
7.7,0.0,77.85412425603842,0,60,1.0,6,0.008332335436198064
7.705,0.0,77.79351054877074,0,60,1.0,6,0.006906130559311537
7.71,0.0,77.74200856992353,0,60,1.0,6,0.005694319292318288
7.715,0.0,77.69850743053568,0,60,1.0,6,0.004670763071427874
7.72,0.0,77.66198014454383,0,60,1.0,6,0.003811297518678416
7.725,0.0,77.63148789963498,0,60,1.0,6,0.0030938329325876754
7.73,0.0,77.60618148274689,0,60,1.0,6,0.0024983878293386064
7.735,0.0,77.58530034248456,0,60,1.0,6,0.0020070668819896047
7.74,0.0,77.56816975854922,0,60,1.0,6,0.0016039943188051143
7.745,0.0,77.55419656084052,0,60,1.0,6,0.0012752131962476116
7.75,0.0,77.542863802236,0,60,1.0,6,0.0010085600526117426
7.755,0.0,77.53372474296843,0,60,1.0,6,0.0007935233639630844
7.76,0.0,77.52639645440267,0,60,1.0,6,0.0006210930447687535
7.765,0.0,77.52055329875957,0,60,1.0,6,0.0004836070296368475
7.77,0.0,77.51592049130771,0,60,1.0,6,0.00037459979547553997
7.775,0.0,77.5122679045549,0,60,1.0,6,0.0002886565777624342
7.78,0.0,77.50940423131003,0,60,1.0,6,0.00022127603082420887
7.785,0.0,77.50717158596277,0,60,1.0,6,0.0001687431991239036
7.79,0.0,77.50544059134097,0,60,1.0,6,0.00012801391390519925
7.795,0.0,77.50410597211048,0,60,1.0,6,9.661110848188561e-05
7.8,0.0,77.50308265466796,0,60,1.0,6,7.253305101090411e-05
7.805,0.0,77.50230235743923,0,60,1.0,6,5.4173116217270946e-05
7.81,0.0,77.50171064389794,0,60,1.0,6,4.025044465733759e-05
7.815,0.0,77.50126440285658,0,60,1.0,6,2.9750655448879117e-05
7.82,0.0,77.50092971602302,0,60,1.0,6,2.1875671129959407e-05
7.825,0.0,77.50068007084202,0,60,1.0,6,1.6001666871127728e-05
7.83,0.0,77.5004948766761,0,60,1.0,6,1.1644157084714715e-05
7.835,0.0,77.50035824390325,0,60,1.0,6,8.429268311762345e-06
7.84,0.0,77.50025798806918,0,60,1.0,6,6.070307510111995e-06
7.845,0.0,77.50018482445232,0,60,1.0,6,4.348810642795798e-06
7.85,0.0,77.50013172197245,0,60,1.0,6,3.0993405282649347e-06
7.855,0.0,77.50009338906223,0,60,1.0,6,2.1973896995110835e-06
7.86,0.0,77.50006586774495,0,60,1.0,6,1.5498292929591758e-06
7.865,0.0,77.50004621559701,0,60,1.0,6,1.0874258119950836e-06
7.87,0.0,77.5000322584378,0,60,1.0,6,7.590220658424669e-07
7.875,0.0,77.5000223994362,0,60,1.0,6,5.270455577534877e-07
7.88,0.0,77.50001547283287,0,60,1.0,6,3.6406665578718223e-07
7.885,0.001684486749771458,77.50001063265135,0,60,1.0,6,2.5018003183878834e-07
7.89,0.003097557930867117,77.50000726862568,0,60,1.0,6,1.7102648658852988e-07
7.895,0.005475106668887023,77.50000494312994,0,60,1.0,6,1.1630893970290987e-07
7.9,0.00930222931468658,77.50000334418844,0,60,1.0,6,7.86867868849667e-08
7.905,0.01519157517868857,77.50000225070433,0,60,1.0,6,5.2957748868506956e-08
7.91,0.023847336626128316,77.50000150690246,0,60,1.0,6,3.545652856808053e-08
7.915,0.0359830743700859,77.50000100366974,0,60,1.0,6,2.3615758530414656e-08
7.92,0.05218887796857759,77.50000066502123,0,60,1.0,6,1.564755841761379e-08
7.925,0.0727577001223134,77.50000043834815,0,60,1.0,6,1.0314074175125022e-08
7.93,0.0974992498694751,77.50000028743645,0,60,1.0,6,6.763210582421915e-09
7.935,0.12558706050443358,77.50000018750096,0,60,1.0,6,4.411787264924736e-09
7.94,0.15549263588878245,77.50000012167578,0,60,1.0,6,2.8629595844369546e-09
7.945,0.1850529723539114,77.50000007854956,0,60,1.0,6,1.8482249769851263e-09
7.95,0.21169159439317053,77.5000000504455,0,60,1.0,6,1.1869527792013661e-09
7.955,0.23277292922115492,77.5000000322285,0,60,1.0,6,7.583176230742965e-10
7.96,0.24602692519491282,77.50000002048314,0,60,1.0,6,4.819562892568202e-10
7.965,0.24995056064839283,77.50000001295066,0,60,1.0,6,3.047215186062899e-10
7.97,0.24408826520424054,77.50000000814568,0,60,1.0,6,1.9166296784961186e-10
7.975,0.22911894216865275,77.50000000509684,0,60,1.0,6,1.1992557012811578e-10
7.98,0.20672661788705934,77.50000000317259,0,60,1.0,6,7.464911825937794e-11
7.985,0.17928878030241233,77.50000000196455,0,60,1.0,6,4.622473384455696e-11
7.99,0.14946211903866036,77.5000000012102,0,60,1.0,6,2.847520911874359e-11
7.995,0.1197651512573837,77.50000000074162,0,60,1.0,6,1.7449926471111694e-11
8.0,0.09224675744988023,77.50000000045212,0,60,1.0,6,1.063807865327416e-11
8.005,0.06829565320281596,77.5000000002742,0,60,1.0,6,6.45172804070171e-12
8.01,0.04860224607515734,77.50000000016543,0,60,1.0,6,3.892436699756859e-12
8.015,0.03324612389699793,77.50000000009929,0,60,1.0,6,2.3362645151792095e-12
8.02,0.021859876340472782,77.50000000005929,0,60,1.0,6,1.3950043734546533e-12
8.025,0.01381595518554205,77.50000000003521,0,60,1.0,6,8.285764231593074e-13
8.03,0.008394095110402422,77.5000000000208,0,60,1.0,6,4.895221483071937e-13
8.035,0.0049052535271608,77.50000000001224,0,60,1.0,6,2.8789519787738646e-13
8.04,0.0027671663551903634,77.50000000000715,0,60,1.0,6,1.6818964521756725e-13
8.045,0.0015425553464444616,77.50000000000416,0,60,1.0,6,9.797130427186323e-14
8.05,0.0009638206637011801,77.5000000000024,0,60,1.0,6,5.6509045808685616e-14
8.055,0.0009804935156568228,77.50000000000138,0,60,1.0,6,3.243418605587281e-14
8.06,0.0018793744894085216,77.5000000000008,0,60,1.0,6,1.8724890918854405e-14
8.065,0.004535525206900863,77.50000000000045,0,60,1.0,6,1.0699937667916803e-14
8.07,0.010832767979632273,77.50000000000026,0,60,1.0,6,6.0187149382032015e-15
8.075,0.024208003392322392,77.50000000000014,0,60,1.0,6,3.343730521224001e-15
8.08,0.0500971897335304,77.50000000000009,0,60,1.0,6,2.0062383127344005e-15
8.085,0.09582894921774403,77.50000000000004,0,60,1.0,6,1.0031191563672002e-15
8.09,0.16937896721820658,77.50000000000003,0,60,1.0,6,6.687461042448002e-16
8.095,0.27661303008991756,77.50000000000001,0,60,1.0,6,3.343730521224001e-16
8.1,0.4173782800009149,77.5,0,60,1.0,6,0.0
8.105,0.5818720934538056,77.5,0,60,1.0,6,0.0
8.11,0.7494718801585675,77.5,0,60,1.0,6,0.0
8.115,0.891813020752378,77.5,0,60,1.0,6,0.0
8.12,0.9800361632936612,77.5,0,60,1.0,6,0.0
8.125,0.993574479225126,77.50000249070214,1,60,1.0,6,5.8604756331453034e-08
8.13,0.9263438449375362,77.5000037748439,0,60,1.0,6,8.881985656765156e-08
8.135,0.7873015962290536,77.500005833579,0,60,1.0,6,1.372606822555741e-07
8.14,0.5959516244629897,77.50000928366461,0,60,1.0,6,2.1843916730337214e-07
8.145,0.376910120078773,77.500015361103,0,60,1.0,6,3.6143771754883777e-07
8.15,0.15739335672107918,77.50002659138995,0,60,1.0,6,6.256797636230177e-07
8.155,-0.033361226269301235,77.50004815927716,0,60,1.0,6,1.133159462503553e-06
8.16,-0.1680180840843834,77.5000906430617,0,60,1.0,6,2.1327779222701793e-06
8.165,-0.23069703190837854,77.50017533177136,0,60,1.0,6,4.1254534437484836e-06
8.17,-0.22587267821131068,77.50034427932519,0,60,1.0,6,8.100690004486001e-06
8.175,-0.17718181630665902,77.50067876339347,0,60,1.0,6,1.5970903375679934e-05
8.18,-0.11494332516451301,77.50133214821588,0,60,1.0,6,3.1344663903061755e-05
8.185,-0.061810214049552864,77.5025865477528,0,60,1.0,6,6.085994712467415e-05
8.19,-0.026546104631500547,77.50494731977106,0,60,1.0,6,0.00011640752402500125
8.195,-0.00719600351942686,77.50929523851232,0,60,1.0,6,0.00021871149440759086
8.2,0.0022072757983807078,77.5171226889302,0,60,1.0,6,0.0004028867983576594
8.205,0.006917199873730717,77.53088616090623,0,60,1.0,6,0.0007267331977937588
8.21,0.01004859748264829,77.55451044219848,0,60,1.0,6,0.0012825986399641752
8.215,0.013037082251128167,77.59407677734065,0,60,1.0,6,0.00221357123154462
8.22,0.01645163937690478,77.65871339087008,0,60,1.0,6,0.003734432726354739
8.225,0.020526639934696615,77.76167727564739,0,60,1.0,6,0.006157112368173798
8.23,0.02539629541761738,77.92156705033047,0,60,1.0,6,0.009919224713658035
8.235,0.031171612185577933,78.16353698380597,0,60,1.0,6,0.01561263491308162
8.24,0.03795853426638131,78.5202964150463,0,60,1.0,6,0.02400697447167772
8.245,0.0458588961882057,79.03258899051217,0,60,1.0,6,0.036060917423815696
8.25,0.054966995891435555,79.74877354393652,0,60,1.0,6,0.05291231868085935
8.255,0.06536491004445595,80.7231018809971,0,60,1.0,6,0.07583769131757896
8.26,0.07711726085088699,82.01234009388017,0,60,1.0,6,0.1061727080912981
8.265,0.09026570629555215,83.67053603700003,0,60,1.0,6,0.1451890832235302
8.27,0.10482339848670268,85.74200698045453,0,60,1.0,6,0.1939295760106949
8.275,0.12076968927580028,88.25299216597037,0,60,1.0,6,0.25301158037577337
8.28,0.13804539501007884,91.20283520772053,0,60,1.0,6,0.3224196519463653
8.285,0.15654895051787066,94.55594843457419,0,60,1.0,6,0.40131643375468684
8.29,0.17613378141900526,98.2360618659798,0,60,1.0,6,0.48790733802305425
8.295,0.19660720058055794,102.12427180024235,0,60,1.0,6,0.5793946305939377
8.3,0.21773108748496234,106.06210749842371,0,60,1.0,6,0.672049588198205
8.305,0.23922453870058807,109.86021864616963,0,60,1.0,6,0.7614169093216383
8.31,0.2607685857914563,113.31241870434148,0,60,1.0,6,0.8426451459845055
8.315,0.2820129681603682,116.21384448755202,0,60,1.0,6,0.9109139879424005
8.32,0.30258482867153996,118.38110783857866,0,60,1.0,6,0.9619084197312625
8.325,0.3220990771751686,119.6717274950356,0,60,1.0,6,0.9922759410596611
8.33,0.3401700499968971,120.0,0,60,1.0,6,1.0
8.335,0.3564239911198326,119.34686742618811,0,60,1.0,6,0.9846321747338379
8.34,0.3705118017738417,117.76221775269957,0,60,1.0,6,0.9473463000635193
8.345,0.3821214567925213,115.35924796725743,0,60,1.0,6,0.8908058345237043
8.35,0.39098947374066967,112.30178985500262,0,60,1.0,6,0.8188656436471206
8.355,0.3969108472035567,108.78658469160068,0,60,1.0,6,0.736154933920016
8.36,0.3997469255491936,105.02318183622177,0,60,1.0,6,0.6476042784993357
8.365,0.3994308076379137,101.21431013746422,0,60,1.0,6,0.5579837679403347
8.37,0.3959699661768434,97.53923277955604,0,60,1.0,6,0.4715113595189658
8.375,0.38944595408114946,94.14185919721706,0,60,1.0,6,0.39157315758157785
8.38,0.38001120995358023,91.12443922669075,0,60,1.0,6,0.3205750406280177
8.385,0.3678831374098315,88.54671365581692,0,60,1.0,6,0.25992267425451565
8.39,0.35333577933796634,86.42962122580431,0,60,1.0,6,0.21010873472480732
8.395,0.33668953221163944,84.76217841349774,0,60,1.0,6,0.17087478619994673
8.4,0.3182994390982644,83.50998827510688,0,60,1.0,6,0.14141148882604418
8.405,0.29854265738230645,82.6239592616714,0,60,1.0,6,0.12056374733344476
8.41,0.2778057157821067,82.04813671665211,0,60,1.0,6,0.10701498156828493
8.415,0.2564721553719815,81.72596289047014,0,60,1.0,6,0.09943442095223866
8.42,0.23491109433464996,81.60468893918195,0,60,1.0,6,0.09658091621604599
8.425,0.21346717185309805,81.63799504646468,0,60,1.0,6,0.09736458932858073
8.43,0.19245222055656455,81.78709744087013,0,60,1.0,6,0.10087288096165005
8.435,0.17213889801761392,82.02073014370184,0,60,1.0,7,0.10637012102827859
8.44,0.15275638501270183,82.31440368405315,0,60,1.0,7,0.11328008668360345
8.445,0.13448814019607322,82.64929288117871,0,60,1.0,7,0.12115983249832257
8.45,0.11747159495449566,83.0110225176634,0,60,1.0,7,0.12967111806266837
8.455,0.10179958433370105,83.3885292368498,0,60,1.0,7,0.13855362910234836
8.46,0.08752324394101413,83.77309765368632,0,60,1.0,7,0.1476022977337958
8.465,0.07465606047174059,84.15760717412064,0,60,1.0,7,0.15664958056754452
8.47,0.0631787448609295,84.53598520779653,0,60,1.0,7,0.1655525931246242
8.475,0.05304460019959574,84.90283979370203,0,60,1.0,7,0.17418446573416538
8.48,0.044185078305849994,85.2532355842238,0,60,1.0,7,0.18242907256997182
8.485,0.03651525513023255,85.58257682747728,0,60,1.0,7,0.1901782782935831
8.49,0.0299390014708757,85.88656538177838,0,60,1.0,7,0.19733095015949134
8.495,0.024353677220580638,86.1612079739718,0,60,1.0,7,0.20379312879933642
8.5,0.01965423034339045,86.40285309350594,0,60,1.0,7,0.2094788963177868
8.505,0.015736632374757337,86.6082432150249,0,60,1.0,7,0.21431160505940938
8.51,0.012500627640593535,86.77457218739008,0,60,1.0,7,0.21822522793859006
8.515,0.009851811652115898,86.89954068208965,0,60,1.0,7,0.22116566310799177
8.52,0.007703084175428559,86.98140477366222,0,60,1.0,7,0.22309187702734634
8.525,0.005975544002062424,87.01901427304892,0,60,1.0,7,0.22397680642468057
8.53,0.004598905818663047,87.01183856381658,0,60,1.0,7,0.22380796620744897
8.535,0.0035115256454839104,86.95997855926363,0,60,1.0,7,0.22258773080620312
8.54,0.002660121266303676,86.86416411011633,0,60,1.0,7,0.22033327317920787
8.545,0.0019992692560877024,86.72573680860323,0,60,1.0,7,0.21707616020242895
8.55,0.0014907520044639367,86.54661868443019,0,60,1.0,7,0.21286161610423968
8.555,0.0011028178277539807,86.32926778050197,0,60,1.0,7,0.20774747718828154
8.56,0.0008094059938923333,86.0766220284689,0,60,1.0,7,0.20180287125809185
8.565,0.0005893771793717645,85.79203320823416,0,60,1.0,7,0.1951066637231567
8.57,0.0004257792353490551,85.47919306210486,0,60,1.0,7,0.18774571910834953
8.575,0.0003051686392901525,85.1420538353606,0,60,1.0,7,0.1798130314202494
8.58,0.00021699992642659966,84.78474562561813,0,60,1.0,7,0.1714057794263089
8.585,0.00015308884054097838,84.41149294219383,0,60,1.0,7,0.1626233633457372
8.59,0.00010714989329311098,84.02653280638995,0,60,1.0,7,0.15356547779741062
8.595,7.440535854020571e-05,83.63403657080012,0,60,1.0,7,0.14433027225412048
8.6,5.1260276743925106e-05,83.23803741033751,0,60,1.0,7,0.13501264494911794
8.605,3.503659887882241e-05,82.8423651525489,0,60,1.0,7,0.12570270947173867
8.61,2.375894748103639e-05,82.45058978476153,0,60,1.0,7,0.11648446552380078
8.615,1.5984413869232557e-05,82.06597461680163,0,60,1.0,7,0.1074346968659206
8.62,1.0669166579899869e-05,81.69143970684148,0,60,1.0,7,0.09862211074921126
8.625,7.06526633560511e-06,81.32953579030706,0,60,1.0,7,0.09010672447781323
8.63,4.641847214699205e-06,80.98242860237454,0,60,1.0,7,0.08193949652645977
8.635,3.025641074479182e-06,80.65189316618567,0,60,1.0,7,0.07416219214554524
8.64,1.9566278676921314e-06,80.33931734191135,0,60,1.0,7,0.06680746686850245
8.645,1.2553456560008793e-06,80.04571370388507,0,60,1.0,7,0.05989914597376636
8.65,7.990660428214668e-07,79.77173863904802,0,60,1.0,7,0.05345267385995351
8.655,5.046221251618276e-07,79.51771744188935,0,60,1.0,7,0.04747570451504343
8.66,3.1616527078858815e-07,79.28367411824715,0,60,1.0,7,0.04196880278228585
8.665,1.9652884407760343e-07,79.06936459968861,0,60,1.0,7,0.03692622587502616
8.67,1.2120002189836396e-07,78.87431210665059,0,60,1.0,7,0.03233675545060217
8.675,7.415549848886236e-08,78.69784347549275,0,60,1.0,7,0.028184552364535206
8.68,4.501406988770349e-08,78.53912537444172,0,60,1.0,7,0.024450008810393508
8.685,0.0,78.39719946787567,0,60,1.0,7,0.02111057571472155
8.69,0.0,78.27101573919998,0,60,1.0,7,0.018141546804705446
8.695,0.0,78.15946334170297,0,60,1.0,7,0.015516784510658212
8.7,0.0,78.06139850691407,0,60,1.0,7,0.013209376633272327
8.705,0.0,77.97566919470562,0,60,1.0,7,0.011192216346014514
8.71,0.0,77.9011363133772,0,60,1.0,7,0.009438501491228086
8.715,0.0,77.83669146714263,0,60,1.0,7,0.007922152168061851
8.72,0.0,77.78127129994012,0,60,1.0,7,0.006618148233885075
8.725,0.0,77.73386859662963,0,60,1.0,7,0.005502790508932562
8.73,0.0,77.69354037484015,0,60,1.0,7,0.004553891172709507
8.735,0.0,77.6594132533464,0,60,1.0,7,0.0037509000787388364
8.74,0.0,77.63068641703312,0,60,1.0,7,0.0030749745184263087
8.745,0.0,77.60663251599041,0,60,1.0,7,0.002509000376244999
8.75,0.0,77.58659683924148,0,60,1.0,7,0.002037572688034823
8.755,0.0,77.5699950944462,0,60,1.0,7,0.0016469433987340916
8.76,0.0,77.5563101061534,0,60,1.0,7,0.0013249436741977446
8.765,0.0,77.54508771925303,0,60,1.0,7,0.0010608875118360657
8.77,0.0,77.53593216351848,0,60,1.0,7,0.0008454626710230888
8.775,0.0,77.52850110161448,0,60,1.0,7,0.0006706141556348405
8.78,0.0,77.52250054847673,0,60,1.0,7,0.0005294246700406588
8.785,0.0,77.51767981603862,0,60,1.0,7,0.0004159956714970041
8.79,0.0,77.51382660505939,0,60,1.0,7,0.0003253318837504166
8.795,0.0,77.51076233615936,0,60,1.0,7,0.00025323143904375575
8.8,0.0,77.50833778567196,0,60,1.0,7,0.00019618319228129622
8.805,0.0,77.50642906890162,0,60,1.0,7,0.00015127220944999168
8.81,0.0,77.50493399394611,0,60,1.0,7,0.00011609397520260246
8.815,0.0,77.50376879333639,0,60,1.0,7,8.86774902680292e-05
