Time,ECG,Pressure,R_Peaks,mean_hr,hrv_scale,Phase_Bin,Normalized_Pressure
0.0,0.001684486749771458,77.5,0,60,1.0,0,0.0
0.005,0.003097557930867117,77.5,0,60,1.0,0,0.0
0.01,0.005475106668887023,77.5,0,60,1.0,0,0.0
0.015,0.00930222931468658,77.5,0,60,1.0,0,0.0
0.02,0.01519157517868857,77.5,0,60,1.0,0,0.0
0.025,0.023847336626128316,77.5,0,60,1.0,0,0.0
0.03,0.0359830743700859,77.5,0,60,1.0,0,0.0
0.035,0.05218887796857759,77.5,0,60,1.0,0,0.0
0.04,0.0727577001223134,77.5,0,60,1.0,0,0.0
0.045,0.0974992498694751,77.5,0,60,1.0,0,0.0
0.05,0.12558706050443358,77.5,0,60,1.0,0,0.0
0.055,0.15549263588878245,77.5,0,60,1.0,0,0.0
0.06,0.1850529723539114,77.5,0,60,1.0,0,0.0
0.065,0.21169159439317053,77.5,0,60,1.0,0,0.0
0.07,0.23277292922115492,77.5,0,60,1.0,0,0.0
0.075,0.24602692519491282,77.5,0,60,1.0,0,0.0
0.08,0.24995056064839283,77.5,0,60,1.0,0,0.0
0.085,0.24408826520424054,77.5,0,60,1.0,0,0.0
0.09,0.22911894216865275,77.5,0,60,1.0,0,0.0
0.095,0.20672661788705934,77.5,0,60,1.0,0,0.0
0.1,0.17928878030241233,77.5,0,60,1.0,0,0.0
0.105,0.14946211903866036,77.5,0,60,1.0,0,0.0
0.11,0.1197651512573837,77.5,0,60,1.0,0,0.0
0.115,0.09224675744988023,77.5,0,60,1.0,0,0.0
0.12,0.06829565320281596,77.5,0,60,1.0,0,0.0
0.125,0.04860224607515734,77.5,0,60,1.0,0,0.0
0.13,0.03324612389699793,77.5,0,60,1.0,0,0.0
0.135,0.021859876340472782,77.5,0,60,1.0,0,0.0
0.14,0.01381595518554205,77.5,0,60,1.0,0,0.0
0.145,0.008394095110402422,77.5,0,60,1.0,0,0.0
0.15,0.0049052535271608,77.5,0,60,1.0,0,0.0
0.155,0.0027671663551903634,77.5,0,60,1.0,0,0.0
0.16,0.0015425553464444616,77.5,0,60,1.0,0,0.0
0.165,0.0009638206637011801,77.5,0,60,1.0,0,0.0
0.17,0.0009804935156568228,77.5,0,60,1.0,0,0.0
0.175,0.0018793744894085216,77.5,0,60,1.0,0,0.0
0.18,0.004535525206900863,77.5,0,60,1.0,0,0.0
0.185,0.010832767979632273,77.5,0,60,1.0,0,0.0
0.19,0.024208003392322392,77.5,0,60,1.0,0,0.0
0.195,0.0500971897335304,77.5,0,60,1.0,0,0.0
0.2,0.09582894921774403,77.5,0,60,1.0,0,0.0
0.205,0.16937896721820658,77.5,0,60,1.0,0,0.0
0.21,0.27661303008991756,77.5,0,60,1.0,0,0.0
0.215,0.4173782800009149,77.5,0,60,1.0,0,0.0
0.22,0.5818720934538056,77.5,0,60,1.0,0,0.0
0.225,0.7494718801585675,77.5,0,60,1.0,0,0.0
0.23,0.891813020752378,77.5,0,60,1.0,0,0.0
0.235,0.9800361632936612,77.5,0,60,1.0,0,0.0
0.24,0.993574479225126,77.5,0,60,1.0,0,0.0
0.245,0.9263438449375362,77.5,0,60,1.0,0,0.0
0.25,0.7873015962290536,77.5,0,60,1.0,0,0.0
0.255,0.5959516244629897,77.5,0,60,1.0,0,0.0
0.26,0.376910120078773,77.5,0,60,1.0,0,0.0
0.265,0.15739335672107918,77.5,0,60,1.0,0,0.0
0.27,-0.033361226269301235,77.5,0,60,1.0,0,0.0
0.275,-0.1680180840843834,77.5,0,60,1.0,0,0.0
0.28,-0.23069703190837854,77.5,0,60,1.0,0,0.0
0.285,-0.22587267821131068,77.5,0,60,1.0,0,0.0
0.29,-0.17718181630665902,77.5,0,60,1.0,0,0.0
0.295,-0.11494332516451301,77.5,0,60,1.0,0,0.0
0.3,-0.061810214049552864,77.5,0,60,1.0,0,0.0
0.305,-0.026546104631500547,77.5,0,60,1.0,0,0.0
0.31,-0.00719600351942686,77.5,0,60,1.0,0,0.0
0.315,0.0022072757983807078,77.5,0,60,1.0,0,0.0
0.32,0.006917199873730717,77.5,0,60,1.0,0,0.0
0.325,0.01004859748264829,77.5,0,60,1.0,0,0.0
0.33,0.013037082251128167,77.5,0,60,1.0,0,0.0
0.335,0.01645163937690478,77.5,0,60,1.0,0,0.0
0.34,0.020526639934696615,77.5,0,60,1.0,0,0.0
0.345,0.02539629541761738,77.5,0,60,1.0,0,0.0
0.35,0.031171612185577933,77.5,0,60,1.0,0,0.0
0.355,0.03795853426638131,77.5,0,60,1.0,0,0.0
0.36,0.0458588961882057,77.5,0,60,1.0,0,0.0
0.365,0.054966995891435555,77.5,0,60,1.0,0,0.0
0.37,0.06536491004445595,77.5,0,60,1.0,0,0.0
0.375,0.07711726085088699,77.5,0,60,1.0,0,0.0
0.38,0.09026570629555215,77.5,0,60,1.0,0,0.0
0.385,0.10482339848670268,77.5,0,60,1.0,0,0.0
0.39,0.12076968927580028,77.5,0,60,1.0,0,0.0
0.395,0.13804539501007884,77.5,0,60,1.0,0,0.0
0.4,0.15654895051787066,77.5,0,60,1.0,0,0.0
0.405,0.17613378141900526,77.5,0,60,1.0,0,0.0
0.41,0.19660720058055794,77.5,0,60,1.0,0,0.0
0.415,0.21773108748496234,77.5,0,60,1.0,0,0.0
0.42,0.23922453870058807,77.5,0,60,1.0,0,0.0
0.425,0.2607685857914563,77.5,0,60,1.0,0,0.0
0.43,0.2820129681603682,77.5,0,60,1.0,0,0.0
0.435,0.30258482867153996,77.5,0,60,1.0,0,0.0
0.44,0.3220990771751686,77.5,0,60,1.0,0,0.0
0.445,0.3401700499968971,77.5,0,60,1.0,0,0.0
0.45,0.3564239911198326,77.5,0,60,1.0,0,0.0
0.455,0.3705118017738417,77.5,0,60,1.0,0,0.0
0.46,0.3821214567925213,77.5,0,60,1.0,0,0.0
0.465,0.39098947374066967,77.5,0,60,1.0,0,0.0
0.47,0.3969108472035567,77.5,0,60,1.0,0,0.0
0.475,0.3997469255491936,77.5,0,60,1.0,0,0.0
0.48,0.3994308076379137,77.5,0,60,1.0,0,0.0
0.485,0.3959699661768434,77.5,0,60,1.0,0,0.0
0.49,0.38944595408114946,77.5,0,60,1.0,0,0.0
0.495,0.38001120995358023,77.5,0,60,1.0,0,0.0
0.5,0.3678831374098315,77.5,0,60,1.0,0,0.0
0.505,0.35333577933796634,77.5,0,60,1.0,0,0.0
0.51,0.33668953221163944,77.5,0,60,1.0,0,0.0
0.515,0.3182994390982644,77.5,0,60,1.0,0,0.0
0.52,0.29854265738230645,77.5,0,60,1.0,0,0.0
0.525,0.2778057157821067,77.5,0,60,1.0,0,0.0
0.53,0.2564721553719815,77.5,0,60,1.0,0,0.0
0.535,0.23491109433464996,77.5,0,60,1.0,0,0.0
0.54,0.21346717185309805,77.5,0,60,1.0,0,0.0
0.545,0.19245222055656455,77.5,0,60,1.0,0,0.0
0.55,0.17213889801761392,77.5,0,60,1.0,0,0.0
0.555,0.15275638501270183,77.5,0,60,1.0,0,0.0
0.56,0.13448814019607322,77.5,0,60,1.0,0,0.0
0.565,0.11747159495449566,77.5,0,60,1.0,0,0.0
0.57,0.10179958433370105,77.5,0,60,1.0,0,0.0
0.575,0.08752324394101413,77.5,0,60,1.0,0,0.0
0.58,0.07465606047174059,77.5,0,60,1.0,0,0.0
0.585,0.0631787448609295,77.5,0,60,1.0,0,0.0
0.59,0.05304460019959574,77.5,0,60,1.0,0,0.0
0.595,0.044185078305849994,77.5,0,60,1.0,0,0.0
0.6,0.03651525513023255,77.5,0,60,1.0,0,0.0
0.605,0.0299390014708757,77.5,0,60,1.0,0,0.0
0.61,0.024353677220580638,77.5,0,60,1.0,0,0.0
0.615,0.01965423034339045,77.5,0,60,1.0,0,0.0
0.62,0.015736632374757337,77.5,0,60,1.0,0,0.0
0.625,0.012500627640593535,77.5,0,60,1.0,0,0.0
0.63,0.009851811652115898,77.5,0,60,1.0,0,0.0
0.635,0.007703084175428559,77.5,0,60,1.0,0,0.0
0.64,0.005975544002062424,77.5,0,60,1.0,0,0.0
0.645,0.004598905818663047,77.5,0,60,1.0,0,0.0
0.65,0.0035115256454839104,77.5,0,60,1.0,0,0.0
0.655,0.002660121266303676,77.5,0,60,1.0,0,0.0
0.66,0.0019992692560877024,77.5,0,60,1.0,0,0.0
0.665,0.0014907520044639367,77.5,0,60,1.0,0,0.0
0.67,0.0011028178277539807,77.5,0,60,1.0,0,0.0
0.675,0.0008094059938923333,77.5,0,60,1.0,0,0.0
0.68,0.0005893771793717645,77.5,0,60,1.0,0,0.0
0.685,0.0004257792353490551,77.5,0,60,1.0,0,0.0
0.69,0.0003051686392901525,77.5,0,60,1.0,0,0.0
0.695,0.00021699992642659966,77.5,0,60,1.0,0,0.0
0.7,0.00015308884054097838,77.5,0,60,1.0,0,0.0
0.705,0.00010714989329311098,77.5,0,60,1.0,0,0.0
0.71,7.440535854020571e-05,77.5,0,60,1.0,0,0.0
0.715,5.1260276743925106e-05,77.5,0,60,1.0,0,0.0
0.72,3.503659887882241e-05,77.5,0,60,1.0,0,0.0
0.725,2.375894748103639e-05,77.5,0,60,1.0,0,0.0
0.73,1.5984413869232557e-05,77.5,0,60,1.0,0,0.0
0.735,1.0669166579899869e-05,77.5,0,60,1.0,0,0.0
0.74,7.06526633560511e-06,77.5,0,60,1.0,0,0.0
0.745,4.641847214699205e-06,77.5,0,60,1.0,0,0.0
0.75,3.025641074479182e-06,77.5,0,60,1.0,0,0.0
0.755,1.9566278676921314e-06,77.5,0,60,1.0,0,0.0
0.76,1.2553456560008793e-06,77.5,0,60,1.0,0,0.0
0.765,7.990660428214668e-07,77.5,0,60,1.0,0,0.0
0.77,5.046221251618276e-07,77.5,0,60,1.0,0,0.0
0.775,3.1616527078858815e-07,77.5,0,60,1.0,0,0.0
0.78,1.9652884407760343e-07,77.5,0,60,1.0,0,0.0
0.785,1.2120002189836396e-07,77.5,0,60,1.0,0,0.0
0.79,7.415549848886236e-08,77.5,0,60,1.0,0,0.0
0.795,4.501406988770349e-08,77.5,0,60,1.0,0,0.0
0.8,0.0,77.5,0,60,1.0,0,0.0
0.805,0.0,77.5,0,60,1.0,0,0.0
0.81,0.0,77.5,0,60,1.0,0,0.0
0.815,0.0,77.5,0,60,1.0,0,0.0
0.82,0.0,77.5,0,60,1.0,0,0.0
0.825,0.0,77.5,0,60,1.0,0,0.0
0.83,0.0,77.5,0,60,1.0,0,0.0
0.835,0.0,77.5,0,60,1.0,0,0.0
0.84,0.0,77.5,0,60,1.0,0,0.0
0.845,0.0,77.5,0,60,1.0,0,0.0
0.85,0.0,77.5,0,60,1.0,0,0.0
0.855,0.0,77.5,0,60,1.0,0,0.0
0.86,0.0,77.5,0,60,1.0,0,0.0
0.865,0.0,77.5,0,60,1.0,0,0.0
0.87,0.0,77.5,0,60,1.0,0,0.0
0.875,0.0,77.5,0,60,1.0,0,0.0
0.88,0.0,77.5,0,60,1.0,0,0.0
0.885,0.0,77.5,0,60,1.0,0,0.0
0.89,0.0,77.5,0,60,1.0,0,0.0
0.895,0.0,77.5,0,60,1.0,0,0.0
0.9,0.0,77.5,0,60,1.0,0,0.0
0.905,0.0,77.5,0,60,1.0,0,0.0
0.91,0.0,77.5,0,60,1.0,0,0.0
0.915,0.0,77.5,0,60,1.0,0,0.0
0.92,0.0,77.5,0,60,1.0,0,0.0
0.925,0.0,77.5,0,60,1.0,0,0.0
0.93,0.0,77.5,0,60,1.0,0,0.0
0.935,0.0,77.5,0,60,1.0,0,0.0
0.94,0.0,77.5,0,60,1.0,0,0.0
0.945,0.0,77.5,0,60,1.0,0,0.0
0.95,0.0,77.5,0,60,1.0,0,0.0
0.955,0.0,77.5,0,60,1.0,0,0.0
0.96,0.0,77.5,0,60,1.0,0,0.0
0.965,0.0,77.5,0,60,1.0,0,0.0
0.97,0.0,77.5,0,60,1.0,0,0.0
0.975,0.0,77.5,0,60,1.0,0,0.0
0.98,0.0,77.5,0,60,1.0,0,0.0
0.985,0.0,77.5,0,60,1.0,0,0.0
0.99,0.0,77.5,0,60,1.0,0,0.0
0.995,0.001684486749771458,77.5,0,60,1.0,0,0.0
1.0,0.003097557930867117,77.5,0,60,1.0,0,0.0
1.005,0.005475106668887023,77.5,0,60,1.0,0,0.0
1.01,0.00930222931468658,77.5,0,60,1.0,0,0.0
1.015,0.01519157517868857,77.5,0,60,1.0,0,0.0
1.02,0.023847336626128316,77.5,0,60,1.0,0,0.0
1.025,0.0359830743700859,77.5,0,60,1.0,0,0.0
1.03,0.05218887796857759,77.5,0,60,1.0,0,0.0
1.035,0.0727577001223134,77.5,0,60,1.0,0,0.0
1.04,0.0974992498694751,77.5,0,60,1.0,0,0.0
1.045,0.12558706050443358,77.5,0,60,1.0,0,0.0
1.05,0.15549263588878245,77.5,0,60,1.0,0,0.0
1.055,0.1850529723539114,77.5,0,60,1.0,0,0.0
1.06,0.21169159439317053,77.5,0,60,1.0,0,0.0
1.065,0.23277292922115492,77.5,0,60,1.0,0,0.0
1.07,0.24602692519491282,77.5,0,60,1.0,0,0.0
1.075,0.24995056064839283,77.5,0,60,1.0,0,0.0
1.08,0.24408826520424054,77.5,0,60,1.0,0,0.0
1.085,0.22911894216865275,77.5,0,60,1.0,0,0.0
1.09,0.20672661788705934,77.5,0,60,1.0,0,0.0
1.095,0.17928878030241233,77.5,0,60,1.0,0,0.0
1.1,0.14946211903866036,77.5,0,60,1.0,0,0.0
1.105,0.1197651512573837,77.5,0,60,1.0,0,0.0
1.11,0.09224675744988023,77.5,0,60,1.0,0,0.0
1.115,0.06829565320281596,77.5,0,60,1.0,0,0.0
1.12,0.04860224607515734,77.5,0,60,1.0,0,0.0
1.125,0.03324612389699793,77.5,0,60,1.0,0,0.0
1.13,0.021859876340472782,77.5,0,60,1.0,0,0.0
1.135,0.01381595518554205,77.5,0,60,1.0,0,0.0
1.14,0.008394095110402422,77.5,0,60,1.0,0,0.0
1.145,0.0049052535271608,77.5,0,60,1.0,0,0.0
1.15,0.0027671663551903634,77.5,0,60,1.0,0,0.0
1.155,0.0015425553464444616,77.5,0,60,1.0,0,0.0
1.16,0.0009638206637011801,77.5,0,60,1.0,0,0.0
1.165,0.0009804935156568228,77.5,0,60,1.0,0,0.0
1.17,0.0018793744894085216,77.5,0,60,1.0,0,0.0
1.175,0.004535525206900863,77.5,0,60,1.0,0,0.0
1.18,0.010832767979632273,77.5,0,60,1.0,0,0.0
1.185,0.024208003392322392,77.5,0,60,1.0,0,0.0
1.19,0.0500971897335304,77.5,0,60,1.0,0,0.0
1.195,0.09582894921774403,77.5,0,60,1.0,0,0.0
1.2,0.16937896721820658,77.5,0,60,1.0,0,0.0
1.205,0.27661303008991756,77.5,0,60,1.0,1,0.0
1.21,0.4173782800009149,77.5,0,60,1.0,1,0.0
1.215,0.5818720934538056,77.5,0,60,1.0,1,0.0
1.22,0.7494718801585675,77.5,0,60,1.0,1,0.0
1.225,0.891813020752378,77.5,0,60,1.0,1,0.0
1.23,0.9800361632936612,77.5,0,60,1.0,1,0.0
1.235,0.993574479225126,77.50000249000622,1,60,1.0,1,5.858838174871754e-08
1.24,0.9263438449375362,77.50000389248275,0,60,1.0,1,9.15878294616799e-08
1.245,0.7873015962290536,77.50000622788357,0,60,1.0,1,1.4653843703961362e-07
1.25,0.5959516244629897,77.50001032445374,0,60,1.0,1,2.429283232927179e-07
1.255,0.376910120078773,77.50001793601348,0,60,1.0,1,4.220238465410041e-07
1.26,0.15739335672107918,77.50003284604738,0,60,1.0,1,7.72848173536498e-07
1.265,-0.033361226269301235,77.50006322959007,0,60,1.0,1,1.4877550604390254e-06
1.27,-0.1680180840843834,77.50012656627284,0,60,1.0,1,2.978029949177011e-06
1.275,-0.23069703190837854,77.50025954907927,0,60,1.0,1,6.10703715939481e-06
1.28,-0.22587267821131068,77.50053742037096,0,60,1.0,1,1.26451851990757e-05
1.285,-0.17718181630665902,77.50111041975664,0,60,1.0,1,2.6127523685705883e-05
1.29,-0.11494332516451301,77.50227004615842,0,60,1.0,1,5.341285078623728e-05
1.295,-0.061810214049552864,77.50456505519409,0,60,1.0,1,0.00010741306339040795
1.3,-0.026546104631500547,77.50899663500942,0,60,1.0,1,0.00021168552963351484
1.305,-0.00719600351942686,77.51733334782944,0,60,1.0,1,0.00040784347833965404
1.31,0.0022072757983807078,77.53259711175801,0,60,1.0,1,0.0007669908648943099
1.315,0.006917199873730717,77.5597775885197,0,60,1.0,1,0.0014065314945810314
1.32,0.01004859748264829,77.60682720154375,0,60,1.0,1,0.002513581212794152
1.325,0.013037082251128167,77.68596373563713,0,60,1.0,1,0.0043756173091089616
1.33,0.01645163937690478,77.81525235617987,0,60,1.0,1,0.007417702498349854
1.335,0.020526639934696615,78.02034654369058,0,60,1.0,1,0.012243448086837147
1.34,0.02539629541761738,78.33613763083831,0,60,1.0,1,0.0196738266079602
1.345,0.031171612185577933,78.80790801230718,0,60,1.0,1,0.030774306171933656
1.35,0.03795853426638131,79.49143402196233,0,60,1.0,1,0.046857271104996094
1.355,0.0458588961882057,80.45138998325675,0,60,1.0,1,0.06944447019427638
1.36,0.054966995891435555,81.75742693681694,0,60,1.0,1,0.10017475145451626
1.365,0.06536491004445595,83.47749814853324,0,60,1.0,1,0.1406470152596057
1.37,0.07711726085088699,85.66841448846296,0,60,1.0,1,0.1921979879638343
1.375,0.09026570629555215,88.36422212653916,0,60,1.0,1,0.2556287559185685
1.38,0.10482339848670268,91.56371947194285,0,60,1.0,1,0.3309110463986552
1.385,0.12076968927580028,95.21911490992028,0,60,1.0,1,0.41692035082165363
1.39,0.13804539501007884,99.22826790633349,0,60,1.0,1,0.5112533625019644
1.395,0.15654895051787066,103.43295067098154,0,60,1.0,1,0.6101870746113304
1.4,0.17613378141900526,107.62498105812116,0,60,1.0,1,0.708823083720498
1.405,0.19660720058055794,111.56090743751355,0,60,1.0,1,0.8014331161767894
1.41,0.21773108748496234,114.9843394518642,0,60,1.0,1,0.8819844576909224
1.415,0.23922453870058807,117.65333760501063,0,60,1.0,1,0.9447844142355444
1.42,0.2607685857914563,119.36890970084326,0,60,1.0,1,0.9851508164904297
1.425,0.2820129681603682,120.0,0,60,1.0,1,1.0
1.43,0.30258482867153996,119.5006402542718,0,60,1.0,1,0.9882503589240423
1.435,0.3220990771751686,117.91617040818592,0,60,1.0,1,0.9509687154867276
1.44,0.3401700499968971,115.37738557396011,0,60,1.0,1,0.8912326017402379
1.445,0.3564239911198326,112.08368211089038,0,60,1.0,1,0.8137336967268325
1.45,0.3705118017738417,108.27824070530876,0,60,1.0,1,0.7241938989484414
1.455,0.3821214567925213,104.21955090304075,0,60,1.0,1,0.6286953153656648
1.46,0.39098947374066967,100.15389681309367,0,60,1.0,1,0.5330328661904392
1.465,0.3969108472035567,96.29278932965357,0,60,1.0,1,0.44218327834478993
1.47,0.3997469255491936,92.79798252281299,0,60,1.0,1,0.3599525299485409
1.475,0.3994308076379137,89.77503474095302,0,60,1.0,1,0.2888243468459534
1.48,0.3959699661768434,87.27477976068862,0,60,1.0,1,0.2299948178985557
1.485,0.38944595408114946,85.30088686693217,0,60,1.0,1,0.1835502792219335
1.49,0.38001120995358023,83.82108308582723,0,60,1.0,1,0.14873136672534648
1.495,0.3678831374098315,82.77958866801355,0,60,1.0,1,0.12422561571796577
1.5,0.35333577933796634,82.1087468967927,0,60,1.0,1,0.10844110345394577
1.505,0.33668953221163944,81.7385096637752,0,60,1.0,1,0.09972963914765186
1.51,0.3182994390982644,81.60316637149273,0,60,1.0,1,0.09654509109394667
1.515,0.29854265738230645,81.64531852817903,0,60,1.0,1,0.097536906545389
1.52,0.2778057157821067,81.81752026347644,0,60,1.0,1,0.10158871208179857
1.525,0.2564721553719815,82.08220991158747,0,60,1.0,1,0.1078167038020581
1.53,0.23491109433464996,82.41058435809306,0,60,1.0,1,0.11554316136689555
1.535,0.21346717185309805,82.78097574839373,0,60,1.0,1,0.12425825290338186
1.54,0.19245222055656455,83.17714153356428,0,60,1.0,1,0.1335798007897478
1.545,0.17213889801761392,83.58672328897565,0,60,1.0,1,0.14321701856413288
1.55,0.15275638501270183,83.99999826166315,0,60,1.0,1,0.15294113556854474
1.555,0.13448814019607322,84.40895337124233,0,60,1.0,1,0.16256360873511372
1.56,0.11747159495449566,84.80665451989769,0,60,1.0,1,0.17192128282112215
1.565,0.10179958433370105,85.1868573489393,0,60,1.0,1,0.1808672317397482
1.57,0.08752324394101413,85.54379935372675,0,60,1.0,1,0.18926586714651186
1.575,0.07465606047174059,85.87211861230374,0,60,1.0,1,0.19699102617185263
1.58,0.0631787448609295,86.16685460853626,0,60,1.0,1,0.20392599078908835
1.585,0.05304460019959574,86.42349754884363,0,60,1.0,1,0.20996464820808536
1.59,0.044185078305849994,86.63806206698814,0,60,1.0,1,0.2150132251056033
1.595,0.03651525513023255,86.80716857960022,0,60,1.0,1,0.21899220187294624
1.6,0.0299390014708757,86.92812088388769,0,60,1.0,1,0.22183813844441616
1.605,0.024353677220580638,86.99897230219709,0,60,1.0,1,0.2235052306399315
1.61,0.01965423034339045,87.0185752592566,0,60,1.0,1,0.22396647668839043
1.615,0.015736632374757337,86.98661103599359,0,60,1.0,1,0.22321437731749624
1.62,0.012500627640593535,86.90359787095856,0,60,1.0,1,0.2212611263754956
1.625,0.009851811652115898,86.77087675820192,0,60,1.0,1,0.21813827666357463
1.63,0.007703084175428559,86.59057531515485,0,60,1.0,1,0.21389588976834945
1.635,0.005975544002062424,86.36555100430262,0,60,1.0,1,0.20860120010123803
1.64,0.004598905818663047,86.0993157926329,0,60,1.0,1,0.2023368421795975
1.645,0.0035115256454839104,85.79594501028039,0,60,1.0,1,0.1951987061242445
1.65,0.002660121266303676,85.45997370609123,0,60,1.0,1,0.18729349896685255
1.655,0.0019992692560877024,85.0962841761263,0,60,1.0,1,0.17873609826179537
1.66,0.0014907520044639367,84.70998855024048,0,60,1.0,1,0.1696467894174231
1.665,0.0011028178277539807,84.3063103584825,0,60,1.0,1,0.1601484790231178
1.67,0.0008094059938923333,83.89046886840002,0,60,1.0,1,0.15036397337411814
1.675,0.0005893771793717645,83.4675696999641,0,60,1.0,1,0.1404134047050377
1.68,0.0004257792353490551,83.04250480764743,0,60,1.0,1,0.13041187782699842
1.685,0.0003051686392901525,82.61986439594673,0,60,1.0,1,0.12046739755168788
1.69,0.00021699992642659966,82.203862736115,0,60,1.0,1,0.11067912320270586
1.695,0.00015308884054097838,81.79827921088489,0,60,1.0,1,0.10113598143258554
1.7,0.00010714989329311098,81.4064152633843,0,60,1.0,1,0.09191565325610127
1.705,7.440535854020571e-05,81.0310672972994,0,60,1.0,1,0.08308393640704474
1.71,5.1260276743925106e-05,80.67451499519211,0,60,1.0,1,0.07469447047510852
1.715,3.503659887882241e-05,80.338524013543,0,60,1.0,1,0.06678880031865868
1.72,2.375894748103639e-05,80.02436159372127,0,60,1.0,1,0.059396743381676866
1.725,1.5984413869232557e-05,79.73282330872932,0,60,1.0,1,0.05253701902892524
1.73,1.0669166579899869e-05,79.4642689510973,0,60,1.0,1,0.046218092966995195
1.735,7.06526633560511e-06,79.21866545674996,0,60,1.0,1,0.040439187217646125
1.74,4.641847214699205e-06,78.99563474688391,0,60,1.0,1,0.03519140580903314
1.745,3.025641074479182e-06,78.79450444444629,0,60,1.0,1,0.030458928104618574
1.75,1.9566278676921314e-06,78.61435957004821,0,60,1.0,1,0.026220225177604896
1.755,1.2553456560008793e-06,78.45409352834312,0,60,1.0,1,0.02244925949042641
1.76,7.990660428214668e-07,78.31245694336336,0,60,1.0,1,0.01911663396149078
1.765,5.046221251618276e-07,78.18810317343045,0,60,1.0,1,0.01619066290424585
1.77,3.1616527078858815e-07,78.07962961742325,0,60,1.0,1,0.01363834393937061
1.775,1.9652884407760343e-07,77.98561420049717,0,60,1.0,1,0.01142621648228629
1.78,1.2120002189836396e-07,77.90464668712917,0,60,1.0,1,0.009521098520686418
1.785,7.415549848886236e-08,77.83535470349312,0,60,1.0,1,0.007890698905720563
1.79,4.501406988770349e-08,77.77642455318359,0,60,1.0,1,0.006504107133731489
1.795,0.0,77.72661707634573,0,60,1.0,1,0.005332166502252529
1.8,0.0,77.68477893086524,0,60,1.0,1,0.00434773954977024
1.805,0.0,77.6498497660474,0,60,1.0,1,0.0035258768481740204
1.81,0.0,77.62086581648374,0,60,1.0,1,0.002843901564323366
1.815,0.0,77.59696047016833,0,60,1.0,1,0.0022814228274900387
1.82,0.0,77.57736236484402,0,60,1.0,1,0.0018202909375063694
1.825,0.0,77.56139154495807,0,60,1.0,1,0.001444506940189887
1.83,0.0,77.54845417352878,0,60,1.0,1,0.0011400982006772237
1.835,0.0,77.53803624353917,0,60,1.0,1,0.0008949704362157049
1.84,0.0,77.52969667664992,0,60,1.0,1,0.0006987453329392846
1.845,0.0,77.52306013697444,0,60,1.0,1,0.000542591458222031
1.85,0.0,77.51780982764838,0,60,1.0,1,0.00041905476819712985
1.855,0.0,77.51368048053044,0,60,1.0,1,0.0003218936595397495
1.86,0.0,77.51045169649136,0,60,1.0,1,0.00024592227038490764
1.865,0.0,77.5079417466527,0,60,1.0,1,0.00018686462712246474
1.87,0.0,77.50600190434021,0,60,1.0,1,0.00014122127859316017
1.875,0.0,77.50451134365947,0,60,1.0,1,0.0001061492625758413
1.88,0.0,77.50337261335471,0,60,1.0,1,7.93556083461975e-05
1.885,0.0,77.50250767355982,0,60,1.0,1,5.9004083760448657e-05
1.89,0.0,77.50185446759158,0,60,1.0,1,4.363453156670135e-05
1.895,0.0,77.50136399034713,0,60,1.0,1,3.209389052070786e-05
1.9,0.0,77.50099780838069,0,60,1.0,1,2.347784425149471e-05
1.905,0.0,77.5007259835821,0,60,1.0,1,1.708196663765407e-05
1.91,0.0,77.50052535183445,0,60,1.0,1,1.2361219634225135e-05
1.915,0.0,77.50037810942973,0,60,1.0,1,8.896692464291204e-06
1.92,0.0,77.50027066279699,0,60,1.0,1,6.368536399831475e-06
1.925,0.0,77.50019270075849,0,60,1.0,1,4.53413549387412e-06
1.93,0.0,77.50013645268456,0,60,1.0,1,3.2106514013588928e-06
1.935,0.0,77.50009610025637,0,60,1.0,1,2.2611825028541394e-06
1.94,0.0,77.50006731483874,0,60,1.0,1,1.5838785587033378e-06
1.945,0.0,77.50004689654789,0,60,1.0,1,1.103448185551101e-06
1.95,0.0,77.50003249486535,0,60,1.0,1,7.645850670916629e-07
1.955,0.0,77.50002239403797,0,60,1.0,1,5.269185404652971e-07
1.96,0.001684486749771458,77.50001534948753,0,60,1.0,1,3.6116441238471665e-07
1.965,0.003097557930867117,77.50001046403425,0,60,1.0,1,2.4621257051983453e-07
1.97,0.005475106668887023,77.5000070949318,0,60,1.0,1,1.6693957183419758e-07
1.975,0.00930222931468658,77.50000478455003,0,60,1.0,1,1.125776477425354e-07
1.98,0.01519157517868857,77.50000320905956,0,60,1.0,1,7.550728368829262e-08
1.985,0.023847336626128316,77.50000214071206,0,60,1.0,1,5.036969542636464e-08
1.99,0.0359830743700859,77.50000142030801,0,60,1.0,1,3.3419011996931445e-08
1.995,0.05218887796857759,77.50000093723958,0,60,1.0,1,2.2052695920351922e-08
2.0,0.0727577001223134,77.50000061512375,0,60,1.0,1,1.447350006642142e-08
2.005,0.0974992498694751,77.50000040153017,0,60,1.0,1,9.447768768629483e-09
2.01,0.12558706050443358,77.50000026068598,0,60,1.0,1,6.133787752225865e-09
2.015,0.15549263588878245,77.50000016832978,0,60,1.0,1,3.960700630212908e-09
2.02,0.1850529723539114,77.50000010810557,0,60,1.0,1,2.5436604038772846e-09
2.025,0.21169159439317053,77.50000006905242,0,60,1.0,1,1.6247627975056221e-09
2.03,0.23277292922115492,77.50000004386858,0,60,1.0,1,1.0322019213216502e-09
2.035,0.24602692519491282,77.50000002771866,0,60,1.0,1,6.522036662371487e-10
2.04,0.24995056064839283,77.50000001741945,0,60,1.0,1,4.098694716958562e-10
2.045,0.24408826520424054,77.5000000108878,0,60,1.0,1,2.5618359198715016e-10
2.05,0.22911894216865275,77.50000000676847,0,60,1.0,1,1.592582066223258e-10
2.055,0.20672661788705934,77.50000000418488,0,60,1.0,1,9.846784825426499e-11
2.06,0.17928878030241233,77.50000000257349,0,60,1.0,1,6.05526191280018e-11
2.065,0.14946211903866036,77.500000001574,0,60,1.0,1,3.703515925307703e-11
2.07,0.1197651512573837,77.50000000095747,0,60,1.0,1,2.2528718759798827e-11
2.075,0.09224675744988023,77.50000000057929,0,60,1.0,1,1.3630383096717517e-11
2.08,0.06829565320281596,77.50000000034858,0,60,1.0,1,8.201836595510351e-12
2.085,0.04860224607515734,77.50000000020863,0,60,1.0,1,4.908930778208956e-12
2.09,0.03324612389699793,77.50000000012419,0,60,1.0,1,2.9220861024976544e-12
2.095,0.021859876340472782,77.50000000007353,0,60,1.0,1,1.730046171681298e-12
2.1,0.01381595518554205,77.50000000004329,0,60,1.0,1,1.0185003167648307e-12
2.105,0.008394095110402422,77.50000000002535,0,60,1.0,1,5.965215249863618e-13
2.11,0.0049052535271608,77.50000000001477,0,60,1.0,1,3.4741360115517367e-13
2.115,0.0027671663551903634,77.50000000000855,0,60,1.0,1,2.0129257737768484e-13
2.12,0.0015425553464444616,77.50000000000493,0,60,1.0,1,1.1602744908647282e-13
2.125,0.0009638206637011801,77.50000000000283,0,60,1.0,1,6.654023737235762e-14
2.13,0.0009804935156568228,77.5000000000016,0,60,1.0,1,3.778415488983121e-14
2.135,0.0018793744894085216,77.50000000000091,0,60,1.0,1,2.1399875335833605e-14
2.14,0.004535525206900863,77.50000000000051,0,60,1.0,1,1.2037429876406403e-14
2.145,0.010832767979632273,77.50000000000028,0,60,1.0,1,6.687461042448002e-15
2.15,0.024208003392322392,77.50000000000016,0,60,1.0,1,3.678103573346401e-15
2.155,0.0500971897335304,77.50000000000009,0,60,1.0,1,2.0062383127344005e-15
2.16,0.09582894921774403,77.50000000000004,0,60,1.0,1,1.0031191563672002e-15
2.165,0.16937896721820658,77.50000000000003,0,60,1.0,1,6.687461042448002e-16
2.17,0.27661303008991756,77.50000000000001,0,60,1.0,1,3.343730521224001e-16
2.175,0.4173782800009149,77.50000000000001,0,60,1.0,1,3.343730521224001e-16
2.18,0.5818720934538056,77.5,0,60,1.0,1,0.0
2.185,0.7494718801585675,77.5,0,60,1.0,1,0.0
2.19,0.891813020752378,77.5,0,60,1.0,1,0.0
2.195,0.9800361632936612,77.5,0,60,1.0,1,0.0
2.2,0.993574479225126,77.50000249181176,1,60,1.0,1,5.863086484810885e-08
2.205,0.9263438449375362,77.50000384183856,0,60,1.0,1,9.039620147846375e-08
2.21,0.7873015962290536,77.50000605203118,0,60,1.0,1,1.4240073369364837e-07
2.215,0.5959516244629897,77.5000098502643,0,60,1.0,1,2.317709248365966e-07
2.22,0.376910120078773,77.50001674040978,0,60,1.0,1,3.9389199474392037e-07
2.225,0.15739335672107918,77.50002988936268,0,60,1.0,1,7.032791218615089e-07
2.23,-0.033361226269301235,77.50005598658028,0,60,1.0,1,1.3173313006705832e-06
2.235,-0.1680180840843834,77.50010904250446,0,60,1.0,1,2.565705987348445e-06
2.24,-0.23069703190837854,77.50021792763697,0,60,1.0,1,5.127709105114691e-06
2.245,-0.22587267821131068,77.50044088337641,0,60,1.0,1,1.0373726503838256e-05
2.25,-0.17718181630665902,77.50089256449868,0,60,1.0,1,2.1001517616107722e-05
2.255,-0.11494332516451301,77.50179276579377,0,60,1.0,1,4.218272455920455e-05
2.26,-0.061810214049552864,77.50355118942913,0,60,1.0,1,8.355739833251285e-05
2.265,-0.026546104631500547,77.50690959240086,0,60,1.0,1,0.00016257864472610142
2.27,-0.00719600351942686,77.51317112223475,0,60,1.0,1,0.00030990875846475104
2.275,0.0022072757983807078,77.52455545137923,0,60,1.0,1,0.0005777753265700834
2.28,0.006917199873730717,77.54472497706796,0,60,1.0,1,0.0010523524015990033
2.285,0.01004859748264829,77.57952766654348,0,60,1.0,1,0.001871239212787861
2.29,0.013037082251128167,77.63799012210991,0,60,1.0,1,0.0032468264025861597
2.295,0.01645163937690478,77.7335629797193,0,60,1.0,1,0.005495599522806943
2.3,0.020526639934696615,77.88556318136334,0,60,1.0,1,0.009072074855607954
2.305,0.02539629541761738,78.12067063847793,0,60,1.0,1,0.014604015023010173
2.31,0.031171612185577933,78.47422412231587,0,60,1.0,1,0.022922920525079396
2.315,0.03795853426638131,78.99093771170499,0,60,1.0,1,0.03508088733423499
2.32,0.0458588961882057,79.72455313644113,0,60,1.0,1,0.05234242673979131
2.325,0.054966995891435555,80.7358957043249,0,60,1.0,1,0.07613872245470361
2.33,0.06536491004445595,82.08885917455554,0,60,1.0,1,0.10797315704836559
2.335,0.07711726085088699,83.84404871167135,0,60,1.0,1,0.149271734392267
2.34,0.09026570629555215,86.05017854498587,0,60,1.0,1,0.20118067164672632
2.345,0.10482339848670268,88.73382931864452,0,60,1.0,1,0.26432539573281233
2.35,0.12076968927580028,91.88874480991677,0,60,1.0,1,0.33855870140980643
2.355,0.13804539501007884,95.46636445671342,0,60,1.0,1,0.4227379872167864
2.36,0.15654895051787066,99.36959295544153,0,60,1.0,1,0.5145786577750949
2.365,0.17613378141900526,103.45175485582882,0,60,1.0,1,0.6106295260195017
2.37,0.19660720058055794,107.5221797930646,0,60,1.0,1,0.7064042304250493
2.375,0.21773108748496234,111.35892106398657,0,60,1.0,1,0.7966804956232134
2.38,0.23922453870058807,114.72785713078791,0,60,1.0,1,0.8759495795479508
2.385,0.2607685857914563,117.40610393874456,0,60,1.0,1,0.9389671514998721
2.39,0.2820129681603682,119.20657953132158,0,60,1.0,1,0.9813312830899196
2.395,0.30258482867153996,120.0,0,60,1.0,1,1.0
2.4,0.3220990771751686,119.73073626244305,0,60,1.0,1,0.9936643826457188
2.405,0.3401700499968971,118.4238494759471,0,60,1.0,1,0.9629141053164022
2.41,0.3564239911198326,116.18208945321945,0,60,1.0,2,0.910166810663987
2.415,0.3705118017738417,113.1733745291447,0,60,1.0,2,0.8393735183328164
2.42,0.3821214567925213,109.61089082664786,0,60,1.0,2,0.7555503723917144
2.425,0.39098947374066967,105.7291023657552,0,60,1.0,2,0.6642141733118869
2.43,0.3969108472035567,101.75942264604797,0,60,1.0,2,0.5708099446128934
2.435,0.3997469255491936,97.90901232617857,0,60,1.0,2,0.4802120547336134
2.44,0.3994308076379137,94.34526416670559,0,60,1.0,2,0.39635915686366097
2.445,0.3959699661768434,91.18727314888353,0,60,1.0,2,0.3220534858560832
2.45,0.38944595408114946,88.50427463175579,0,60,1.0,2,0.2589241089824892
2.455,0.38001120995358023,86.3199414541806,0,60,1.0,2,0.20752803421601396
2.46,0.3678831374098315,84.62074135275094,0,60,1.0,2,0.16754685535884564
2.465,0.35333577933796634,83.36632600348436,0,60,1.0,2,0.13803120008198494
2.47,0.33668953221163944,82.5000975498113,0,60,1.0,2,0.11764935411320708
2.475,0.3182994390982644,81.95854814001777,0,60,1.0,2,0.1049070150592416
2.48,0.29854265738230645,81.67853656537754,0,60,1.0,2,0.09831850742064803
2.485,0.2778057157821067,81.60221366217804,0,60,1.0,2,0.09652267440418928
2.49,0.2564721553719815,81.67973868879486,0,60,1.0,2,0.09834679267752602
2.495,0.23491109433464996,81.87019922391292,0,60,1.0,2,0.10282821703324517
2.5,0.21346717185309805,82.14126026801704,0,60,1.0,2,0.109206123953342
2.505,0.19245222055656455,82.46805768409277,0,60,1.0,2,0.11689547491982988
2.51,0.17213889801761392,82.83176315010746,0,60,1.0,2,0.12545325059076384
2.515,0.15275638501270183,83.21812687136497,0,60,1.0,2,0.13454416167917582
2.52,0.13448814019607322,83.61618424954153,0,60,1.0,2,0.14391021763627135
2.525,0.11747159495449566,84.01721373745077,0,60,1.0,2,0.15334620558707704
2.53,0.10179958433370105,84.41396310723198,0,60,1.0,2,0.16268148487604656
2.535,0.08752324394101413,84.80011942466255,0,60,1.0,2,0.17176751587441305
2.54,0.07465606047174059,85.1699784655929,0,60,1.0,2,0.18047008154336247
2.545,0.0631787448609295,85.51826494996435,0,60,1.0,2,0.18866505764621994
2.55,0.05304460019959574,85.840059253804,0,60,1.0,2,0.1962366883248
2.555,0.044185078305849994,86.13079426679849,0,60,1.0,2,0.20307751215996445
2.56,0.03651525513023255,86.38629466659549,0,60,1.0,2,0.20908928627283505
2.565,0.0299390014708757,86.60283845793114,0,60,1.0,2,0.21418443430426218
2.57,0.024353677220580638,86.77722659458583,0,60,1.0,2,0.21828768457849004
2.575,0.01965423034339045,86.90685088831356,0,60,1.0,2,0.22133766796031898
2.58,0.015736632374757337,86.98975350722205,0,60,1.0,2,0.22328831781698935
2.585,0.012500627640593535,87.02467353697683,0,60,1.0,2,0.22410996557592552
2.59,0.009851811652115898,87.0110776394444,0,60,1.0,2,0.223790062104574
2.595,0.007703084175428559,86.94917303121116,0,60,1.0,2,0.2223334830873214
2.6,0.005975544002062424,86.83990197261397,0,60,1.0,2,0.2197623993556229
2.605,0.004598905818663047,86.68491779355341,0,60,1.0,2,0.21611571278949201
2.61,0.0035115256454839104,86.4865432253902,0,60,1.0,2,0.21144807589153394
2.615,0.002660121266303676,86.2477124690008,0,60,1.0,2,0.20582852868237184
2.62,0.0019992692560877024,85.9718990017495,0,60,1.0,2,0.19933880004116483
2.625,0.0014907520044639367,85.66303159799958,0,60,1.0,2,0.1920713317176371
2.63,0.0011028178277539807,85.32540139533346,0,60,1.0,2,0.1841270916549049
2.635,0.0008094059938923333,84.96356307129537,0,60,1.0,2,0.1756132487363616
2.64,0.0005893771793717645,84.58223329764274,0,60,1.0,2,0.16664078347394692
2.645,0.0004257792353490551,84.18618961118601,0,60,1.0,2,0.15732210849849432
2.65,0.0003051686392901525,83.78017268883372,0,60,1.0,2,0.14776876914902862
2.655,0.00021699992642659966,83.36879475167348,0,60,1.0,2,0.13808928827467004
2.66,0.00015308884054097838,82.95645646592097,0,60,1.0,2,0.12838721096284625
2.665,0.00010714989329311098,82.5472742782177,0,60,1.0,2,0.11875939478159292
2.67,7.440535854020571e-05,82.1450196423469,0,60,1.0,2,0.10929457981992695
2.675,5.1260276743925106e-05,81.75307108830053,0,60,1.0,2,0.10007226090118894
2.68,3.503659887882241e-05,81.37437957677281,0,60,1.0,2,0.09116187239465436
2.685,2.375894748103639e-05,81.01144709498455,0,60,1.0,2,0.08262228458787169
2.69,1.5984413869232557e-05,80.66631800298667,0,60,1.0,2,0.0745016000702746
2.695,1.0669166579899869e-05,80.34058224944994,0,60,1.0,2,0.06683722939882206
2.7,7.06526633560511e-06,80.03538925452028,0,60,1.0,2,0.059656217753418415
2.705,4.641847214699205e-06,79.75147101231343,0,60,1.0,2,0.0529757885250219
2.71,3.025641074479182e-06,79.4891728003454,0,60,1.0,2,0.046804065890480015
2.715,1.9566278676921314e-06,79.24848979680112,0,60,1.0,2,0.041140936395320564
2.72,1.2553456560008793e-06,79.02910789449058,0,60,1.0,2,0.035979009282131276
2.725,7.990660428214668e-07,78.8304470550233,0,60,1.0,2,0.03130463658878351
2.73,5.046221251618276e-07,78.65170565820313,0,60,1.0,2,0.027098956663602996
2.735,3.1616527078858815e-07,78.49190445841805,0,60,1.0,2,0.02333892843336584
2.74,1.9652884407760343e-07,78.34992894961812,0,60,1.0,2,0.01999832822630865
2.745,1.2120002189836396e-07,78.22456915105091,0,60,1.0,2,0.017048685907080346
2.75,7.415549848886236e-08,78.11455604558064,0,60,1.0,2,0.014460142248956278
2.755,4.501406988770349e-08,78.018594120612,0,60,1.0,2,0.01220221460263514
2.76,0.0,77.93538966935525,0,60,1.0,2,0.010244462808358723
2.765,0.0,77.86367470016516,0,60,1.0,2,0.008557051768592066
2.77,0.0,77.80222646861542,0,60,1.0,2,0.00711121102624508
2.775,0.0,77.74988278736755,0,60,1.0,2,0.0058795949968836175
2.78,0.0,77.70555338106993,0,60,1.0,2,0.004836550142821954
2.785,0.0,77.66822763736607,0,60,1.0,2,0.0039582973497899465
2.79,0.0,77.63697916182198,0,60,1.0,2,0.0032230391016937307
2.795,0.0,77.61096757646521,0,60,1.0,2,0.0026110017991815017
2.8,0.0,77.58943801168321,0,60,1.0,2,0.002104423804310914
2.805,0.0,77.57171873294385,0,60,1.0,2,0.0016874995986788288
2.81,0.0,77.55721732087633,0,60,1.0,2,0.0013462899029725443
2.815,0.0,77.54541578936765,0,60,1.0,2,0.0010686068086506431
2.82,0.0,77.53586498497702,0,60,1.0,2,0.0008438819994594001
2.825,0.0,77.52817856529884,0,60,1.0,2,0.0006630250658551685
2.83,0.0,77.52202680664169,0,60,1.0,2,0.0005182778033338978
2.835,0.0,77.5171304447848,0,60,1.0,2,0.0004030692890540542
2.84,0.0,77.51325470838246,0,60,1.0,2,0.0003118754913520447
2.845,0.0,77.51020366409061,0,60,1.0,2,0.00024008621389672204
2.85,0.0,77.50781495653038,0,60,1.0,2,0.00018388133012663008
2.855,0.0,77.50595499523384,0,60,1.0,2,0.00014011753491378358
2.86,0.0,77.50451461486995,0,60,1.0,2,0.00010622623223405433
2.865,0.0,77.50340521419459,0,60,1.0,2,8.012268693144452e-05
2.87,0.0,77.50255536298914,0,60,1.0,2,6.012618797981037e-05
2.875,0.0,77.50190785429267,0,60,1.0,2,4.489068923924285e-05
2.88,0.0,77.50141717096078,0,60,1.0,2,3.334519907712895e-05
2.885,0.0,77.50104733043376,0,60,1.0,2,2.4643069029734227e-05
2.89,0.0,77.50077006899966,0,60,1.0,2,1.811927058016034e-05
2.895,0.0,77.50056332625815,0,60,1.0,2,1.3254735485776002e-05
2.9,0.0,77.50040999143872,0,60,1.0,2,9.646857381540031e-06
2.905,0.0,77.50029687526775,0,60,1.0,2,6.985300417655333e-06
2.91,0.0,77.50021387384992,0,60,1.0,2,5.032325880366068e-06
2.915,0.0,77.50015329422482,0,60,1.0,2,3.6069229368502634e-06
2.92,0.0,77.50010931464227,0,60,1.0,2,2.5721092299590965e-06
2.925,0.0,77.50007755598538,0,60,1.0,2,1.824846714939935e-06
2.93,0.0,77.50005474402688,0,60,1.0,2,1.288094750193255e-06
2.935,0.0,77.50003844524194,0,60,1.0,2,9.045939280253258e-07
2.94,0.0,77.50002686166287,0,60,1.0,2,6.320391264580394e-07
2.945,0.0,77.50001867272185,0,60,1.0,2,4.393581611887331e-07
2.95,0.0,77.50001291417894,0,60,1.0,2,3.0386303385111047e-07
2.955,0.001684486749771458,77.5000088860839,0,60,1.0,2,2.0908432715901547e-07
2.96,0.003097557930867117,77.50000608328911,0,60,1.0,2,1.431362143060088e-07
2.965,0.005475106668887023,77.50000414334353,0,60,1.0,2,9.7490436032518e-08
2.97,0.00930222931468658,77.50000280768167,0,60,1.0,2,6.606309806128968e-08
2.975,0.01519157517868857,77.50000189290678,0,60,1.0,2,4.453898307420947e-08
2.98,0.023847336626128316,77.50000126968219,0,60,1.0,2,2.9874874986917885e-08
2.985,0.0359830743700859,77.50000084731572,0,60,1.0,2,1.9936840424313284e-08
2.99,0.05218887796857759,77.50000056257437,0,60,1.0,2,1.3237044025599436e-08
2.995,0.0727577001223134,77.50000037161998,0,60,1.0,2,8.743999427786228e-09
3.0,0.0974992498694751,77.50000024423203,0,60,1.0,2,5.7466359200642566e-09
3.005,0.12558706050443358,77.50000015969474,0,60,1.0,2,3.757523191940409e-09
3.01,0.15549263588878245,77.50000010388743,0,60,1.0,2,2.444410122681053e-09
3.015,0.1850529723539114,77.50000006723879,0,60,1.0,2,1.5820891054746051e-09
3.02,0.21169159439317053,77.50000004329733,0,60,1.0,2,1.018760793372434e-09
3.025,0.23277292922115492,77.50000002773875,0,60,1.0,2,6.526764697328498e-10
3.03,0.24602692519491282,77.5000000176806,0,60,1.0,2,4.1601424527470956e-10
3.035,0.24995056064839283,77.50000001121222,0,60,1.0,2,2.6381699439405244e-10
3.04,0.24408826520424054,77.50000000707409,0,60,1.0,2,1.6644923348127014e-10
3.045,0.22911894216865275,77.50000000444052,0,60,1.0,2,1.0448288508889484e-10
3.05,0.20672661788705934,77.5000000027732,0,60,1.0,2,6.525189800253001e-11
3.055,0.17928878030241233,77.50000000172311,0,60,1.0,2,4.054373568899738e-11
3.06,0.14946211903866036,77.5000000010652,0,60,1.0,2,2.5063600867938744e-11
3.065,0.1197651512573837,77.50000000065513,0,60,1.0,2,1.5414932075894767e-11
3.07,0.09224675744988023,77.50000000040089,0,60,1.0,2,9.432663800372906e-12
3.075,0.06829565320281596,77.50000000024406,0,60,1.0,2,5.7425227971500995e-12
3.08,0.04860224607515734,77.50000000014782,0,60,1.0,2,3.4781484881772057e-12
3.085,0.03324612389699793,77.50000000008907,0,60,1.0,2,2.0958502907032036e-12
3.09,0.021859876340472782,77.5000000000534,0,60,1.0,2,1.2565739298759795e-12
3.095,0.01381595518554205,77.50000000003186,0,60,1.0,2,7.49664382858421e-13
3.1,0.008394095110402422,77.5000000000189,0,60,1.0,2,4.447161593227921e-13
3.105,0.0049052535271608,77.50000000001116,0,60,1.0,2,2.6248284591608404e-13
3.11,0.0027671663551903634,77.50000000000655,0,60,1.0,2,1.5414597702842645e-13
3.115,0.0015425553464444616,77.50000000000384,0,60,1.0,2,9.028072407304802e-14
3.12,0.0009638206637011801,77.50000000000223,0,60,1.0,2,5.2496569183216817e-14
3.125,0.0009804935156568228,77.5000000000013,0,60,1.0,2,3.042794774313841e-14
3.13,0.0018793744894085216,77.50000000000074,0,60,1.0,2,1.7387398710364806e-14
3.135,0.004535525206900863,77.50000000000043,0,60,1.0,2,1.0031191563672003e-14
3.14,0.010832767979632273,77.50000000000024,0,60,1.0,2,5.684341886080802e-15
3.145,0.024208003392322392,77.50000000000014,0,60,1.0,2,3.343730521224001e-15
3.15,0.0500971897335304,77.50000000000007,0,60,1.0,2,1.6718652606120004e-15
3.155,0.09582894921774403,77.50000000000004,0,60,1.0,2,1.0031191563672002e-15
3.16,0.16937896721820658,77.50000000000003,0,60,1.0,2,6.687461042448002e-16
3.165,0.27661303008991756,77.50000000000001,0,60,1.0,2,3.343730521224001e-16
3.17,0.4173782800009149,77.5,0,60,1.0,2,0.0
3.175,0.5818720934538056,77.5,0,60,1.0,2,0.0
3.18,0.7494718801585675,77.5,0,60,1.0,2,0.0
3.185,0.891813020752378,77.5,0,60,1.0,2,0.0
3.19,0.9800361632936612,77.5,0,60,1.0,2,0.0
3.195,0.993574479225126,77.50000249379623,1,60,1.0,2,5.8677558372972485e-08
3.2,0.9263438449375362,77.50000391718795,0,60,1.0,2,9.216912831909533e-08
3.205,0.7873015962290536,77.50000630150961,0,60,1.0,2,1.4827081446021431e-07
3.21,0.5959516244629897,77.5000105140369,0,60,1.0,2,2.473891035659857e-07
3.215,0.376910120078773,77.50001840698704,0,60,1.0,2,4.331055773785492e-07
3.22,0.15739335672107918,77.50003400964872,0,60,1.0,2,8.002270285888859e-07
3.225,-0.033361226269301235,77.50006609644886,0,60,1.0,2,1.5552105614514243e-06
3.23,-0.1680180840843834,77.50013356232397,0,60,1.0,2,3.1426429168678785e-06
3.235,-0.23069703190837854,77.50027632336332,0,60,1.0,2,6.501726195839343e-06
3.24,-0.22587267821131068,77.50057668790406,0,60,1.0,2,1.3569127154302324e-05
3.245,-0.17718181630665902,77.50119979487688,0,60,1.0,2,2.8230467691347417e-05
3.25,-0.11494332516451301,77.50246734685948,0,60,1.0,2,5.80552202229549e-05
3.255,-0.061810214049552864,77.50498694254254,0,60,1.0,2,0.00011733982453045107
3.26,-0.026546104631500547,77.50986989510379,0,60,1.0,2,0.00023223282597153712
3.265,-0.00719600351942686,77.51908262989394,0,60,1.0,2,0.00044900305632809785
3.27,0.0022072757983807078,77.53598806050526,0,60,1.0,2,0.0008467778942414337
3.275,0.006917199873730717,77.5661388335815,0,60,1.0,2,0.0015562078489765822
3.28,0.01004859748264829,77.61837627811394,0,60,1.0,2,0.0027853241909162854
3.285,0.013037082251128167,77.70625715723415,0,60,1.0,2,0.004853109581979959
3.29,0.01645163937690478,77.84976424958334,0,60,1.0,2,0.008229747049019874
3.295,0.020526639934696615,78.07714907313756,0,60,1.0,2,0.01357997819147205
3.3,0.02539629541761738,78.42660746482035,0,60,1.0,2,0.021802528584008236
3.305,0.031171612185577933,78.94731857168912,0,60,1.0,2,0.034054554627979385
3.31,0.03795853426638131,79.69922288771569,0,60,1.0,2,0.05174642088742804
3.315,0.0458588961882057,80.75083343091529,0,60,1.0,2,0.07649019837447749
3.32,0.054966995891435555,82.17443594424168,0,60,1.0,2,0.10998672809980423
3.325,0.06536491004445595,84.03830214667643,0,60,1.0,2,0.15384240345121009
3.33,0.07711726085088699,86.39604373737505,0,60,1.0,2,0.20931867617353064
3.335,0.09026570629555215,89.2739411348602,0,60,1.0,2,0.277033909055534
3.34,0.10482339848670268,92.6578763804036,0,60,1.0,2,0.3566559148330257
3.345,0.12076968927580028,96.48219417074539,0,60,1.0,2,0.44663986284106794
3.35,0.13804539501007884,100.62317626104648,0,60,1.0,2,0.5440747355540348
3.355,0.15654895051787066,104.89963122754831,0,60,1.0,2,0.6446972053540779
3.36,0.17613378141900526,109.08226138097591,0,60,1.0,2,0.7431120324935507
3.365,0.19660720058055794,112.91202435562403,0,60,1.0,2,0.8332241024852712
3.37,0.21773108748496234,116.12590285572924,0,60,1.0,2,0.908844773075982
3.375,0.23922453870058807,118.48673321912287,0,60,1.0,2,0.964393722802891
3.38,0.2607685857914563,119.81248326881075,0,60,1.0,2,0.9955878416190765
3.385,0.2820129681603682,120.0,0,60,1.0,2,1.0
3.39,0.30258482867153996,119.03895265764984,0,60,1.0,2,0.9773871213564669
3.395,0.3220990771751686,117.01338144972989,0,60,1.0,2,0.9297266223465857
3.4,0.3401700499968971,114.09055937282247,0,60,1.0,2,0.8609543381840581
3.405,0.3564239911198326,110.49924173293033,0,60,1.0,2,0.7764527466571842
3.41,0.3705118017738417,106.501252019056,0,60,1.0,2,0.6823824004483764
3.415,0.3821214567925213,102.3613128393379,0,60,1.0,2,0.5849720668079506
3.42,0.39098947374066967,98.31991189297068,0,60,1.0,2,0.48988027983460425
3.425,0.3969108472035567,94.57291708101874,0,60,1.0,2,0.40171569602397045
3.43,0.3997469255491936,91.2599713216292,0,60,1.0,2,0.3237640310971575
3.435,0.3994308076379137,88.46186297981151,0,60,1.0,2,0.25792618776027093
3.44,0.3959699661768434,86.2055083156022,0,60,1.0,2,0.20483548977887533
3.445,0.38944595408114946,84.47418553637537,0,60,1.0,2,0.1640984832088323
3.45,0.38001120995358023,83.22032439628626,0,60,1.0,2,0.13459586814791197
3.455,0.3678831374098315,82.3784030507939,0,60,1.0,2,0.11478595413632721
3.46,0.35333577933796634,81.87614033165356,0,60,1.0,2,0.10296800780361316
3.465,0.33668953221163944,81.6429627878982,0,60,1.0,2,0.09748147736231057
3.47,0.3182994390982644,81.61546715457652,0,60,1.0,2,0.09683452128415344
3.475,0.29854265738230645,81.74015709851017,0,60,1.0,2,0.09976840231788628
3.48,0.2778057157821067,81.9740569196691,0,60,1.0,2,0.10527192752162577
3.485,0.2564721553719815,82.28391103867587,0,60,1.0,2,0.1125626126747263
3.49,0.23491109433464996,82.64462413530069,0,60,1.0,2,0.12104997965413385
3.495,0.21346717185309805,83.03745309290495,0,60,1.0,2,0.1302930139507048
3.5,0.19245222055656455,83.4482905955028,0,60,1.0,2,0.13995977871771287
3.505,0.17213889801761392,83.86622429212309,0,60,1.0,2,0.14979351275583747
3.51,0.15275638501270183,84.28243683268946,0,60,1.0,2,0.1595867490044578
3.515,0.13448814019607322,84.68943573432038,0,60,1.0,2,0.1691631937487149
3.52,0.11747159495449566,85.08056227854561,0,60,1.0,2,0.1783661712598968
3.525,0.10179958433370105,85.44971522709557,0,60,1.0,2,0.18705212299048393
3.53,0.08752324394101413,85.79122761200028,0,60,1.0,2,0.19508770851765375
3.535,0.07465606047174059,86.09984484761954,0,60,1.0,2,0.2023492905322244
3.54,0.0631787448609295,86.37076438636134,0,60,1.0,2,0.20872386791438458
3.545,0.05304460019959574,86.59970808382359,0,60,1.0,2,0.2141107784429079
3.55,0.044185078305849994,86.7830071632666,0,60,1.0,2,0.2184236979592142
3.555,0.03651525513023255,86.91768606859858,0,60,1.0,2,0.22159261337879022
3.56,0.0299390014708757,87.00153597091433,0,60,1.0,2,0.22356555225680783
3.565,0.024353677220580638,87.03317178450779,0,60,1.0,2,0.22430992434135968
3.57,0.01965423034339045,87.01206873798577,0,60,1.0,2,0.22381338207025345
3.575,0.015736632374757337,86.938576193165,0,60,1.0,2,0.22208414572152954
3.58,0.012500627640593535,86.81390773863106,0,60,1.0,2,0.2191507703207308
3.585,0.009851811652115898,86.64010773261553,0,60,1.0,2,0.21506135841448312
3.59,0.007703084175428559,86.41999548610957,0,60,1.0,2,0.2098822467319899
3.595,0.005975544002062424,86.15708917317427,0,60,1.0,2,0.2036962158393946
3.6,0.004598905818663047,85.85551231983004,0,60,1.0,2,0.1966002898783539
3.605,0.0035115256454839104,85.5198863357969,0,60,1.0,2,0.18870320790110348
3.61,0.002660121266303676,85.15521299527994,0,60,1.0,2,0.18012265871246916
3.615,0.0019992692560877024,84.76675103026113,0,60,1.0,3,0.17098237718261491
3.62,0.0014907520044639367,84.35989106720938,0,60,1.0,3,0.16140920158139707
3.625,0.0011028178277539807,83.94003302017312,0,60,1.0,3,0.15153018870995572
3.63,0.0008094059938923333,83.51246976372725,0,60,1.0,3,0.14146987679358242
3.635,0.0005893771793717645,83.082280470485,0,60,1.0,3,0.13134777577611773
3.64,0.0004257792353490551,82.65423643892917,0,60,1.0,3,0.12127615150421588
3.645,0.0003051686392901525,82.23272159200907,0,60,1.0,3,0.11135815510609579
3.65,0.00021699992642659966,81.8216691316493,0,60,1.0,3,0.10168633250939532
3.655,0.00015308884054097838,81.4245151256355,0,60,1.0,3,0.09234153236789398
3.66,0.00010714989329311098,81.0441691159847,0,60,1.0,3,0.08339221449375767
3.665,7.440535854020571e-05,80.683001202808,0,60,1.0,3,0.07489414594842354
3.67,5.1260276743925106e-05,80.34284450049499,0,60,1.0,3,0.06689045883517625
3.675,3.503659887882241e-05,80.02501140315086,0,60,1.0,3,0.05941203301531426
3.68,2.375894748103639e-05,79.73032174609531,0,60,1.0,3,0.052478158731654435
3.685,1.5984413869232557e-05,79.4591407154507,0,60,1.0,3,0.04609742859884002
3.69,1.0669166579899869e-05,79.21142423740287,0,60,1.0,3,0.04026880558594979
3.695,7.06526633560511e-06,78.9867695657814,0,60,1.0,3,0.03498281331250355
3.7,4.641847214699205e-06,78.78446886954399,0,60,1.0,3,0.030222796930446723
3.705,3.025641074479182e-06,78.60356378533176,0,60,1.0,3,0.025966206713688426
3.71,1.9566278676921314e-06,78.44289912695085,0,60,1.0,3,0.022185861810608203
3.715,1.2553456560008793e-06,78.30117421486159,0,60,1.0,3,0.018851157996743282
3.72,7.990660428214668e-07,78.17699058609722,0,60,1.0,3,0.015929190261111028
3.725,5.046221251618276e-07,78.0688951512295,0,60,1.0,3,0.013385768264223476
3.73,3.1616527078858815e-07,77.97541816475811,0,60,1.0,3,0.011186309759014367
3.735,1.9652884407760343e-07,77.89510565587798,0,60,1.0,3,0.00929660366771727
3.74,1.2120002189836396e-07,77.82654621810562,0,60,1.0,3,0.007683440426014573
3.745,7.415549848886236e-08,77.7683922718456,0,60,1.0,3,0.006315112278719974
3.75,4.501406988770349e-08,77.71937608967772,0,60,1.0,3,0.0051617903453582
3.755,0.0,77.67832100862636,0,60,1.0,3,0.00419578843826718
3.76,0.0,77.64414834790306,0,60,1.0,3,0.0033917258330130634
3.765,0.0,77.61588060740796,0,60,1.0,3,0.0027266025272461
3.77,0.0,77.59264154581128,0,60,1.0,3,0.0021798010779123696
3.775,0.0,77.57365373238999,0,60,1.0,3,0.0017330289974114186
3.78,0.0,77.55823413948939,0,60,1.0,3,0.0013702150468090808
3.785,0.0,77.54578829810711,0,60,1.0,3,0.0010773717201673476
3.79,0.0,77.53580348299825,0,60,1.0,3,0.0008424348940764048
3.795,0.0,77.52784133072689,0,60,1.0,3,0.0006550901347502665
3.8,0.0,77.5215302284374,0,60,1.0,3,0.0005065936102917422
3.805,0.0,77.51655774624525,0,60,1.0,3,0.00038959402930010905
3.81,0.0,77.51266332472912,0,60,1.0,3,0.00029796058186160306
3.815,0.0,77.50963137297701,0,60,1.0,3,0.0002266205406355686
3.82,0.0,77.50728488323819,0,60,1.0,3,0.00017140901736906124
3.825,0.0,77.50547962610095,0,60,1.0,3,0.00012893237884588202
3.83,0.0,77.5040989553958,0,60,1.0,3,9.644600931303959e-05
3.835,0.0,77.50304922446462,0,60,1.0,3,7.174645799101894e-05
3.84,0.0,77.50225579450853,0,60,1.0,3,5.3077517847722284e-05
3.845,0.0,77.50165960070633,0,60,1.0,3,3.904942838430008e-05
3.85,0.0,77.50121423185787,0,60,1.0,3,2.8570161361706006e-05
3.855,0.0,77.50088347359097,0,60,1.0,3,2.0787613905280096e-05
3.86,0.0,77.50063926283588,0,60,1.0,3,1.5041478491184535e-05
3.865,0.0,77.5004600015325,0,60,1.0,3,1.0823565470646452e-05
3.87,0.0,77.5003291796934,0,60,1.0,3,7.745404550472385e-06
3.875,0.0,77.50023426139796,0,60,1.0,3,5.512032893260339e-06
3.88,0.0,77.50016579153834,0,60,1.0,3,3.900977372615992e-06
3.885,0.0,77.50011668577856,0,60,1.0,3,2.7455477309371525e-06
3.89,0.0,77.50008167091697,0,60,1.0,3,1.921668634582495e-06
3.895,0.0,77.5000568474347,0,60,1.0,3,1.3375866989703996e-06
3.9,0.0,77.50003935031812,0,60,1.0,3,9.258898380855552e-07
3.905,0.0,77.50002708816338,0,60,1.0,3,6.373685500741832e-07
3.91,0.001684486749771458,77.50001854405937,0,60,1.0,3,4.3633080876508543e-07
3.915,0.003097557930867117,77.50001262478511,0,60,1.0,3,2.970537673932353e-07
3.92,0.005475106668887023,77.50000854746077,0,60,1.0,3,2.0111672390211263e-07
3.925,0.00930222931468658,77.50000575498471,0,60,1.0,3,1.3541140500659395e-07
3.93,0.01519157517868857,77.50000385340955,0,60,1.0,3,9.066846005493169e-08
3.935,0.023847336626128316,77.50000256590221,0,60,1.0,3,6.037416958005291e-08
3.94,0.0359830743700859,77.50000169913923,0,60,1.0,3,3.997974665574421e-08
3.945,0.05218887796857759,77.50000111895281,0,60,1.0,3,2.6328301400473507e-08
3.95,0.0727577001223134,77.50000073280515,0,60,1.0,3,1.724247407336781e-08
3.955,0.0974992498694751,77.50000047726456,0,60,1.0,3,1.1229754443989162e-08
3.96,0.12558706050443358,77.50000030911765,0,60,1.0,3,7.273356526210966e-09
3.965,0.15549263588878245,77.50000019910509,0,60,1.0,3,4.68482559935022e-09
3.97,0.1850529723539114,77.5000001275366,0,60,1.0,3,3.0008610498471708e-09
3.975,0.21169159439317053,77.50000008124212,0,60,1.0,3,1.9115793079168616e-09
3.98,0.23277292922115492,77.50000005146615,0,60,1.0,3,1.2109681205509012e-09
3.985,0.24602692519491282,77.5000000324232,0,60,1.0,3,7.628988682614256e-10
3.99,0.24995056064839283,77.50000002031346,0,60,1.0,3,4.779638750144787e-10
3.995,0.24408826520424054,77.50000001265629,0,60,1.0,3,2.9779498083157436e-10
4.0,0.22911894216865275,77.50000000784192,0,60,1.0,3,1.8451574386049555e-10
4.005,0.20672661788705934,77.50000000483206,0,60,1.0,3,1.1369553142097122e-10
4.01,0.17928878030241233,77.50000000296099,0,60,1.0,3,6.967030351327541e-11
4.015,0.14946211903866036,77.50000000180441,0,60,1.0,3,4.245668392018963e-11
4.02,0.1197651512573837,77.50000000109351,0,60,1.0,3,2.5729671987766563e-11
4.025,0.09224675744988023,77.50000000065904,0,60,1.0,3,1.5506884665228427e-11
4.03,0.06829565320281596,77.50000000039499,0,60,1.0,3,9.29389898374211e-12
4.035,0.04860224607515734,77.50000000023543,0,60,1.0,3,5.539558354511802e-12
4.04,0.03324612389699793,77.50000000013955,0,60,1.0,3,3.283543371841969e-12
4.045,0.021859876340472782,77.50000000008227,0,60,1.0,3,1.935685598736574e-12
4.05,0.01381595518554205,77.50000000004822,0,60,1.0,3,1.1345277658513034e-12
4.055,0.008394095110402422,77.50000000002811,0,60,1.0,3,6.613898970981073e-13
4.06,0.0049052535271608,77.5000000000163,0,60,1.0,3,3.835258907843929e-13
4.065,0.0027671663551903634,77.5000000000094,0,60,1.0,3,2.2102058745290646e-13
4.07,0.0015425553464444616,77.50000000000539,0,60,1.0,3,1.2672738675438964e-13
4.075,0.0009638206637011801,77.50000000000307,0,60,1.0,3,7.222457925843841e-14
4.08,0.0009804935156568228,77.50000000000175,0,60,1.0,3,4.112788541105521e-14
4.085,0.0018793744894085216,77.50000000000098,0,60,1.0,3,2.3071740596445606e-14
4.09,0.004535525206900863,77.50000000000055,0,60,1.0,3,1.3040549032773603e-14
4.095,0.010832767979632273,77.50000000000031,0,60,1.0,3,7.356207146692803e-15
4.1,0.024208003392322392,77.50000000000017,0,60,1.0,3,4.012476625468801e-15
4.105,0.0500971897335304,77.5000000000001,0,60,1.0,3,2.3406113648568006e-15
4.11,0.09582894921774403,77.50000000000006,0,60,1.0,3,1.3374922084896003e-15
4.115,0.16937896721820658,77.50000000000003,0,60,1.0,3,6.687461042448002e-16
4.12,0.27661303008991756,77.50000000000001,0,60,1.0,3,3.343730521224001e-16
4.125,0.4173782800009149,77.50000000000001,0,60,1.0,3,3.343730521224001e-16
4.13,0.5818720934538056,77.5,0,60,1.0,3,0.0
4.135,0.7494718801585675,77.5,0,60,1.0,3,0.0
4.14,0.891813020752378,77.5,0,60,1.0,3,0.0
4.145,0.9800361632936612,77.5,0,60,1.0,3,0.0
4.15,0.993574479225126,77.50000249065474,1,60,1.0,3,5.860364086295115e-08
4.155,0.9263438449375362,77.50000381481783,0,60,1.0,3,8.976041954156244e-08
4.16,0.7873015962290536,77.50000596523532,0,60,1.0,3,1.4035847805323155e-07
4.165,0.5959516244629897,77.50000962503476,0,60,1.0,3,2.2647140620874244e-07
4.17,0.376910120078773,77.50001618917643,0,60,1.0,3,3.809217984700594e-07
4.175,0.15739335672107918,77.5000285614158,0,60,1.0,3,6.720333130140395e-07
4.18,-0.033361226269301235,77.50005280883279,0,60,1.0,3,1.2425607715559796e-06
4.185,-0.1680180840843834,77.50010151190543,0,60,1.0,3,2.388515421818524e-06
4.19,-0.23069703190837854,77.50020036214238,0,60,1.0,3,4.714403350108649e-06
4.195,-0.22587267821131068,77.50040077561245,0,60,1.0,3,9.430014410541202e-06
4.2,-0.17718181630665902,77.50080326727193,0,60,1.0,3,1.8900406398442475e-05
4.205,-0.11494332516451301,77.50159937912407,0,60,1.0,3,3.763244997819182e-05
4.21,-0.061810214049552864,77.50314438198903,0,60,1.0,3,7.398545856544308e-05
4.215,-0.026546104631500547,77.5060789517361,0,60,1.0,3,0.00014303415849647481
4.22,-0.00719600351942686,77.5115253796782,0,60,1.0,3,0.00027118540419304043
4.225,0.0022072757983807078,77.5213917627598,0,60,1.0,3,0.0005033355943483537
4.23,0.006917199873730717,77.53882411894206,0,60,1.0,3,0.0009135086809896406
4.235,0.01004859748264829,77.56884815932884,0,60,1.0,3,0.0016199566900902884
4.24,0.013037082251128167,77.6192346558676,0,60,1.0,3,0.002805521314531782
4.245,0.01645163937690478,77.70159894500465,0,60,1.0,3,0.004743504588344649
4.25,0.020526639934696615,77.83270008287926,0,60,1.0,3,0.007828237244217797
4.255,0.02539629541761738,78.03583465142736,0,60,1.0,3,0.012607874151232115
4.26,0.031171612185577933,78.34212553437393,0,60,1.0,3,0.019814718455857288
4.265,0.03795853426638131,78.79139701937089,0,60,1.0,3,0.030385812220491543
4.27,0.0458588961882057,79.43222533468237,0,60,1.0,3,0.045464125521938153
4.275,0.054966995891435555,80.32069048739088,0,60,1.0,3,0.06636918793860887
4.28,0.06536491004445595,81.5173707975343,0,60,1.0,3,0.09452637170668936
4.285,0.07711726085088699,83.08225427174436,0,60,1.0,3,0.13134715933516145
4.29,0.09026570629555215,85.06751487992965,0,60,1.0,3,0.17805917364540344
4.295,0.10482339848670268,87.50851138218808,0,60,1.0,3,0.23549438546324883
4.3,0.12076968927580028,90.41386466435996,0,60,1.0,3,0.3038556391614109
4.305,0.13804539501007884,93.75596504105044,0,60,1.0,3,0.38249329508353985
4.31,0.15654895051787066,97.4636280918179,0,60,1.0,3,0.4697324256898328
4.315,0.17613378141900526,101.41872257270964,0,60,1.0,3,0.5627934722990504
4.32,0.19660720058055794,105.45833242352343,0,60,1.0,3,0.6578431158476101
4.325,0.21773108748496234,109.38335163215552,0,60,1.0,3,0.7501965089918947
4.33,0.23922453870058807,112.9734084393601,0,60,1.0,3,0.8346684338672965
4.335,0.2607685857914563,116.00683982528938,0,60,1.0,3,0.9060432900068088
4.34,0.2820129681603682,118.28333120453613,0,60,1.0,3,0.9596077930479089
4.345,0.30258482867153996,119.646064803065,0,60,1.0,3,0.9916721130132942
4.35,0.3220990771751686,120.0,0,60,1.0,3,1.0
4.355,0.3401700499968971,119.32334270778719,0,60,1.0,3,0.9840786519479339
4.36,0.3564239911198326,117.6702984466819,0,60,1.0,3,0.9451834928631034
4.365,0.3705118017738417,115.1646448291192,0,60,1.0,3,0.8862269371557459
4.37,0.3821214567925213,111.9851997850634,0,60,1.0,3,0.8114164655309035
4.375,0.39098947374066967,108.34557221481842,0,60,1.0,3,0.7257781697604334
4.38,0.3969108472035567,104.47139174943496,0,60,1.0,3,0.634620982339646
4.385,0.3997469255491936,100.57838099842344,0,60,1.0,3,0.5430207293746692
4.39,0.3994308076379137,96.85417087272945,0,60,1.0,3,0.45539225582892834
4.395,0.3959699661768434,93.44582268957237,0,60,1.0,3,0.37519582798993806
4.4,0.38944595408114946,90.45385471397468,0,60,1.0,3,0.30479658150528655
4.405,0.38001120995358023,87.93243962502166,0,60,1.0,3,0.24546916764756843
4.41,0.3678831374098315,85.89455992933536,0,60,1.0,3,0.19751905716083196
4.415,0.35333577933796634,84.32040601189054,0,60,1.0,3,0.160480141456248
4.42,0.33668953221163944,83.16719725117376,0,60,1.0,3,0.13334581767467674
4.425,0.3182994390982644,82.37883285219493,0,60,1.0,3,0.114796067110469
4.43,0.29854265738230645,81.89421459224894,0,60,1.0,3,0.10339328452350455
4.435,0.2778057157821067,81.65359406235096,0,60,1.0,3,0.09773162499649321
4.44,0.2564721553719815,81.60276811068044,0,60,1.0,3,0.09653572025130455
4.445,0.23491109433464996,81.6953041114732,0,60,1.0,3,0.0987130379170166
4.45,0.21346717185309805,81.89319219750705,0,60,1.0,3,0.10336922817663642
4.455,0.19245222055656455,82.16640283127366,0,60,1.0,3,0.10979771367702724
4.46,0.17213889801761392,82.49180664386697,0,60,1.0,3,0.11745427397334036
4.465,0.15275638501270183,82.85182970057085,0,60,1.0,3,0.12592540471931402
4.47,0.13448814019607322,83.23310877819486,0,60,1.0,3,0.13489667713399672
4.475,0.11747159495449566,83.62530580186197,0,60,1.0,3,0.14412484239675222
4.48,0.10179958433370105,84.02015461343919,0,60,1.0,3,0.15341540266915737
4.485,0.08752324394101413,84.41075278688982,0,60,1.0,3,0.1626059479268192
4.49,0.07465606047174059,84.79107511020709,0,60,1.0,3,0.17155470847546092
4.495,0.0631787448609295,85.15566858139451,0,60,1.0,3,0.18013337838575313
4.5,0.05304460019959574,85.49948511358731,0,60,1.0,3,0.18822317914323086
4.505,0.044185078305849994,85.81781198508382,0,60,1.0,3,0.19571322317844286
4.51,0.03651525513023255,86.1062671685372,0,60,1.0,3,0.2025004039655812
4.515,0.0299390014708757,86.36083432317702,0,60,1.0,3,0.20849021936887097
4.52,0.024353677220580638,86.57791901100559,0,60,1.0,3,0.21359809437660213
4.525,0.01965423034339045,86.75441307651025,0,60,1.0,3,0.21775089591788815
4.53,0.015736632374757337,86.88775811124916,0,60,1.0,3,0.22088842614703896
4.535,0.012500627640593535,86.97600175641713,0,60,1.0,3,0.2229647472098149
4.54,0.009851811652115898,87.017842589161,0,60,1.0,3,0.2239492373920237
4.545,0.007703084175428559,87.012660771883,0,60,1.0,3,0.22382731227960015
4.55,0.005975544002062424,86.96053273007563,0,60,1.0,3,0.22260077011942653
4.555,0.004598905818663047,86.86222900437889,0,60,1.0,3,0.2202877412795033
4.56,0.0035115256454839104,86.719195178689,0,60,1.0,3,0.21692223949856484
4.565,0.002660121266303676,86.53351645798008,0,60,1.0,3,0.21255332842306082
4.57,0.0019992692560877024,86.30786706938648,0,60,1.0,3,0.20724393104438765
4.575,0.0014907520044639367,86.04544618487417,0,60,1.0,3,0.2010693219970392
4.58,0.0011028178277539807,85.74990250322291,0,60,1.0,3,0.19411535301700972
4.585,0.0008094059938923333,85.42524997119911,0,60,1.0,3,0.18647646991056724
4.59,0.0005893771793717645,85.0757773587906,0,60,1.0,3,0.17825358491272006
4.595,0.0004257792353490551,84.70595452519278,0,60,1.0,3,0.1695518711810066
4.6,0.0003051686392901525,84.32033821979824,0,60,1.0,3,0.160478546348194
4.605,0.00021699992642659966,83.92348015988665,0,60,1.0,3,0.1511407096443918
4.61,0.00015308884054097838,83.51983992315786,0,60,1.0,3,0.1416432923095967
4.615,0.00010714989329311098,83.11370490220835,0,60,1.0,3,0.13208717416960833
4.62,7.440535854020571e-05,82.70911920653026,0,60,1.0,3,0.12256751074188849
4.625,5.1260276743925106e-05,82.30982298507394,0,60,1.0,3,0.11317230553115143
4.63,3.503659887882241e-05,81.91920319962112,0,60,1.0,3,0.10398125175579112
4.635,2.375894748103639e-05,81.5402564270607,0,60,1.0,3,0.09506485710731052
4.64,1.5984413869232557e-05,81.1755638270808,0,60,1.0,3,0.0864838547548422
4.645,1.0669166579899869e-05,80.82727799879292,0,60,1.0,3,0.07828889408924523
4.65,7.06526633560511e-06,80.49712108066727,0,60,1.0,3,0.07052049601570047
4.655,4.641847214699205e-06,80.18639313486506,0,60,1.0,3,0.06320925023211899
4.66,3.025641074479182e-06,79.89598960793784,0,60,1.0,3,0.05637622606912554
4.665,1.9566278676921314e-06,79.6264264795071,0,60,1.0,3,0.050033564223696536
4.67,1.2553456560008793e-06,79.37787159987418,0,60,1.0,3,0.04418521411468666
4.675,7.990660428214668e-07,79.15018067413585,0,60,1.0,3,0.03882778056790244
4.68,5.046221251618276e-07,78.94293636900822,0,60,1.0,3,0.03395144397666406
4.685,3.1616527078858815e-07,78.75548909159917,0,60,1.0,3,0.029540919802333494
4.69,1.9652884407760343e-07,78.58699810755667,0,60,1.0,3,0.025576426060156872
4.695,1.2120002189836396e-07,78.43647181909245,0,60,1.0,3,0.022034631037469325
4.7,7.415549848886236e-08,78.30280620070539,0,60,1.0,3,0.018889557663656246
4.705,4.501406988770349e-08,78.18482058158935,0,60,1.0,3,0.01611342544916116
4.71,0.0,78.08129015900583,0,60,1.0,3,0.01367741550601957
4.715,0.0,77.99097481773615,0,60,1.0,3,0.011552348652615178
4.72,0.0,77.91264400989799,0,60,1.0,3,0.00970927082112914
4.725,0.0,77.84509761126496,0,60,1.0,3,0.008119943794469679
4.73,0.0,77.7871828107303,0,60,1.0,3,0.00675724260541883
4.735,0.0,77.73780720624384,0,60,1.0,3,0.005595463676325728
4.74,0.0,77.69594837242065,0,60,1.0,3,0.004610549939309294
4.745,0.0,77.66066023234221,0,60,1.0,3,0.0037802407609931646
4.75,0.0,77.63107661018051,0,60,1.0,3,0.00308415553365916
4.755,0.0,77.60641236432045,0,60,1.0,3,0.0025038203369517225
4.76,0.0,77.58596250536276,0,60,1.0,3,0.002022647185006075
4.765,0.0,77.56909969282334,0,60,1.0,3,0.0016258751252551332
4.77,0.0,77.55527048169948,0,60,1.0,3,0.0013004819223407166
4.775,0.0,77.54399065849753,0,60,1.0,3,0.0010350743175890516
4.78,0.0,77.53483996875943,0,60,1.0,3,0.0008197639708100724
4.785,0.0,77.52745649724005,0,60,1.0,3,0.0006460352291777086
4.79,0.0,77.52153091995265,0,60,1.0,3,0.000506609881238894
4.795,0.0,77.51680080618708,0,60,1.0,3,0.00039531308675477437
4.8,0.0,77.51304510977057,0,60,1.0,3,0.0003069437593076012
4.805,0.0,77.51007895333593,0,60,1.0,3,0.00023715184319846283
4.81,0.0,77.50774877787383,0,60,1.0,3,0.00018232418526655932
4.815,0.0,77.50592790273667,0,60,1.0,3,0.00013948006439230032
4.82,0.0,77.50451251862505,0,60,1.0,4,0.00010617690882467662
4.825,0.0,77.50341811780184,0,60,1.0,4,8.042630121983219e-05
4.83,0.0,77.50257635156204,0,60,1.0,4,6.062003675390984e-05
4.835,0.0,77.50193229444417,0,60,1.0,4,4.5465751627622974e-05
4.84,0.0,77.50144208734422,0,60,1.0,4,3.3931466922735235e-05
4.845,0.0,77.5010709270944,0,60,1.0,4,2.519828457419702e-05
4.85,0.0,77.50079136771336,0,60,1.0,4,1.862041678497703e-05
4.855,0.0,77.50058189795325,0,60,1.0,4,1.3691716547140567e-05
4.86,0.0,77.50042576054396,0,60,1.0,4,1.0017895152045373e-05
4.865,0.0,77.5003099802863,0,60,1.0,4,7.293653795373115e-06
4.87,0.0,77.50022457055825,0,60,1.0,4,5.284013135183962e-06
4.875,0.0,77.5001618906037,0,60,1.0,4,3.809190675450308e-06
4.88,0.0,77.5001161289628,0,60,1.0,4,2.7324461835659724e-06
4.885,0.0,77.50008289141098,0,60,1.0,4,1.950386140780371e-06
4.89,0.0,77.5000588746852,0,60,1.0,4,1.3852867104614074e-06
4.895,0.0,77.50004161000271,0,60,1.0,4,9.7905888731689e-07
4.9,0.0,77.50002926287357,0,60,1.0,4,6.885382015966838e-07
4.905,0.0,77.50002047794057,0,60,1.0,4,4.818338956791943e-07
4.91,0.0,77.50001425954493,0,60,1.0,4,3.3551870414532246e-07
4.915,0.0,77.50000988041381,0,60,1.0,4,2.3248032501963763e-07
4.92,0.0,77.5000068123144,0,60,1.0,4,1.6028975049748088e-07
4.925,0.0,77.50000467373745,0,60,1.0,4,1.0997029295033237e-07
4.93,0.001684486749771458,77.50000319068567,0,60,1.0,4,7.507495705367012e-08
4.935,0.003097557930867117,77.50000216747358,0,60,1.0,4,5.099937839879524e-08
4.94,0.005475106668887023,77.50000146512164,0,60,1.0,4,3.447345039496534e-08
4.945,0.00930222931468658,77.50000098547052,0,60,1.0,4,2.318754167497579e-08
4.95,0.01519157517868857,77.50000065957421,0,60,1.0,4,1.5519393226735273e-08
4.955,0.023847336626128316,77.50000043927226,0,60,1.0,4,1.0335817785958438e-08
4.96,0.0359830743700859,77.50000029110788,0,60,1.0,4,6.849597197929945e-09
4.965,0.05218887796857759,77.50000019196597,0,60,1.0,4,4.516846274782438e-09
4.97,0.0727577001223134,77.50000012596347,0,60,1.0,4,2.963846287350273e-09
4.975,0.0974992498694751,77.50000008224605,0,60,1.0,4,1.9352010921840486e-09
4.98,0.12558706050443358,77.5000000534362,0,60,1.0,4,1.2573222567666295e-09
4.985,0.15549263588878245,77.50000003454666,0,60,1.0,4,8.128625615748152e-10
4.99,0.1850529723539114,77.50000002222423,0,60,1.0,4,5.229230068567524e-10
4.995,0.21169159439317053,77.50000001422649,0,60,1.0,4,3.3474086247973474e-10
5.0,0.23277292922115492,77.50000000906188,0,60,1.0,4,2.1322066726604723e-10
5.005,0.24602692519491282,77.50000000574367,0,60,1.0,4,1.3514522834157106e-10
5.01,0.24995056064839283,77.50000000362252,0,60,1.0,4,8.523570346262525e-11
5.015,0.24408826520424054,77.50000000227342,0,60,1.0,4,5.349233213243732e-11
5.02,0.22911894216865275,77.50000000141972,0,60,1.0,4,3.3405205399236256e-11
5.025,0.20672661788705934,77.50000000088221,0,60,1.0,4,2.0757879075758598e-11
5.03,0.17928878030241233,77.5000000005455,0,60,1.0,4,1.283524397877045e-11
5.035,0.14946211903866036,77.50000000033563,0,60,1.0,4,7.897222745026846e-12
5.04,0.1197651512573837,77.50000000020549,0,60,1.0,4,4.8350343336899055e-12
5.045,0.09224675744988023,77.50000000012518,0,60,1.0,4,2.9454922161462225e-12
5.05,0.06829565320281596,77.50000000007589,0,60,1.0,4,1.7855520983336164e-12
5.055,0.04860224607515734,77.50000000004577,0,60,1.0,4,1.0770156008862506e-12
5.06,0.03324612389699793,77.50000000002747,0,60,1.0,4,6.463431097525994e-13
5.065,0.021859876340472782,77.50000000001641,0,60,1.0,4,3.862008752013721e-13
5.07,0.01381595518554205,77.50000000000975,0,60,1.0,4,2.2937991375596645e-13
5.075,0.008394095110402422,77.50000000000577,0,60,1.0,4,1.3575545916169443e-13
5.08,0.0049052535271608,77.5000000000034,0,60,1.0,4,7.991515945725361e-14
5.085,0.0027671663551903634,77.50000000000199,0,60,1.0,4,4.681222729713601e-14
5.09,0.0015425553464444616,77.50000000000115,0,60,1.0,4,2.7084217221914406e-14
5.095,0.0009638206637011801,77.50000000000067,0,60,1.0,4,1.5715533449752805e-14
5.1,0.0009804935156568228,77.50000000000038,0,60,1.0,4,9.028072407304802e-15
5.105,0.0018793744894085216,77.50000000000023,0,60,1.0,4,5.349968833958401e-15
5.11,0.004535525206900863,77.50000000000013,0,60,1.0,4,3.0093574691016007e-15
5.115,0.010832767979632273,77.50000000000007,0,60,1.0,4,1.6718652606120004e-15
5.12,0.024208003392322392,77.50000000000004,0,60,1.0,4,1.0031191563672002e-15
5.125,0.0500971897335304,77.50000000000003,0,60,1.0,4,6.687461042448002e-16
5.13,0.09582894921774403,77.50000000000001,0,60,1.0,4,3.343730521224001e-16
5.135,0.16937896721820658,77.5,0,60,1.0,4,0.0
5.14,0.27661303008991756,77.5,0,60,1.0,4,0.0
5.145,0.4173782800009149,77.5,0,60,1.0,4,0.0
5.15,0.5818720934538056,77.5,0,60,1.0,4,0.0
5.155,0.7494718801585675,77.5,0,60,1.0,4,0.0
5.16,0.891813020752378,77.50000249065474,1,60,1.0,4,5.860364086295115e-08
5.165,0.9800361632936612,77.50000381481783,0,60,1.0,4,8.976041954156244e-08
5.17,0.993574479225126,77.50000596523532,0,60,1.0,4,1.4035847805323155e-07
5.175,0.9263438449375362,77.50000962503476,0,60,1.0,4,2.2647140620874244e-07
5.18,0.7873015962290536,77.50001618917643,0,60,1.0,4,3.809217984700594e-07
5.185,0.5959516244629897,77.5000285614158,0,60,1.0,4,6.720333130140395e-07
5.19,0.376910120078773,77.50005280883279,0,60,1.0,4,1.2425607715559796e-06
5.195,0.15739335672107918,77.50010151190543,0,60,1.0,4,2.388515421818524e-06
5.2,-0.033361226269301235,77.50020036214238,0,60,1.0,4,4.714403350108649e-06
5.205,-0.1680180840843834,77.50040077561245,0,60,1.0,4,9.430014410541202e-06
5.21,-0.23069703190837854,77.50080326727193,0,60,1.0,4,1.8900406398442475e-05
5.215,-0.22587267821131068,77.50159937912407,0,60,1.0,4,3.763244997819182e-05
5.22,-0.17718181630665902,77.50314438198903,0,60,1.0,4,7.398545856544308e-05
5.225,-0.11494332516451301,77.5060789517361,0,60,1.0,4,0.00014303415849647481
5.23,-0.061810214049552864,77.5115253796782,0,60,1.0,4,0.00027118540419304043
5.235,-0.026546104631500547,77.5213917627598,0,60,1.0,4,0.0005033355943483537
5.24,-0.00719600351942686,77.53882411894206,0,60,1.0,4,0.0009135086809896406
5.245,0.0022072757983807078,77.56884815932884,0,60,1.0,4,0.0016199566900902884
5.25,0.006917199873730717,77.6192346558676,0,60,1.0,4,0.002805521314531782
5.255,0.01004859748264829,77.70159894500465,0,60,1.0,4,0.004743504588344649
5.26,0.013037082251128167,77.83270008287926,0,60,1.0,4,0.007828237244217797
5.265,0.01645163937690478,78.03583465142736,0,60,1.0,4,0.012607874151232115
5.27,0.020526639934696615,78.34212553437393,0,60,1.0,4,0.019814718455857288
5.275,0.02539629541761738,78.79139701937089,0,60,1.0,4,0.030385812220491543
5.28,0.031171612185577933,79.43222533468237,0,60,1.0,4,0.045464125521938153
5.285,0.03795853426638131,80.32069048739088,0,60,1.0,4,0.06636918793860887
5.29,0.0458588961882057,81.5173707975343,0,60,1.0,4,0.09452637170668936
5.295,0.054966995891435555,83.08225427174436,0,60,1.0,4,0.13134715933516145
5.3,0.06536491004445595,85.06751487992965,0,60,1.0,4,0.17805917364540344
5.305,0.07711726085088699,87.50851138218808,0,60,1.0,4,0.23549438546324883
5.31,0.09026570629555215,90.41386466435996,0,60,1.0,4,0.3038556391614109
5.315,0.10482339848670268,93.75596504105044,0,60,1.0,4,0.38249329508353985
5.32,0.12076968927580028,97.4636280918179,0,60,1.0,4,0.4697324256898328
5.325,0.13804539501007884,101.41872257270964,0,60,1.0,4,0.5627934722990504
5.33,0.15654895051787066,105.45833242352343,0,60,1.0,4,0.6578431158476101
5.335,0.17613378141900526,109.38335163215552,0,60,1.0,4,0.7501965089918947
5.34,0.19660720058055794,112.9734084393601,0,60,1.0,4,0.8346684338672965
5.345,0.21773108748496234,116.00683982528938,0,60,1.0,4,0.9060432900068088
5.35,0.23922453870058807,118.28333120453613,0,60,1.0,4,0.9596077930479089
5.355,0.2607685857914563,119.646064803065,0,60,1.0,4,0.9916721130132942
5.36,0.2820129681603682,120.0,0,60,1.0,4,1.0
5.365,0.30258482867153996,119.32334270778719,0,60,1.0,4,0.9840786519479339
5.37,0.3220990771751686,117.6702984466819,0,60,1.0,4,0.9451834928631034
5.375,0.3401700499968971,115.1646448291192,0,60,1.0,4,0.8862269371557459
5.38,0.3564239911198326,111.9851997850634,0,60,1.0,4,0.8114164655309035
5.385,0.3705118017738417,108.34557221481842,0,60,1.0,4,0.7257781697604334
5.39,0.3821214567925213,104.47139174943496,0,60,1.0,4,0.634620982339646
5.395,0.39098947374066967,100.57838099842344,0,60,1.0,4,0.5430207293746692
5.4,0.3969108472035567,96.85417087272945,0,60,1.0,4,0.45539225582892834
5.405,0.3997469255491936,93.44582268957237,0,60,1.0,4,0.37519582798993806
5.41,0.3994308076379137,90.45385471397468,0,60,1.0,4,0.30479658150528655
5.415,0.3959699661768434,87.93243962502166,0,60,1.0,4,0.24546916764756843
5.42,0.38944595408114946,85.89455992933536,0,60,1.0,4,0.19751905716083196
5.425,0.38001120995358023,84.32040601189054,0,60,1.0,4,0.160480141456248
5.43,0.3678831374098315,83.16719725117376,0,60,1.0,4,0.13334581767467674
5.435,0.35333577933796634,82.37883285219493,0,60,1.0,4,0.114796067110469
5.44,0.33668953221163944,81.89421459224894,0,60,1.0,4,0.10339328452350455
5.445,0.3182994390982644,81.65359406235096,0,60,1.0,4,0.09773162499649321
5.45,0.29854265738230645,81.60276811068044,0,60,1.0,4,0.09653572025130455
5.455,0.2778057157821067,81.6953041114732,0,60,1.0,4,0.0987130379170166
5.46,0.2564721553719815,81.89319219750705,0,60,1.0,4,0.10336922817663642
5.465,0.23491109433464996,82.16640283127366,0,60,1.0,4,0.10979771367702724
5.47,0.21346717185309805,82.49180664386697,0,60,1.0,4,0.11745427397334036
5.475,0.19245222055656455,82.85182970057085,0,60,1.0,4,0.12592540471931402
5.48,0.17213889801761392,83.23310877819486,0,60,1.0,4,0.13489667713399672
5.485,0.15275638501270183,83.62530580186197,0,60,1.0,4,0.14412484239675222
5.49,0.13448814019607322,84.02015461343919,0,60,1.0,4,0.15341540266915737
5.495,0.11747159495449566,84.41075278688982,0,60,1.0,4,0.1626059479268192
5.5,0.10179958433370105,84.79107511020709,0,60,1.0,4,0.17155470847546092
5.505,0.08752324394101413,85.15566858139451,0,60,1.0,4,0.18013337838575313
5.51,0.07465606047174059,85.49948511358731,0,60,1.0,4,0.18822317914323086
5.515,0.0631787448609295,85.81781198508382,0,60,1.0,4,0.19571322317844286
5.52,0.05304460019959574,86.1062671685372,0,60,1.0,4,0.2025004039655812
5.525,0.044185078305849994,86.36083432317702,0,60,1.0,4,0.20849021936887097
5.53,0.03651525513023255,86.57791901100559,0,60,1.0,4,0.21359809437660213
5.535,0.0299390014708757,86.75441307651025,0,60,1.0,4,0.21775089591788815
5.54,0.024353677220580638,86.88775811124916,0,60,1.0,4,0.22088842614703896
5.545,0.01965423034339045,86.97600175641713,0,60,1.0,4,0.2229647472098149
5.55,0.015736632374757337,87.017842589161,0,60,1.0,4,0.2239492373920237
5.555,0.012500627640593535,87.012660771883,0,60,1.0,4,0.22382731227960015
5.56,0.009851811652115898,86.96053273007563,0,60,1.0,4,0.22260077011942653
5.565,0.007703084175428559,86.86222900437889,0,60,1.0,4,0.2202877412795033
5.57,0.005975544002062424,86.719195178689,0,60,1.0,4,0.21692223949856484
5.575,0.004598905818663047,86.53351645798008,0,60,1.0,4,0.21255332842306082
5.58,0.0035115256454839104,86.30786706938648,0,60,1.0,4,0.20724393104438765
5.585,0.002660121266303676,86.04544618487417,0,60,1.0,4,0.2010693219970392
5.59,0.0019992692560877024,85.74990250322291,0,60,1.0,4,0.19411535301700972
5.595,0.0014907520044639367,85.42524997119911,0,60,1.0,4,0.18647646991056724
5.6,0.0011028178277539807,85.0757773587906,0,60,1.0,4,0.17825358491272006
5.605,0.0008094059938923333,84.70595452519278,0,60,1.0,4,0.1695518711810066
5.61,0.0005893771793717645,84.32033821979824,0,60,1.0,4,0.160478546348194
5.615,0.0004257792353490551,83.92348015988665,0,60,1.0,4,0.1511407096443918
5.62,0.0003051686392901525,83.51983992315786,0,60,1.0,4,0.1416432923095967
5.625,0.00021699992642659966,83.11370490220835,0,60,1.0,4,0.13208717416960833
5.63,0.00015308884054097838,82.70911920653026,0,60,1.0,4,0.12256751074188849
5.635,0.00010714989329311098,82.30982298507394,0,60,1.0,4,0.11317230553115143
5.64,7.440535854020571e-05,81.91920319962112,0,60,1.0,4,0.10398125175579112
5.645,5.1260276743925106e-05,81.5402564270607,0,60,1.0,4,0.09506485710731052
5.65,3.503659887882241e-05,81.1755638270808,0,60,1.0,4,0.0864838547548422
5.655,2.375894748103639e-05,80.82727799879292,0,60,1.0,4,0.07828889408924523
5.66,1.5984413869232557e-05,80.49712108066727,0,60,1.0,4,0.07052049601570047
5.665,1.0669166579899869e-05,80.18639313486506,0,60,1.0,4,0.06320925023211899
5.67,7.06526633560511e-06,79.89598960793784,0,60,1.0,4,0.05637622606912554
5.675,4.641847214699205e-06,79.6264264795071,0,60,1.0,4,0.050033564223696536
5.68,3.025641074479182e-06,79.37787159987418,0,60,1.0,4,0.04418521411468666
5.685,1.9566278676921314e-06,79.15018067413585,0,60,1.0,4,0.03882778056790244
5.69,1.2553456560008793e-06,78.94293636900822,0,60,1.0,4,0.03395144397666406
5.695,7.990660428214668e-07,78.75548909159917,0,60,1.0,4,0.029540919802333494
5.7,5.046221251618276e-07,78.58699810755667,0,60,1.0,4,0.025576426060156872
5.705,3.1616527078858815e-07,78.43647181909245,0,60,1.0,4,0.022034631037469325
5.71,1.9652884407760343e-07,78.30280620070539,0,60,1.0,4,0.018889557663656246
5.715,1.2120002189836396e-07,78.18482058158935,0,60,1.0,4,0.01611342544916116
5.72,7.415549848886236e-08,78.08129015900583,0,60,1.0,4,0.01367741550601957
5.725,4.501406988770349e-08,77.99097481773615,0,60,1.0,4,0.011552348652615178
5.73,0.0,77.91264400989799,0,60,1.0,4,0.00970927082112914
5.735,0.0,77.84509761126496,0,60,1.0,4,0.008119943794469679
5.74,0.0,77.7871828107303,0,60,1.0,4,0.00675724260541883
5.745,0.0,77.73780720624384,0,60,1.0,4,0.005595463676325728
5.75,0.0,77.69594837242065,0,60,1.0,4,0.004610549939309294
5.755,0.0,77.66066023234221,0,60,1.0,4,0.0037802407609931646
5.76,0.0,77.63107661018051,0,60,1.0,4,0.00308415553365916
5.765,0.0,77.60641236432045,0,60,1.0,4,0.0025038203369517225
5.77,0.0,77.58596250536276,0,60,1.0,4,0.002022647185006075
5.775,0.0,77.56909969282334,0,60,1.0,4,0.0016258751252551332
5.78,0.0,77.55527048169948,0,60,1.0,4,0.0013004819223407166
5.785,0.0,77.54399065849753,0,60,1.0,4,0.0010350743175890516
5.79,0.0,77.53483996875943,0,60,1.0,4,0.0008197639708100724
5.795,0.0,77.52745649724005,0,60,1.0,4,0.0006460352291777086
5.8,0.0,77.52153091995265,0,60,1.0,4,0.000506609881238894
5.805,0.0,77.51680080618708,0,60,1.0,4,0.00039531308675477437
5.81,0.0,77.51304510977057,0,60,1.0,4,0.0003069437593076012
5.815,0.0,77.51007895333593,0,60,1.0,4,0.00023715184319846283
5.82,0.0,77.50774877787383,0,60,1.0,4,0.00018232418526655932
5.825,0.0,77.50592790273667,0,60,1.0,4,0.00013948006439230032
5.83,0.0,77.50451251862505,0,60,1.0,4,0.00010617690882467662
5.835,0.0,77.50341811780184,0,60,1.0,4,8.042630121983219e-05
5.84,0.0,77.50257635156204,0,60,1.0,4,6.062003675390984e-05
5.845,0.0,77.50193229444417,0,60,1.0,4,4.5465751627622974e-05
5.85,0.0,77.50144208734422,0,60,1.0,4,3.3931466922735235e-05
5.855,0.0,77.5010709270944,0,60,1.0,4,2.519828457419702e-05
5.86,0.0,77.50079136771336,0,60,1.0,4,1.862041678497703e-05
5.865,0.0,77.50058189795325,0,60,1.0,4,1.3691716547140567e-05
5.87,0.0,77.50042576054396,0,60,1.0,4,1.0017895152045373e-05
5.875,0.0,77.5003099802863,0,60,1.0,4,7.293653795373115e-06
5.88,0.0,77.50022457055825,0,60,1.0,4,5.284013135183962e-06
5.885,0.0,77.5001618906037,0,60,1.0,4,3.809190675450308e-06
5.89,0.0,77.5001161289628,0,60,1.0,4,2.7324461835659724e-06
5.895,0.0,77.50008289141098,0,60,1.0,4,1.950386140780371e-06
5.9,0.0,77.5000588746852,0,60,1.0,4,1.3852867104614074e-06
5.905,0.0,77.50004161000271,0,60,1.0,4,9.7905888731689e-07
5.91,0.0,77.50002926287357,0,60,1.0,4,6.885382015966838e-07
5.915,0.0,77.50002047794057,0,60,1.0,4,4.818338956791943e-07
5.92,0.0,77.50001425954493,0,60,1.0,4,3.3551870414532246e-07
5.925,0.0,77.50000988041381,0,60,1.0,4,2.3248032501963763e-07
5.93,0.001684486749771458,77.5000068123144,0,60,1.0,4,1.6028975049748088e-07
5.935,0.003097557930867117,77.50000467373745,0,60,1.0,4,1.0997029295033237e-07
5.94,0.005475106668887023,77.50000319068567,0,60,1.0,4,7.507495705367012e-08
5.945,0.00930222931468658,77.50000216747358,0,60,1.0,4,5.099937839879524e-08
5.95,0.01519157517868857,77.50000146512164,0,60,1.0,4,3.447345039496534e-08
5.955,0.023847336626128316,77.50000098547052,0,60,1.0,4,2.318754167497579e-08
5.96,0.0359830743700859,77.50000065957421,0,60,1.0,4,1.5519393226735273e-08
5.965,0.05218887796857759,77.50000043927226,0,60,1.0,4,1.0335817785958438e-08
5.97,0.0727577001223134,77.50000029110788,0,60,1.0,4,6.849597197929945e-09
5.975,0.0974992498694751,77.50000019196597,0,60,1.0,4,4.516846274782438e-09
5.98,0.12558706050443358,77.50000012596347,0,60,1.0,4,2.963846287350273e-09
5.985,0.15549263588878245,77.50000008224605,0,60,1.0,4,1.9352010921840486e-09
5.99,0.1850529723539114,77.5000000534362,0,60,1.0,4,1.2573222567666295e-09
5.995,0.21169159439317053,77.50000003454666,0,60,1.0,4,8.128625615748152e-10
6.0,0.23277292922115492,77.50000002222423,0,60,1.0,4,5.229230068567524e-10
6.005,0.24602692519491282,77.50000001422649,0,60,1.0,4,3.3474086247973474e-10
6.01,0.24995056064839283,77.50000000906188,0,60,1.0,4,2.1322066726604723e-10
6.015,0.24408826520424054,77.50000000574367,0,60,1.0,4,1.3514522834157106e-10
6.02,0.22911894216865275,77.50000000362252,0,60,1.0,4,8.523570346262525e-11
6.025,0.20672661788705934,77.50000000227342,0,60,1.0,5,5.349233213243732e-11
6.03,0.17928878030241233,77.50000000141972,0,60,1.0,5,3.3405205399236256e-11
6.035,0.14946211903866036,77.50000000088221,0,60,1.0,5,2.0757879075758598e-11
6.04,0.1197651512573837,77.5000000005455,0,60,1.0,5,1.283524397877045e-11
6.045,0.09224675744988023,77.50000000033563,0,60,1.0,5,7.897222745026846e-12
6.05,0.06829565320281596,77.50000000020549,0,60,1.0,5,4.8350343336899055e-12
6.055,0.04860224607515734,77.50000000012518,0,60,1.0,5,2.9454922161462225e-12
6.06,0.03324612389699793,77.50000000007589,0,60,1.0,5,1.7855520983336164e-12
6.065,0.021859876340472782,77.50000000004577,0,60,1.0,5,1.0770156008862506e-12
6.07,0.01381595518554205,77.50000000002747,0,60,1.0,5,6.463431097525994e-13
6.075,0.008394095110402422,77.50000000001641,0,60,1.0,5,3.862008752013721e-13
6.08,0.0049052535271608,77.50000000000975,0,60,1.0,5,2.2937991375596645e-13
6.085,0.0027671663551903634,77.50000000000577,0,60,1.0,5,1.3575545916169443e-13
6.09,0.0015425553464444616,77.5000000000034,0,60,1.0,5,7.991515945725361e-14
6.095,0.0009638206637011801,77.50000000000199,0,60,1.0,5,4.681222729713601e-14
6.1,0.0009804935156568228,77.50000000000115,0,60,1.0,5,2.7084217221914406e-14
6.105,0.0018793744894085216,77.50000000000067,0,60,1.0,5,1.5715533449752805e-14
6.11,0.004535525206900863,77.50000000000038,0,60,1.0,5,9.028072407304802e-15
6.115,0.010832767979632273,77.50000000000023,0,60,1.0,5,5.349968833958401e-15
6.12,0.024208003392322392,77.50000000000013,0,60,1.0,5,3.0093574691016007e-15
6.125,0.0500971897335304,77.50000000000007,0,60,1.0,5,1.6718652606120004e-15
6.13,0.09582894921774403,77.50000000000004,0,60,1.0,5,1.0031191563672002e-15
6.135,0.16937896721820658,77.50000000000003,0,60,1.0,5,6.687461042448002e-16
6.14,0.27661303008991756,77.50000000000001,0,60,1.0,5,3.343730521224001e-16
6.145,0.4173782800009149,77.5,0,60,1.0,5,0.0
6.15,0.5818720934538056,77.5,0,60,1.0,5,0.0
6.155,0.7494718801585675,77.5,0,60,1.0,5,0.0
6.16,0.891813020752378,77.5,0,60,1.0,5,0.0
6.165,0.9800361632936612,77.5,0,60,1.0,5,0.0
6.17,0.993574479225126,77.50000249606323,1,60,1.0,5,5.8730899568485364e-08
6.175,0.9263438449375362,77.5000038398575,0,60,1.0,5,9.034958820313264e-08
6.18,0.7873015962290536,77.500006033868,0,60,1.0,5,1.4197336480826967e-07
6.185,0.5959516244629897,77.50000979196264,0,60,1.0,5,2.303991209373635e-07
6.19,0.376910120078773,77.50001658325932,0,60,1.0,5,3.9019433703448587e-07
6.195,0.15739335672107918,77.50002948944842,0,60,1.0,5,6.938693746526362e-07
6.2,-0.033361226269301235,77.50005499618474,0,60,1.0,5,1.2940278763300524e-06
6.205,-0.1680180840843834,77.50010664152244,0,60,1.0,5,2.509212292606582e-06
6.21,-0.23069703190837854,77.50021223841208,0,60,1.0,5,4.993844990006919e-06
6.215,-0.22587267821131068,77.50042774487464,0,60,1.0,5,1.006458528569751e-05
6.22,-0.17718181630665902,77.50086306382961,0,60,1.0,5,2.0307384226177473e-05
6.225,-0.11494332516451301,77.50172846110615,0,60,1.0,5,4.0669673085978825e-05
6.23,-0.061810214049552864,77.5034152292072,0,60,1.0,5,8.035833428721162e-05
6.235,-0.026546104631500547,77.5066308676186,0,60,1.0,5,0.00015602041455522073
6.24,-0.00719600351942686,77.51261714788687,0,60,1.0,5,0.0002968740679263834
6.245,0.0022072757983807078,77.5234879390857,0,60,1.0,5,0.000552657390251705
6.25,0.006917199873730717,77.5427303078502,0,60,1.0,5,0.00100541900824015
6.255,0.01004859748264829,77.57591328443115,0,60,1.0,5,0.001786194927791819
6.26,0.013037082251128167,77.63163821024733,0,60,1.0,5,0.0030973696528783824
6.265,0.01645163937690478,77.7227359889992,0,60,1.0,5,0.005240846799981281
6.27,0.020526639934696615,77.86766338596527,0,60,1.0,5,0.008650903199182882
6.275,0.02539629541761738,78.09196918540792,0,60,1.0,5,0.013928686715480447
6.28,0.031171612185577933,78.42959438652437,0,60,1.0,5,0.021872809094691092
6.285,0.03795853426638131,78.9236517302522,0,60,1.0,5,0.03349768777064007
6.29,0.0458588961882057,79.62622444184039,0,60,1.0,5,0.05002881039624453
6.295,0.054966995891435555,80.5966700411891,0,60,1.0,5,0.07286282449856706
6.3,0.06536491004445595,81.89795705296187,0,60,1.0,5,0.10348134242263227
6.305,0.07711726085088699,83.590740736457,0,60,1.0,5,0.14331154674016455
6.31,0.09026570629555215,85.72521884287897,0,60,1.0,5,0.19353456100891703
6.315,0.10482339848670268,88.3312835786459,0,60,1.0,5,0.25485373126225636
6.32,0.12076968927580028,91.40803681418913,0,60,1.0,5,0.32724792503974426
6.325,0.13804539501007884,94.91424919828907,0,60,1.0,5,0.4097470399597428
6.33,0.15654895051787066,98.7616754538298,0,60,1.0,5,0.5002747165607011
6.335,0.17613378141900526,102.81314459839467,0,60,1.0,5,0.5956034023151687
6.34,0.19660720058055794,106.88692793605124,0,60,1.0,5,0.6914571279070879
6.345,0.21773108748496234,110.76804090701927,0,60,1.0,5,0.7827774331063357
6.35,0.23922453870058807,114.22596317855158,0,60,1.0,5,0.8641403100835666
6.355,0.2607685857914563,117.0369802382121,0,60,1.0,5,0.9302818879579317
6.36,0.2820129681603682,119.00824368351186,0,60,1.0,5,0.9766645572591027
6.365,0.30258482867153996,120.0,0,60,1.0,5,1.0
6.37,0.3220990771751686,119.94245116636986,0,60,1.0,5,0.998645909796938
6.375,0.3401700499968971,118.84443995887491,0,60,1.0,5,0.9728103519735274
6.38,0.3564239911198326,116.79247804582917,0,60,1.0,5,0.9245288951959805
6.385,0.3705118017738417,113.94028233815197,0,60,1.0,5,0.857418407956517
6.39,0.3821214567925213,110.4905961503334,0,60,1.0,5,0.7762493211843153
6.395,0.39098947374066967,106.67229771772733,0,60,1.0,5,0.686407005122996
6.4,0.3969108472035567,102.71639188641603,0,60,1.0,5,0.5933268679156714
6.405,0.3997469255491936,98.83435529010902,0,60,1.0,5,0.5019848303555062
6.41,0.3994308076379137,95.20154861737079,0,60,1.0,5,0.4165070262910774
6.415,0.3959699661768434,91.94724589020063,0,60,1.0,5,0.3399351974164855
6.42,0.38944595408114946,89.1515501373611,0,60,1.0,5,0.2741541208790847
6.425,0.38001120995358023,86.84834318674413,0,60,1.0,5,0.21996101615868544
6.43,0.3678831374098315,85.03265064487029,0,60,1.0,5,0.17723883870283028
6.435,0.35333577933796634,83.67047424017679,0,60,1.0,5,0.1451876291806303
6.44,0.33668953221163944,82.70922389874646,0,60,1.0,5,0.12256997408815196
6.445,0.3182994390982644,82.08726133343396,0,60,1.0,5,0.10793556078668136
6.45,0.29854265738230645,81.74159879534122,0,60,1.0,5,0.09980232459626397
6.455,0.2778057157821067,81.61334027722147,0,60,1.0,5,0.09678447711109336
6.46,0.2564721553719815,81.6509036668351,0,60,1.0,5,0.09766832157259073
6.465,0.23491109433464996,81.81136644357802,0,60,1.0,5,0.10144391631948291
6.47,0.21346717185309805,82.06042651697676,0,60,1.0,5,0.10730415334062968
6.475,0.19245222055656455,82.37148928088116,0,60,1.0,5,0.11462327719720386
6.48,0.17213889801761392,82.72432417484066,0,60,1.0,5,0.12292527470213319
6.485,0.15275638501270183,83.10362302191093,0,60,1.0,5,0.13184995345672787
6.49,0.13448814019607322,83.49767392349987,0,60,1.0,5,0.14112173937646763
6.495,0.11747159495449566,83.89726171789964,0,60,1.0,5,0.15052380512705033
6.5,0.10179958433370105,84.29482974674242,0,60,1.0,5,0.15987834698217465
6.505,0.08752324394101413,84.68388923933297,0,60,1.0,5,0.16903268798430518
6.51,0.07465606047174059,85.05863764443257,0,60,1.0,5,0.17785029751606035
6.515,0.0631787448609295,85.41373904216793,0,60,1.0,5,0.18620562452159842
6.52,0.05304460019959574,85.74422176195922,0,60,1.0,5,0.19398168851668762
6.525,0.044185078305849994,86.0454552613927,0,60,1.0,5,0.20106953556218127
6.53,0.03651525513023255,86.31317664893982,0,60,1.0,5,0.20736886232799567
6.535,0.0299390014708757,86.54354497329876,0,60,1.0,5,0.2127892934893827
6.54,0.024353677220580638,86.73320770957436,0,60,1.0,5,0.21725194610763196
6.545,0.01965423034339045,86.87936861096367,0,60,1.0,5,0.22069102614032157
6.55,0.015736632374757337,86.97984948291244,0,60,1.0,5,0.223055281950881
6.555,0.012500627640593535,87.03314081261668,0,60,1.0,5,0.2243091955909807
6.56,0.009851811652115898,87.03843787511315,0,60,1.0,5,0.22443383235560344
6.565,0.007703084175428559,86.99566019345913,0,60,1.0,5,0.2234272986696266
6.57,0.005975544002062424,86.90545322943116,0,60,1.0,5,0.22130478186896846
6.575,0.004598905818663047,86.76917202771214,0,60,1.0,5,0.2180981653579328
6.58,0.0035115256454839104,86.58884728386485,0,60,1.0,5,0.21385523020858474
6.585,0.002660121266303676,86.36713497361453,0,60,1.0,5,0.2086384699674006
6.59,0.0019992692560877024,86.10725126733229,0,60,1.0,5,0.20252355923134793
6.595,0.0014907520044639367,85.81289494876535,0,60,1.0,5,0.19559752820624346
6.6,0.0011028178277539807,85.48815994788507,0,60,1.0,5,0.1879567046561192
6.605,0.0008094059938923333,85.13744087266727,0,60,1.0,5,0.17970449112158282
6.61,0.0005893771793717645,84.76533457621503,0,60,1.0,5,0.17094904885211823
6.615,0.0004257792353490551,84.37654082180066,0,60,1.0,5,0.1618009605129567
6.62,0.0003051686392901525,83.97576501288177,0,60,1.0,5,0.15237094147957095
6.625,0.00021699992642659966,83.5676257473155,0,60,1.0,5,0.14276766464271773
6.63,0.00015308884054097838,83.1565696492459,0,60,1.0,5,0.1330957564528446
6.635,0.00010714989329311098,82.74679554691296,0,60,1.0,5,0.12345401286854031
6.64,7.440535854020571e-05,82.34218962124325,0,60,1.0,5,0.11393387344101764
6.645,5.1260276743925106e-05,81.94627267143458,0,60,1.0,5,0.10461818050434317
6.65,3.503659887882241e-05,81.5621601530088,0,60,1.0,5,0.0955802388943248
6.655,2.375894748103639e-05,81.19253516317026,0,60,1.0,5,0.08688318030988854
6.66,1.5984413869232557e-05,80.83963409787519,0,60,1.0,5,0.07857962583235743
6.665,1.0669166579899869e-05,80.5052443018934,0,60,1.0,5,0.07071163063278585
6.67,7.06526633560511e-06,80.19071269077197,0,60,1.0,5,0.06331088684169352
6.675,4.641847214699205e-06,79.89696405136633,0,60,1.0,5,0.056399154149795884
6.68,3.025641074479182e-06,79.6245275306656,0,60,1.0,5,0.04998888307448477
6.685,1.9566278676921314e-06,79.37356970210506,0,60,1.0,5,0.044083992990707255
6.69,1.2553456560008793e-06,79.14393255178399,0,60,1.0,5,0.03868076592432919
6.695,7.990660428214668e-07,78.93517474813203,0,60,1.0,5,0.03376881760310653
6.7,5.046221251618276e-07,78.74661463915068,0,60,1.0,5,0.029332109156486548
6.705,3.1616527078858815e-07,78.57737355111618,0,60,1.0,5,0.02534996590861604
6.71,1.9652884407760343e-07,78.42641813017309,0,60,1.0,5,0.021798073651131532
6.715,1.2120002189836396e-07,78.29260066180315,0,60,1.0,5,0.01864942733654469
6.72,7.415549848886236e-08,78.17469651121884,0,60,1.0,5,0.0158752120286786
6.725,4.501406988770349e-08,78.07143803963184,0,60,1.0,5,0.013445600932513959
6.73,0.0,77.98154455767332,0,60,1.0,5,0.011330460180548632
6.735,0.0,77.9037480701592,0,60,1.0,5,0.009499954591981082
6.74,0.0,77.83681473981095,0,60,1.0,5,0.00792505270143405
6.745,0.0,77.7795621471775,0,60,1.0,5,0.006577932874764723
6.75,0.0,77.730872547324,0,60,1.0,5,0.005432295231152881
6.755,0.0,77.68970241993146,0,60,1.0,5,0.0044635863513285716
6.76,0.0,77.65508867876439,0,60,1.0,5,0.0036491453826914388
6.765,0.0,77.62615195063168,0,60,1.0,5,0.002968281191333651
6.77,0.0,77.60209735548692,0,60,1.0,5,0.0024022907173392627
6.775,0.0,77.58221322128246,0,60,1.0,5,0.001934428736057846
6.78,0.0,77.56586815304183,0,60,1.0,5,0.001549838895101964
6.785,0.0,77.5525068488899,0,60,1.0,5,0.0012354552679977695
6.79,0.0,77.54164501992928,0,60,1.0,5,0.0009798828218653371
6.795,0.0,77.53286372908609,0,60,1.0,5,0.0007732642137903119
6.8,0.0,77.52580341921859,0,60,1.0,5,0.0006071392757315366
6.805,0.0,77.5201578553129,0,60,1.0,5,0.0004743024779506467
6.81,0.0,77.51566816144691,0,60,1.0,5,0.0003686626222802528
6.815,0.0,77.51211709188321,0,60,1.0,5,0.0002851080443108725
6.82,0.0,77.50932363821491,0,60,1.0,5,0.0002193797227037334
6.825,0.0,77.50713804159365,0,60,1.0,5,0.00016795391985056086
6.83,0.0,77.50543725103012,0,60,1.0,5,0.00012793531835567966
6.835,0.0,77.5041208456039,0,60,1.0,5,9.69610730327772e-05
6.84,0.0,77.5031074199587,0,60,1.0,5,7.311576373400813e-05
6.845,0.0,77.50233141833475,0,60,1.0,5,5.485690199407145e-05
6.85,0.0,77.50174039213948,0,60,1.0,5,4.095040328192066e-05
6.855,0.0,77.501292649158,0,60,1.0,5,3.0415274305957664e-05
6.86,0.0,77.50095525841263,0,60,1.0,5,2.2476668532496712e-05
6.865,0.0,77.50070237286243,0,60,1.0,5,1.6526420292580843e-05
6.87,0.0,77.50051383209139,0,60,1.0,5,1.2090166856135992e-05
6.875,0.0,77.50037400841595,0,60,1.0,5,8.800198022259686e-06
6.88,0.0,77.50027086205799,0,60,1.0,5,6.37322489383758e-06
6.885,0.0,77.50019517384675,0,60,1.0,5,4.5923258058417775e-06
6.89,0.0,77.50013992706306,0,60,1.0,5,3.292401483764372e-06
6.895,0.0,77.50009981331155,0,60,1.0,5,2.348548507063028e-06
6.9,0.0,77.5000708405394,0,60,1.0,5,1.6668362210272307e-06
6.905,0.0,77.50005002440169,0,60,1.0,5,1.177044745592117e-06
6.91,0.0,77.50003514702703,0,60,1.0,5,8.269888714012803e-07
6.915,0.0,77.50002456981785,0,60,1.0,5,5.781133612505501e-07
6.92,0.0,77.50001708920767,0,60,1.0,5,4.0209900409054705e-07
6.925,0.0,77.50001182629116,0,60,1.0,5,2.782656742831879e-07
6.93,0.001684486749771458,77.50000814295163,0,60,1.0,5,1.9159886184805894e-07
6.935,0.003097557930867117,77.50000557855593,0,60,1.0,5,1.312601394896346e-07
6.94,0.005475106668887023,77.5000038024926,0,60,1.0,5,8.947041411535312e-08
6.945,0.00930222931468658,77.50000257882347,0,60,1.0,5,6.067819928081436e-08
6.95,0.01519157517868857,77.5000017401292,0,60,1.0,5,4.0944216634135744e-08
6.955,0.023847336626128316,77.50000116828292,0,60,1.0,5,2.748900990755989e-08
6.96,0.0359830743700859,77.50000078040709,0,60,1.0,5,1.836251980795864e-08
6.965,0.05218887796857759,77.50000051868184,0,60,1.0,5,1.220427868568496e-08
6.97,0.0727577001223134,77.50000034299478,0,60,1.0,5,8.070465435808086e-09
6.975,0.0974992498694751,77.50000022567355,0,60,1.0,5,5.3099657794946855e-09
6.98,0.12558706050443358,77.50000014773399,0,60,1.0,5,3.4760937657719136e-09
6.985,0.15549263588878245,77.50000009622477,0,60,1.0,5,2.2641121605000295e-09
6.99,0.1850529723539114,77.5000000623591,0,60,1.0,5,1.4672730899559718e-09
6.995,0.21169159439317053,77.50000004020866,0,60,1.0,5,9.460861479858388e-10
7.0,0.23277292922115492,77.50000002579563,0,60,1.0,5,6.069559704508933e-10
7.005,0.24602692519491282,77.50000001646566,0,60,1.0,5,3.874273555565571e-10
7.01,0.24995056064839283,77.50000001045728,0,60,1.0,5,2.460537603731021e-10
7.015,0.24408826520424054,77.50000000660792,0,60,1.0,5,1.5548045987944693e-10
7.02,0.22911894216865275,77.50000000415449,0,60,1.0,5,9.775262429577518e-11
7.025,0.20672661788705934,77.50000000259882,0,60,1.0,5,6.114880627993604e-11
7.03,0.17928878030241233,77.5000000016175,0,60,1.0,5,3.80586751656237e-11
7.035,0.14946211903866036,77.50000000100165,0,60,1.0,5,2.356828457884737e-11
7.04,0.1197651512573837,77.50000000061716,0,60,1.0,5,1.4521487280623714e-11
7.045,0.09224675744988023,77.50000000037834,0,60,1.0,5,8.902013766654657e-12
7.05,0.06829565320281596,77.50000000023077,0,60,1.0,5,5.4298839934156554e-12
7.055,0.04860224607515734,77.50000000014005,0,60,1.0,5,3.2952464286662528e-12
7.06,0.03324612389699793,77.50000000008457,0,60,1.0,5,1.989854033180403e-12
7.065,0.021859876340472782,77.5000000000508,0,60,1.0,5,1.1953836613375804e-12
7.07,0.01381595518554205,77.50000000003037,0,60,1.0,5,7.14555212385569e-13
7.075,0.008394095110402422,77.50000000001806,0,60,1.0,5,4.249881492475705e-13
7.08,0.0049052535271608,77.50000000001069,0,60,1.0,5,2.514485351960449e-13
7.085,0.0027671663551903634,77.5000000000063,0,60,1.0,5,1.4812726209022324e-13
7.09,0.0015425553464444616,77.50000000000368,0,60,1.0,5,8.660262049970162e-14
7.095,0.0009638206637011801,77.50000000000215,0,60,1.0,5,5.049033087048241e-14
7.1,0.0009804935156568228,77.50000000000125,0,60,1.0,5,2.942482858677121e-14
7.105,0.0018793744894085216,77.50000000000072,0,60,1.0,5,1.7053025658242404e-14
7.11,0.004535525206900863,77.50000000000041,0,60,1.0,5,9.696818511549603e-15
7.115,0.010832767979632273,77.50000000000024,0,60,1.0,5,5.684341886080802e-15
7.12,0.024208003392322392,77.50000000000013,0,60,1.0,5,3.0093574691016007e-15
7.125,0.0500971897335304,77.50000000000007,0,60,1.0,5,1.6718652606120004e-15
7.13,0.09582894921774403,77.50000000000004,0,60,1.0,5,1.0031191563672002e-15
7.135,0.16937896721820658,77.50000000000003,0,60,1.0,5,6.687461042448002e-16
7.14,0.27661303008991756,77.50000000000001,0,60,1.0,5,3.343730521224001e-16
7.145,0.4173782800009149,77.5,0,60,1.0,5,0.0
7.15,0.5818720934538056,77.5,0,60,1.0,5,0.0
7.155,0.7494718801585675,77.5,0,60,1.0,5,0.0
7.16,0.891813020752378,77.5,0,60,1.0,5,0.0
7.165,0.9800361632936612,77.5,0,60,1.0,5,0.0
7.17,0.993574479225126,77.50000249606323,1,60,1.0,5,5.8730899568485364e-08
7.175,0.9263438449375362,77.5000038398575,0,60,1.0,5,9.034958820313264e-08
7.18,0.7873015962290536,77.500006033868,0,60,1.0,5,1.4197336480826967e-07
7.185,0.5959516244629897,77.50000979196264,0,60,1.0,5,2.303991209373635e-07
7.19,0.376910120078773,77.50001658325932,0,60,1.0,5,3.9019433703448587e-07
7.195,0.15739335672107918,77.50002948944842,0,60,1.0,5,6.938693746526362e-07
7.2,-0.033361226269301235,77.50005499618474,0,60,1.0,5,1.2940278763300524e-06
7.205,-0.1680180840843834,77.50010664152244,0,60,1.0,5,2.509212292606582e-06
7.21,-0.23069703190837854,77.50021223841208,0,60,1.0,5,4.993844990006919e-06
7.215,-0.22587267821131068,77.50042774487464,0,60,1.0,5,1.006458528569751e-05
7.22,-0.17718181630665902,77.50086306382961,0,60,1.0,5,2.0307384226177473e-05
7.225,-0.11494332516451301,77.50172846110615,0,60,1.0,5,4.0669673085978825e-05
7.23,-0.061810214049552864,77.5034152292072,0,60,1.0,6,8.035833428721162e-05
7.235,-0.026546104631500547,77.5066308676186,0,60,1.0,6,0.00015602041455522073
7.24,-0.00719600351942686,77.51261714788687,0,60,1.0,6,0.0002968740679263834
7.245,0.0022072757983807078,77.5234879390857,0,60,1.0,6,0.000552657390251705
7.25,0.006917199873730717,77.5427303078502,0,60,1.0,6,0.00100541900824015
7.255,0.01004859748264829,77.57591328443115,0,60,1.0,6,0.001786194927791819
7.26,0.013037082251128167,77.63163821024733,0,60,1.0,6,0.0030973696528783824
7.265,0.01645163937690478,77.7227359889992,0,60,1.0,6,0.005240846799981281
7.27,0.020526639934696615,77.86766338596527,0,60,1.0,6,0.008650903199182882
7.275,0.02539629541761738,78.09196918540792,0,60,1.0,6,0.013928686715480447
7.28,0.031171612185577933,78.42959438652437,0,60,1.0,6,0.021872809094691092
7.285,0.03795853426638131,78.9236517302522,0,60,1.0,6,0.03349768777064007
7.29,0.0458588961882057,79.62622444184039,0,60,1.0,6,0.05002881039624453
7.295,0.054966995891435555,80.5966700411891,0,60,1.0,6,0.07286282449856706
7.3,0.06536491004445595,81.89795705296187,0,60,1.0,6,0.10348134242263227
7.305,0.07711726085088699,83.590740736457,0,60,1.0,6,0.14331154674016455
7.31,0.09026570629555215,85.72521884287897,0,60,1.0,6,0.19353456100891703
7.315,0.10482339848670268,88.3312835786459,0,60,1.0,6,0.25485373126225636
7.32,0.12076968927580028,91.40803681418913,0,60,1.0,6,0.32724792503974426
7.325,0.13804539501007884,94.91424919828907,0,60,1.0,6,0.4097470399597428
7.33,0.15654895051787066,98.7616754538298,0,60,1.0,6,0.5002747165607011
7.335,0.17613378141900526,102.81314459839467,0,60,1.0,6,0.5956034023151687
7.34,0.19660720058055794,106.88692793605124,0,60,1.0,6,0.6914571279070879
7.345,0.21773108748496234,110.76804090701927,0,60,1.0,6,0.7827774331063357
7.35,0.23922453870058807,114.22596317855158,0,60,1.0,6,0.8641403100835666
7.355,0.2607685857914563,117.0369802382121,0,60,1.0,6,0.9302818879579317
7.36,0.2820129681603682,119.00824368351186,0,60,1.0,6,0.9766645572591027
7.365,0.30258482867153996,120.0,0,60,1.0,6,1.0
7.37,0.3220990771751686,119.94245116636986,0,60,1.0,6,0.998645909796938
7.375,0.3401700499968971,118.84443995887491,0,60,1.0,6,0.9728103519735274
7.38,0.3564239911198326,116.79247804582917,0,60,1.0,6,0.9245288951959805
7.385,0.3705118017738417,113.94028233815197,0,60,1.0,6,0.857418407956517
7.39,0.3821214567925213,110.4905961503334,0,60,1.0,6,0.7762493211843153
7.395,0.39098947374066967,106.67229771772733,0,60,1.0,6,0.686407005122996
7.4,0.3969108472035567,102.71639188641603,0,60,1.0,6,0.5933268679156714
7.405,0.3997469255491936,98.83435529010902,0,60,1.0,6,0.5019848303555062
7.41,0.3994308076379137,95.20154861737079,0,60,1.0,6,0.4165070262910774
7.415,0.3959699661768434,91.94724589020063,0,60,1.0,6,0.3399351974164855
7.42,0.38944595408114946,89.1515501373611,0,60,1.0,6,0.2741541208790847
7.425,0.38001120995358023,86.84834318674413,0,60,1.0,6,0.21996101615868544
7.43,0.3678831374098315,85.03265064487029,0,60,1.0,6,0.17723883870283028
7.435,0.35333577933796634,83.67047424017679,0,60,1.0,6,0.1451876291806303
7.44,0.33668953221163944,82.70922389874646,0,60,1.0,6,0.12256997408815196
7.445,0.3182994390982644,82.08726133343396,0,60,1.0,6,0.10793556078668136
7.45,0.29854265738230645,81.74159879534122,0,60,1.0,6,0.09980232459626397
7.455,0.2778057157821067,81.61334027722147,0,60,1.0,6,0.09678447711109336
7.46,0.2564721553719815,81.6509036668351,0,60,1.0,6,0.09766832157259073
7.465,0.23491109433464996,81.81136644357802,0,60,1.0,6,0.10144391631948291
7.47,0.21346717185309805,82.06042651697676,0,60,1.0,6,0.10730415334062968
7.475,0.19245222055656455,82.37148928088116,0,60,1.0,6,0.11462327719720386
7.48,0.17213889801761392,82.72432417484066,0,60,1.0,6,0.12292527470213319
7.485,0.15275638501270183,83.10362302191093,0,60,1.0,6,0.13184995345672787
7.49,0.13448814019607322,83.49767392349987,0,60,1.0,6,0.14112173937646763
7.495,0.11747159495449566,83.89726171789964,0,60,1.0,6,0.15052380512705033
7.5,0.10179958433370105,84.29482974674242,0,60,1.0,6,0.15987834698217465
7.505,0.08752324394101413,84.68388923933297,0,60,1.0,6,0.16903268798430518
7.51,0.07465606047174059,85.05863764443257,0,60,1.0,6,0.17785029751606035
7.515,0.0631787448609295,85.41373904216793,0,60,1.0,6,0.18620562452159842
7.52,0.05304460019959574,85.74422176195922,0,60,1.0,6,0.19398168851668762
7.525,0.044185078305849994,86.0454552613927,0,60,1.0,6,0.20106953556218127
7.53,0.03651525513023255,86.31317664893982,0,60,1.0,6,0.20736886232799567
7.535,0.0299390014708757,86.54354497329876,0,60,1.0,6,0.2127892934893827
7.54,0.024353677220580638,86.73320770957436,0,60,1.0,6,0.21725194610763196
7.545,0.01965423034339045,86.87936861096367,0,60,1.0,6,0.22069102614032157
7.55,0.015736632374757337,86.97984948291244,0,60,1.0,6,0.223055281950881
7.555,0.012500627640593535,87.03314081261668,0,60,1.0,6,0.2243091955909807
7.56,0.009851811652115898,87.03843787511315,0,60,1.0,6,0.22443383235560344
7.565,0.007703084175428559,86.99566019345913,0,60,1.0,6,0.2234272986696266
7.57,0.005975544002062424,86.90545322943116,0,60,1.0,6,0.22130478186896846
7.575,0.004598905818663047,86.76917202771214,0,60,1.0,6,0.2180981653579328
7.58,0.0035115256454839104,86.58884728386485,0,60,1.0,6,0.21385523020858474
7.585,0.002660121266303676,86.36713497361453,0,60,1.0,6,0.2086384699674006
7.59,0.0019992692560877024,86.10725126733229,0,60,1.0,6,0.20252355923134793
7.595,0.0014907520044639367,85.81289494876535,0,60,1.0,6,0.19559752820624346
7.6,0.0011028178277539807,85.48815994788507,0,60,1.0,6,0.1879567046561192
7.605,0.0008094059938923333,85.13744087266727,0,60,1.0,6,0.17970449112158282
7.61,0.0005893771793717645,84.76533457621503,0,60,1.0,6,0.17094904885211823
7.615,0.0004257792353490551,84.37654082180066,0,60,1.0,6,0.1618009605129567
7.62,0.0003051686392901525,83.97576501288177,0,60,1.0,6,0.15237094147957095
7.625,0.00021699992642659966,83.5676257473155,0,60,1.0,6,0.14276766464271773
7.63,0.00015308884054097838,83.1565696492459,0,60,1.0,6,0.1330957564528446
7.635,0.00010714989329311098,82.74679554691296,0,60,1.0,6,0.12345401286854031
7.64,7.440535854020571e-05,82.34218962124325,0,60,1.0,6,0.11393387344101764
7.645,5.1260276743925106e-05,81.94627267143458,0,60,1.0,6,0.10461818050434317
7.65,3.503659887882241e-05,81.5621601530088,0,60,1.0,6,0.0955802388943248
7.655,2.375894748103639e-05,81.19253516317026,0,60,1.0,6,0.08688318030988854
7.66,1.5984413869232557e-05,80.83963409787519,0,60,1.0,6,0.07857962583235743
7.665,1.0669166579899869e-05,80.5052443018934,0,60,1.0,6,0.07071163063278585
7.67,7.06526633560511e-06,80.19071269077197,0,60,1.0,6,0.06331088684169352
7.675,4.641847214699205e-06,79.89696405136633,0,60,1.0,6,0.056399154149795884
7.68,3.025641074479182e-06,79.6245275306656,0,60,1.0,6,0.04998888307448477
7.685,1.9566278676921314e-06,79.37356970210506,0,60,1.0,6,0.044083992990707255
7.69,1.2553456560008793e-06,79.14393255178399,0,60,1.0,6,0.03868076592432919
7.695,7.990660428214668e-07,78.93517474813203,0,60,1.0,6,0.03376881760310653
7.7,5.046221251618276e-07,78.74661463915068,0,60,1.0,6,0.029332109156486548
7.705,3.1616527078858815e-07,78.57737355111618,0,60,1.0,6,0.02534996590861604
7.71,1.9652884407760343e-07,78.42641813017309,0,60,1.0,6,0.021798073651131532
7.715,1.2120002189836396e-07,78.29260066180315,0,60,1.0,6,0.01864942733654469
7.72,7.415549848886236e-08,78.17469651121884,0,60,1.0,6,0.0158752120286786
7.725,4.501406988770349e-08,78.07143803963184,0,60,1.0,6,0.013445600932513959
7.73,0.0,77.98154455767332,0,60,1.0,6,0.011330460180548632
7.735,0.0,77.9037480701592,0,60,1.0,6,0.009499954591981082
7.74,0.0,77.83681473981095,0,60,1.0,6,0.00792505270143405
7.745,0.0,77.7795621471775,0,60,1.0,6,0.006577932874764723
7.75,0.0,77.730872547324,0,60,1.0,6,0.005432295231152881
7.755,0.0,77.68970241993146,0,60,1.0,6,0.0044635863513285716
7.76,0.0,77.65508867876439,0,60,1.0,6,0.0036491453826914388
7.765,0.0,77.62615195063168,0,60,1.0,6,0.002968281191333651
7.77,0.0,77.60209735548692,0,60,1.0,6,0.0024022907173392627
7.775,0.0,77.58221322128246,0,60,1.0,6,0.001934428736057846
7.78,0.0,77.56586815304183,0,60,1.0,6,0.001549838895101964
7.785,0.0,77.5525068488899,0,60,1.0,6,0.0012354552679977695
7.79,0.0,77.54164501992928,0,60,1.0,6,0.0009798828218653371
7.795,0.0,77.53286372908609,0,60,1.0,6,0.0007732642137903119
7.8,0.0,77.52580341921859,0,60,1.0,6,0.0006071392757315366
7.805,0.0,77.5201578553129,0,60,1.0,6,0.0004743024779506467
7.81,0.0,77.51566816144691,0,60,1.0,6,0.0003686626222802528
7.815,0.0,77.51211709188321,0,60,1.0,6,0.0002851080443108725
7.82,0.0,77.50932363821491,0,60,1.0,6,0.0002193797227037334
7.825,0.0,77.50713804159365,0,60,1.0,6,0.00016795391985056086
7.83,0.0,77.50543725103012,0,60,1.0,6,0.00012793531835567966
7.835,0.0,77.5041208456039,0,60,1.0,6,9.69610730327772e-05
7.84,0.0,77.5031074199587,0,60,1.0,6,7.311576373400813e-05
7.845,0.0,77.50233141833475,0,60,1.0,6,5.485690199407145e-05
7.85,0.0,77.50174039213948,0,60,1.0,6,4.095040328192066e-05
7.855,0.0,77.501292649158,0,60,1.0,6,3.0415274305957664e-05
7.86,0.0,77.50095525841263,0,60,1.0,6,2.2476668532496712e-05
7.865,0.0,77.50070237286243,0,60,1.0,6,1.6526420292580843e-05
7.87,0.0,77.50051383209139,0,60,1.0,6,1.2090166856135992e-05
7.875,0.0,77.50037400841595,0,60,1.0,6,8.800198022259686e-06
7.88,0.0,77.50027086205799,0,60,1.0,6,6.37322489383758e-06
7.885,0.0,77.50019517384675,0,60,1.0,6,4.5923258058417775e-06
7.89,0.0,77.50013992706306,0,60,1.0,6,3.292401483764372e-06
7.895,0.0,77.50009981331155,0,60,1.0,6,2.348548507063028e-06
7.9,0.0,77.5000708405394,0,60,1.0,6,1.6668362210272307e-06
7.905,0.0,77.50005002440169,0,60,1.0,6,1.177044745592117e-06
7.91,0.0,77.50003514702703,0,60,1.0,6,8.269888714012803e-07
7.915,0.0,77.50002456981785,0,60,1.0,6,5.781133612505501e-07
7.92,0.0,77.50001708920767,0,60,1.0,6,4.0209900409054705e-07
7.925,0.0,77.50001182629116,0,60,1.0,6,2.782656742831879e-07
7.93,0.001684486749771458,77.50000814295163,0,60,1.0,6,1.9159886184805894e-07
7.935,0.003097557930867117,77.50000557855593,0,60,1.0,6,1.312601394896346e-07
7.94,0.005475106668887023,77.5000038024926,0,60,1.0,6,8.947041411535312e-08
7.945,0.00930222931468658,77.50000257882347,0,60,1.0,6,6.067819928081436e-08
7.95,0.01519157517868857,77.5000017401292,0,60,1.0,6,4.0944216634135744e-08
7.955,0.023847336626128316,77.50000116828292,0,60,1.0,6,2.748900990755989e-08
7.96,0.0359830743700859,77.50000078040709,0,60,1.0,6,1.836251980795864e-08
7.965,0.05218887796857759,77.50000051868184,0,60,1.0,6,1.220427868568496e-08
7.97,0.0727577001223134,77.50000034299478,0,60,1.0,6,8.070465435808086e-09
7.975,0.0974992498694751,77.50000022567355,0,60,1.0,6,5.3099657794946855e-09
7.98,0.12558706050443358,77.50000014773399,0,60,1.0,6,3.4760937657719136e-09
7.985,0.15549263588878245,77.50000009622477,0,60,1.0,6,2.2641121605000295e-09
7.99,0.1850529723539114,77.5000000623591,0,60,1.0,6,1.4672730899559718e-09
7.995,0.21169159439317053,77.50000004020866,0,60,1.0,6,9.460861479858388e-10
8.0,0.23277292922115492,77.50000002579563,0,60,1.0,6,6.069559704508933e-10
8.005,0.24602692519491282,77.50000001646566,0,60,1.0,6,3.874273555565571e-10
8.01,0.24995056064839283,77.50000001045728,0,60,1.0,6,2.460537603731021e-10
8.015,0.24408826520424054,77.50000000660792,0,60,1.0,6,1.5548045987944693e-10
8.02,0.22911894216865275,77.50000000415449,0,60,1.0,6,9.775262429577518e-11
8.025,0.20672661788705934,77.50000000259882,0,60,1.0,6,6.114880627993604e-11
8.03,0.17928878030241233,77.5000000016175,0,60,1.0,6,3.80586751656237e-11
8.035,0.14946211903866036,77.50000000100165,0,60,1.0,6,2.356828457884737e-11
8.04,0.1197651512573837,77.50000000061716,0,60,1.0,6,1.4521487280623714e-11
8.045,0.09224675744988023,77.50000000037834,0,60,1.0,6,8.902013766654657e-12
8.05,0.06829565320281596,77.50000000023077,0,60,1.0,6,5.4298839934156554e-12
8.055,0.04860224607515734,77.50000000014005,0,60,1.0,6,3.2952464286662528e-12
8.06,0.03324612389699793,77.50000000008457,0,60,1.0,6,1.989854033180403e-12
8.065,0.021859876340472782,77.5000000000508,0,60,1.0,6,1.1953836613375804e-12
8.07,0.01381595518554205,77.50000000003037,0,60,1.0,6,7.14555212385569e-13
8.075,0.008394095110402422,77.50000000001806,0,60,1.0,6,4.249881492475705e-13
8.08,0.0049052535271608,77.50000000001069,0,60,1.0,6,2.514485351960449e-13
8.085,0.0027671663551903634,77.5000000000063,0,60,1.0,6,1.4812726209022324e-13
8.09,0.0015425553464444616,77.50000000000368,0,60,1.0,6,8.660262049970162e-14
8.095,0.0009638206637011801,77.50000000000215,0,60,1.0,6,5.049033087048241e-14
8.1,0.0009804935156568228,77.50000000000125,0,60,1.0,6,2.942482858677121e-14
8.105,0.0018793744894085216,77.50000000000072,0,60,1.0,6,1.7053025658242404e-14
8.11,0.004535525206900863,77.50000000000041,0,60,1.0,6,9.696818511549603e-15
8.115,0.010832767979632273,77.50000000000024,0,60,1.0,6,5.684341886080802e-15
8.12,0.024208003392322392,77.50000000000013,0,60,1.0,6,3.0093574691016007e-15
8.125,0.0500971897335304,77.50000000000007,0,60,1.0,6,1.6718652606120004e-15
8.13,0.09582894921774403,77.50000000000004,0,60,1.0,6,1.0031191563672002e-15
8.135,0.16937896721820658,77.50000000000003,0,60,1.0,6,6.687461042448002e-16
8.14,0.27661303008991756,77.50000000000001,0,60,1.0,6,3.343730521224001e-16
8.145,0.4173782800009149,77.5,0,60,1.0,6,0.0
8.15,0.5818720934538056,77.5,0,60,1.0,6,0.0
8.155,0.7494718801585675,77.5,0,60,1.0,6,0.0
8.16,0.891813020752378,77.5,0,60,1.0,6,0.0
8.165,0.9800361632936612,77.5,0,60,1.0,6,0.0
8.17,0.993574479225126,77.5000024966485,1,60,1.0,6,5.874467072263702e-08
8.175,0.9263438449375362,77.50000388454893,0,60,1.0,6,9.140115132729132e-08
8.18,0.7873015962290536,77.50000618232913,0,60,1.0,6,1.454665677743726e-07
8.185,0.5959516244629897,77.5000101847726,0,60,1.0,6,2.396417083700191e-07
8.19,0.376910120078773,77.50001756083037,0,60,1.0,6,4.1319600875474007e-07
8.195,0.15739335672107918,77.50003188149957,0,60,1.0,6,7.501529309780274e-07
8.2,-0.033361226269301235,77.50006080365405,0,60,1.0,6,1.4306742129707239e-06
8.205,-0.1680180840843834,77.50012058486693,0,60,1.0,6,2.8372909866902773e-06
8.21,-0.23069703190837854,77.50024513995355,0,60,1.0,6,5.7679989070306076e-06
8.215,-0.22587267821131068,77.50050363241509,0,60,1.0,6,1.1850174472690068e-05
8.22,-0.17718181630665902,77.50103350758017,0,60,1.0,6,2.4317825415878626e-05
8.225,-0.11494332516451301,77.50210036935763,0,60,1.0,6,4.942045547375742e-05
8.23,-0.061810214049552864,77.50420258594323,0,60,1.0,6,9.888437513489087e-05
8.235,-0.026546104631500547,77.50824711533218,0,60,1.0,6,0.00019404977252192754
8.24,-0.00719600351942686,77.51583324529174,0,60,1.0,6,0.0003725469480410565
8.245,0.0022072757983807078,77.52969102922935,0,60,1.0,6,0.0006986124524554029
8.25,0.006917199873730717,77.55432766935884,0,60,1.0,6,0.0012782981025609656
8.255,0.01004859748264829,77.5969322368778,0,60,1.0,6,0.0022807585147718865
8.26,0.013037082251128167,77.66856909864642,0,60,1.0,6,0.003966331732856829
8.265,0.01645163937690478,77.78564441251984,0,60,1.0,6,0.006721045000466909
8.27,0.020526639934696615,77.97155076923681,0,60,1.0,6,0.011095312217336789
8.275,0.02539629541761738,78.2582808201053,0,60,1.0,6,0.017841901649536432
8.28,0.031171612185577933,78.68766052792253,0,60,1.0,6,0.027944953598177214
8.285,0.03795853426638131,79.31171075246023,0,60,1.0,6,0.04262848829318186
8.29,0.0458588961882057,80.19154347445966,0,60,1.0,6,0.06333043469316856
8.295,0.054966995891435555,81.39419054317591,0,60,1.0,6,0.09162801278060964
8.3,0.06536491004445595,82.9869047835598,0,60,1.0,6,0.1291036419661128
8.305,0.07711726085088699,85.02880519220997,0,60,1.0,6,0.17714835746376406
8.31,0.09026570629555215,87.56025991780172,0,60,1.0,6,0.23671199806592272
8.315,0.10482339848670268,90.59105402879193,0,60,1.0,6,0.3080248006774572
8.32,0.12076968927580028,94.08904924277502,0,60,1.0,6,0.3903305704182357
8.325,0.13804539501007884,97.97153364558193,0,60,1.0,6,0.48168314460192774
8.33,0.15654895051787066,102.10159121830677,0,60,1.0,6,0.5788609698425121
8.335,0.17613378141900526,106.29144711748273,0,60,1.0,6,0.6774458145290054
8.34,0.19660720058055794,110.31382182199403,0,60,1.0,6,0.7720899252233888
8.345,0.21773108748496234,113.92095766616347,0,60,1.0,6,0.8569637097920817
8.35,0.23922453870058807,116.86941633089845,0,60,1.0,6,0.9263392077858458
8.355,0.2607685857914563,118.94734075580467,0,60,1.0,6,0.9752315471954041
8.36,0.2820129681603682,120.0,0,60,1.0,6,1.0
8.365,0.30258482867153996,119.94936806517826,0,60,1.0,6,0.9988086603571356
8.37,0.3220990771751686,118.80431883209974,0,60,1.0,6,0.9718663254611704
8.375,0.3401700499968971,116.65961054384493,0,60,1.0,6,0.9214026010316455
8.38,0.3564239911198326,113.6838413525704,0,60,1.0,6,0.8513845024134211
8.385,0.3705118017738417,110.09852371838782,0,60,1.0,6,0.7670240874914782
8.39,0.3821214567925213,106.15190294941635,0,60,1.0,6,0.6741624223392083
8.395,0.39098947374066967,102.09182171295444,0,60,1.0,6,0.5786310991283398
8.4,0.3969108472035567,98.14171008969322,0,60,1.0,6,0.48568729622807577
8.405,0.3997469255491936,94.48278858522536,0,60,1.0,6,0.39959502553471443
8.41,0.3994308076379137,91.24411073570738,0,60,1.0,6,0.32339084084017367
8.415,0.3959699661768434,88.50051791606685,0,60,1.0,6,0.2588357156721613
8.42,0.38944595408114946,86.27727400892925,0,60,1.0,6,0.20652409432774715
8.425,0.38001120995358023,84.55931872476093,0,60,1.0,6,0.1661016170531983
8.43,0.3678831374098315,83.3028005744429,0,60,1.0,6,0.13653648410453878
8.435,0.35333577933796634,82.44675842842192,0,60,1.0,7,0.1163943159628686
8.44,0.33668953221163944,81.9233555217599,0,60,1.0,7,0.10407895345317417
8.445,0.3182994390982644,81.6657405782961,0,60,1.0,7,0.09801742537167282
8.45,0.29854265738230645,81.61324823680155,0,60,1.0,7,0.0967823114541542
8.455,0.2778057157821067,81.71414190823803,0,60,1.0,7,0.09915628019383609
8.46,0.2564721553719815,81.92639917335062,0,60,1.0,7,0.10415056878472041
8.465,0.23491109433464996,82.21715152529522,0,60,1.0,7,0.1109918005951817
8.47,0.21346717185309805,82.56136080468661,0,60,1.0,7,0.11909084246321447
8.475,0.19245222055656455,82.94020128362216,0,60,1.0,7,0.12800473608522728
8.48,0.17213889801761392,83.33947177339249,0,60,1.0,7,0.13739933584452915
8.485,0.15275638501270183,83.74822470521731,0,60,1.0,7,0.14701705188746614
8.49,0.13448814019607322,84.1576901961562,0,60,1.0,7,0.1566515340272046
8.495,0.11747159495449566,84.56049942906901,0,60,1.0,7,0.16612939833103557
8.5,0.10179958433370105,84.95017025612171,0,60,1.0,7,0.17529812367345196
8.505,0.08752324394101413,85.32080099438407,0,60,1.0,7,0.18401884692668405
8.51,0.07465606047174059,85.66691715781909,0,60,1.0,7,0.19216275665456672
8.515,0.0631787448609295,85.98342289070791,0,60,1.0,7,0.19960995036959797
8.52,0.05304460019959574,86.26561884786955,0,60,1.0,7,0.20624985524398934
8.525,0.044185078305849994,86.50925808244908,0,60,1.0,7,0.21198254311644893
8.53,0.03651525513023255,86.71061970560895,0,60,1.0,7,0.21672046366138703
8.535,0.0299390014708757,86.86658630913784,0,60,1.0,7,0.22039026609736104
8.54,0.024353677220580638,86.97471559675341,0,60,1.0,7,0.22293448462949206
8.545,0.01965423034339045,87.03329977142683,0,60,1.0,7,0.22431293579827827
8.55,0.015736632374757337,87.04140840180983,0,60,1.0,7,0.2245037271014078
8.555,0.012500627640593535,86.99891208474476,0,60,1.0,7,0.2235038137587002
8.56,0.009851811652115898,86.90648547061232,0,60,1.0,7,0.22132906989676057
8.565,0.007703084175428559,86.76558926724239,0,60,1.0,7,0.21801386511158566
8.57,0.005975544002062424,86.5784317591195,0,60,1.0,7,0.2136101590381058
8.575,0.004598905818663047,86.34791119812435,0,60,1.0,7,0.20818614583822
8.58,0.0035115256454839104,86.07754113966531,0,60,1.0,7,0.20182449740388975
8.585,0.002660121266303676,85.77136140052126,0,60,1.0,7,0.19462026824755901
8.59,0.0019992692560877024,85.43383778522907,0,60,1.0,7,0.18667853612303703
8.595,0.0014907520044639367,85.06975405182008,0,60,1.0,7,0.1781118600428255
8.6,0.0011028178277539807,84.68409975610096,0,60,1.0,7,0.16903764132002266
8.605,0.0008094059938923333,84.2819576246531,0,60,1.0,7,0.15957547352124948
8.61,0.0005893771793717645,83.86839396614698,0,60,1.0,7,0.14984456390934076
8.615,0.0004257792353490551,83.44835535165316,0,60,1.0,7,0.13996130239183913
8.62,0.0003051686392901525,83.02657439701731,0,60,1.0,7,0.13003704463570148
8.625,0.00021699992642659966,82.6074869887465,0,60,1.0,7,0.12017616444109415
8.63,0.00015308884054097838,82.19516273734413,0,60,1.0,7,0.11047441734927374
8.635,0.00010714989329311098,81.7932498483948,0,60,1.0,7,0.1010176434916422
8.64,7.440535854020571e-05,81.40493500158567,0,60,1.0,7,0.09188082356672166
8.645,5.1260276743925106e-05,81.03291824914021,0,60,1.0,7,0.08312748821506374
8.65,3.503659887882241e-05,80.6794024125245,0,60,1.0,7,0.07480946852998814
8.655,2.375894748103639e-05,80.34609599014749,0,60,1.0,7,0.06696696447405857
8.66,1.5984413869232557e-05,80.03422820440662,0,60,1.0,7,0.05962889892721451
8.665,1.0669166579899869e-05,79.74457452363798,0,60,1.0,7,0.05281351820324657
8.67,7.06526633560511e-06,79.4774907976045,0,60,1.0,7,0.04652919523775301
8.675,4.641847214699205e-06,79.23295404316598,0,60,1.0,7,0.04077538925096412
8.68,3.025641074479182e-06,79.01060790415472,0,60,1.0,7,0.035543715391875876
8.685,1.9566278676921314e-06,78.80981087682954,0,60,1.0,7,0.030819079454812815
8.69,1.2553456560008793e-06,78.62968552729907,0,60,1.0,7,0.0265808359364488
8.695,7.990660428214668e-07,78.4691671158064,0,60,1.0,7,0.022803932136621168
8.7,5.046221251618276e-07,78.32705026967079,0,60,1.0,7,0.01946000634519511
8.705,3.1616527078858815e-07,78.2020325969465,0,60,1.0,7,0.01651841404579988
8.71,1.9652884407760343e-07,78.0927543922857,0,60,1.0,7,0.013947162171428197
8.715,1.2120002189836396e-07,77.99783384238104,0,60,1.0,7,0.011713737467789209
8.72,7.415549848886236e-08,77.91589737998032,0,60,1.0,7,0.009785820705419343
8.725,4.501406988770349e-08,77.84560505434425,0,60,1.0,7,0.008131883631629347
8.73,0.0,77.78567097606587,0,60,1.0,7,0.006721670025079367
8.735,0.0,77.73487905164139,0,60,1.0,7,0.0055265659209737805
8.74,0.0,77.69209434649721,0,60,1.0,7,0.004519866976405036
8.745,0.0,77.65627050466959,0,60,1.0,7,0.0036769530510492344
8.75,0.0,77.62645371089663,0,60,1.0,7,0.0029753814328618024
8.755,0.0,77.60178370962433,0,60,1.0,7,0.0023949108146900794
8.76,0.0,77.58149239927823,0,60,1.0,7,0.0019174682183113552
8.765,0.0,77.5649005035173,0,60,1.0,7,0.001527070670995138
8.77,0.0,77.55141278863067,0,60,1.0,7,0.001209712673662847
8.775,0.0,77.5405122522104,0,60,1.0,7,0.0009532294637742379
8.78,0.0,77.53175365686594,0,60,1.0,7,0.0007471448674339974
8.785,0.0,77.5247567276939,0,60,1.0,7,0.0005825112398564242
8.79,0.0,77.51919927656837,0,60,1.0,7,0.0004517476839616981
8.795,0.0,77.51481046255032,0,60,1.0,7,0.0003484814717721212
8.8,0.0,77.51136434769356,0,60,1.0,7,0.0002673964163190088
8.805,0.0,77.50867386254117,0,60,1.0,7,0.00020409088332170916
8.81,0.0,77.50658525642717,0,60,1.0,7,0.0001549472100511112
8.815,0.0,77.50497307465665,0,60,1.0,7,0.00011701352133286491
8.82,0.0,77.50373567769842,0,60,1.0,7,8.78982987862454e-05
8.825,0.0,77.50279129638474,0,60,1.0,7,6.567756199394674e-05
