Time,ECG,Pressure,R_Peaks,mean_hr,hrv_scale,Phase_Bin,Normalized_Pressure
0.0,0.001684486749771458,77.5,0,60,3.0,0,0.0
0.005,0.003097557930867117,77.5,0,60,3.0,0,0.0
0.01,0.005475106668887023,77.5,0,60,3.0,0,0.0
0.015,0.00930222931468658,77.5,0,60,3.0,0,0.0
0.02,0.01519157517868857,77.5,0,60,3.0,0,0.0
0.025,0.023847336626128316,77.5,0,60,3.0,0,0.0
0.03,0.0359830743700859,77.5,0,60,3.0,0,0.0
0.035,0.05218887796857759,77.5,0,60,3.0,0,0.0
0.04,0.0727577001223134,77.5,0,60,3.0,0,0.0
0.045,0.0974992498694751,77.5,0,60,3.0,0,0.0
0.05,0.12558706050443358,77.5,0,60,3.0,0,0.0
0.055,0.15549263588878245,77.5,0,60,3.0,0,0.0
0.06,0.1850529723539114,77.5,0,60,3.0,0,0.0
0.065,0.21169159439317053,77.5,0,60,3.0,0,0.0
0.07,0.23277292922115492,77.5,0,60,3.0,0,0.0
0.075,0.24602692519491282,77.5,0,60,3.0,0,0.0
0.08,0.24995056064839283,77.5,0,60,3.0,0,0.0
0.085,0.24408826520424054,77.5,0,60,3.0,0,0.0
0.09,0.22911894216865275,77.5,0,60,3.0,0,0.0
0.095,0.20672661788705934,77.5,0,60,3.0,0,0.0
0.1,0.17928878030241233,77.5,0,60,3.0,0,0.0
0.105,0.14946211903866036,77.5,0,60,3.0,0,0.0
0.11,0.1197651512573837,77.5,0,60,3.0,0,0.0
0.115,0.09224675744988023,77.5,0,60,3.0,0,0.0
0.12,0.06829565320281596,77.5,0,60,3.0,0,0.0
0.125,0.04860224607515734,77.5,0,60,3.0,0,0.0
0.13,0.03324612389699793,77.5,0,60,3.0,0,0.0
0.135,0.021859876340472782,77.5,0,60,3.0,0,0.0
0.14,0.01381595518554205,77.5,0,60,3.0,0,0.0
0.145,0.008394095110402422,77.5,0,60,3.0,0,0.0
0.15,0.0049052535271608,77.5,0,60,3.0,0,0.0
0.155,0.0027671663551903634,77.5,0,60,3.0,0,0.0
0.16,0.0015425553464444616,77.5,0,60,3.0,0,0.0
0.165,0.0009638206637011801,77.5,0,60,3.0,0,0.0
0.17,0.0009804935156568228,77.5,0,60,3.0,0,0.0
0.175,0.0018793744894085216,77.5,0,60,3.0,0,0.0
0.18,0.004535525206900863,77.5,0,60,3.0,0,0.0
0.185,0.010832767979632273,77.5,0,60,3.0,0,0.0
0.19,0.024208003392322392,77.5,0,60,3.0,0,0.0
0.195,0.0500971897335304,77.5,0,60,3.0,0,0.0
0.2,0.09582894921774403,77.5,0,60,3.0,0,0.0
0.205,0.16937896721820658,77.5,0,60,3.0,0,0.0
0.21,0.27661303008991756,77.5,0,60,3.0,0,0.0
0.215,0.4173782800009149,77.5,0,60,3.0,0,0.0
0.22,0.5818720934538056,77.5,0,60,3.0,0,0.0
0.225,0.7494718801585675,77.5,0,60,3.0,0,0.0
0.23,0.891813020752378,77.5,0,60,3.0,0,0.0
0.235,0.9800361632936612,77.5,0,60,3.0,0,0.0
0.24,0.993574479225126,77.5,0,60,3.0,0,0.0
0.245,0.9263438449375362,77.5,0,60,3.0,0,0.0
0.25,0.7873015962290536,77.5,0,60,3.0,0,0.0
0.255,0.5959516244629897,77.5,0,60,3.0,0,0.0
0.26,0.376910120078773,77.5,0,60,3.0,0,0.0
0.265,0.15739335672107918,77.5,0,60,3.0,0,0.0
0.27,-0.033361226269301235,77.5,0,60,3.0,0,0.0
0.275,-0.1680180840843834,77.5,0,60,3.0,0,0.0
0.28,-0.23069703190837854,77.5,0,60,3.0,0,0.0
0.285,-0.22587267821131068,77.5,0,60,3.0,0,0.0
0.29,-0.17718181630665902,77.5,0,60,3.0,0,0.0
0.295,-0.11494332516451301,77.5,0,60,3.0,0,0.0
0.3,-0.061810214049552864,77.5,0,60,3.0,0,0.0
0.305,-0.026546104631500547,77.5,0,60,3.0,0,0.0
0.31,-0.00719600351942686,77.5,0,60,3.0,0,0.0
0.315,0.0022072757983807078,77.5,0,60,3.0,0,0.0
0.32,0.006917199873730717,77.5,0,60,3.0,0,0.0
0.325,0.01004859748264829,77.5,0,60,3.0,0,0.0
0.33,0.013037082251128167,77.5,0,60,3.0,0,0.0
0.335,0.01645163937690478,77.5,0,60,3.0,0,0.0
0.34,0.020526639934696615,77.5,0,60,3.0,0,0.0
0.345,0.02539629541761738,77.5,0,60,3.0,0,0.0
0.35,0.031171612185577933,77.5,0,60,3.0,0,0.0
0.355,0.03795853426638131,77.5,0,60,3.0,0,0.0
0.36,0.0458588961882057,77.5,0,60,3.0,0,0.0
0.365,0.054966995891435555,77.5,0,60,3.0,0,0.0
0.37,0.06536491004445595,77.5,0,60,3.0,0,0.0
0.375,0.07711726085088699,77.5,0,60,3.0,0,0.0
0.38,0.09026570629555215,77.5,0,60,3.0,0,0.0
0.385,0.10482339848670268,77.5,0,60,3.0,0,0.0
0.39,0.12076968927580028,77.5,0,60,3.0,0,0.0
0.395,0.13804539501007884,77.5,0,60,3.0,0,0.0
0.4,0.15654895051787066,77.5,0,60,3.0,0,0.0
0.405,0.17613378141900526,77.5,0,60,3.0,0,0.0
0.41,0.19660720058055794,77.5,0,60,3.0,0,0.0
0.415,0.21773108748496234,77.5,0,60,3.0,0,0.0
0.42,0.23922453870058807,77.5,0,60,3.0,0,0.0
0.425,0.2607685857914563,77.5,0,60,3.0,0,0.0
0.43,0.2820129681603682,77.5,0,60,3.0,0,0.0
0.435,0.30258482867153996,77.5,0,60,3.0,0,0.0
0.44,0.3220990771751686,77.5,0,60,3.0,0,0.0
0.445,0.3401700499968971,77.5,0,60,3.0,0,0.0
0.45,0.3564239911198326,77.5,0,60,3.0,0,0.0
0.455,0.3705118017738417,77.5,0,60,3.0,0,0.0
0.46,0.3821214567925213,77.5,0,60,3.0,0,0.0
0.465,0.39098947374066967,77.5,0,60,3.0,0,0.0
0.47,0.3969108472035567,77.5,0,60,3.0,0,0.0
0.475,0.3997469255491936,77.5,0,60,3.0,0,0.0
0.48,0.3994308076379137,77.5,0,60,3.0,0,0.0
0.485,0.3959699661768434,77.5,0,60,3.0,0,0.0
0.49,0.38944595408114946,77.5,0,60,3.0,0,0.0
0.495,0.38001120995358023,77.5,0,60,3.0,0,0.0
0.5,0.3678831374098315,77.5,0,60,3.0,0,0.0
0.505,0.35333577933796634,77.5,0,60,3.0,0,0.0
0.51,0.33668953221163944,77.5,0,60,3.0,0,0.0
0.515,0.3182994390982644,77.5,0,60,3.0,0,0.0
0.52,0.29854265738230645,77.5,0,60,3.0,0,0.0
0.525,0.2778057157821067,77.5,0,60,3.0,0,0.0
0.53,0.2564721553719815,77.5,0,60,3.0,0,0.0
0.535,0.23491109433464996,77.5,0,60,3.0,0,0.0
0.54,0.21346717185309805,77.5,0,60,3.0,0,0.0
0.545,0.19245222055656455,77.5,0,60,3.0,0,0.0
0.55,0.17213889801761392,77.5,0,60,3.0,0,0.0
0.555,0.15275638501270183,77.5,0,60,3.0,0,0.0
0.56,0.13448814019607322,77.5,0,60,3.0,0,0.0
0.565,0.11747159495449566,77.5,0,60,3.0,0,0.0
0.57,0.10179958433370105,77.5,0,60,3.0,0,0.0
0.575,0.08752324394101413,77.5,0,60,3.0,0,0.0
0.58,0.07465606047174059,77.5,0,60,3.0,0,0.0
0.585,0.0631787448609295,77.5,0,60,3.0,0,0.0
0.59,0.05304460019959574,77.5,0,60,3.0,0,0.0
0.595,0.044185078305849994,77.5,0,60,3.0,0,0.0
0.6,0.03651525513023255,77.5,0,60,3.0,0,0.0
0.605,0.0299390014708757,77.5,0,60,3.0,0,0.0
0.61,0.024353677220580638,77.5,0,60,3.0,0,0.0
0.615,0.01965423034339045,77.5,0,60,3.0,0,0.0
0.62,0.015736632374757337,77.5,0,60,3.0,0,0.0
0.625,0.012500627640593535,77.5,0,60,3.0,0,0.0
0.63,0.009851811652115898,77.5,0,60,3.0,0,0.0
0.635,0.007703084175428559,77.5,0,60,3.0,0,0.0
0.64,0.005975544002062424,77.5,0,60,3.0,0,0.0
0.645,0.004598905818663047,77.5,0,60,3.0,0,0.0
0.65,0.0035115256454839104,77.5,0,60,3.0,0,0.0
0.655,0.002660121266303676,77.5,0,60,3.0,0,0.0
0.66,0.0019992692560877024,77.5,0,60,3.0,0,0.0
0.665,0.0014907520044639367,77.5,0,60,3.0,0,0.0
0.67,0.0011028178277539807,77.5,0,60,3.0,0,0.0
0.675,0.0008094059938923333,77.5,0,60,3.0,0,0.0
0.68,0.0005893771793717645,77.5,0,60,3.0,0,0.0
0.685,0.0004257792353490551,77.5,0,60,3.0,0,0.0
0.69,0.0003051686392901525,77.5,0,60,3.0,0,0.0
0.695,0.00021699992642659966,77.5,0,60,3.0,0,0.0
0.7,0.00015308884054097838,77.5,0,60,3.0,0,0.0
0.705,0.00010714989329311098,77.5,0,60,3.0,0,0.0
0.71,7.440535854020571e-05,77.5,0,60,3.0,0,0.0
0.715,5.1260276743925106e-05,77.5,0,60,3.0,0,0.0
0.72,3.503659887882241e-05,77.5,0,60,3.0,0,0.0
0.725,2.375894748103639e-05,77.5,0,60,3.0,0,0.0
0.73,1.5984413869232557e-05,77.5,0,60,3.0,0,0.0
0.735,1.0669166579899869e-05,77.5,0,60,3.0,0,0.0
0.74,7.06526633560511e-06,77.5,0,60,3.0,0,0.0
0.745,4.641847214699205e-06,77.5,0,60,3.0,0,0.0
0.75,3.025641074479182e-06,77.5,0,60,3.0,0,0.0
0.755,1.9566278676921314e-06,77.5,0,60,3.0,0,0.0
0.76,1.2553456560008793e-06,77.5,0,60,3.0,0,0.0
0.765,7.990660428214668e-07,77.5,0,60,3.0,0,0.0
0.77,5.046221251618276e-07,77.5,0,60,3.0,0,0.0
0.775,3.1616527078858815e-07,77.5,0,60,3.0,0,0.0
0.78,1.9652884407760343e-07,77.5,0,60,3.0,0,0.0
0.785,1.2120002189836396e-07,77.5,0,60,3.0,0,0.0
0.79,7.415549848886236e-08,77.5,0,60,3.0,0,0.0
0.795,4.501406988770349e-08,77.5,0,60,3.0,0,0.0
0.8,0.0,77.5,0,60,3.0,0,0.0
0.805,0.0,77.5,0,60,3.0,0,0.0
0.81,0.0,77.5,0,60,3.0,0,0.0
0.815,0.0,77.5,0,60,3.0,0,0.0
0.82,0.0,77.5,0,60,3.0,0,0.0
0.825,0.0,77.5,0,60,3.0,0,0.0
0.83,0.0,77.5,0,60,3.0,0,0.0
0.835,0.0,77.5,0,60,3.0,0,0.0
0.84,0.0,77.5,0,60,3.0,0,0.0
0.845,0.0,77.5,0,60,3.0,0,0.0
0.85,0.0,77.5,0,60,3.0,0,0.0
0.855,0.0,77.5,0,60,3.0,0,0.0
0.86,0.0,77.5,0,60,3.0,0,0.0
0.865,0.0,77.5,0,60,3.0,0,0.0
0.87,0.0,77.5,0,60,3.0,0,0.0
0.875,0.0,77.5,0,60,3.0,0,0.0
0.88,0.0,77.5,0,60,3.0,0,0.0
0.885,0.0,77.5,0,60,3.0,0,0.0
0.89,0.0,77.5,0,60,3.0,0,0.0
0.895,0.0,77.5,0,60,3.0,0,0.0
0.9,0.0,77.5,0,60,3.0,0,0.0
0.905,0.0,77.5,0,60,3.0,0,0.0
0.91,0.0,77.5,0,60,3.0,0,0.0
0.915,0.0,77.5,0,60,3.0,0,0.0
0.92,0.0,77.5,0,60,3.0,0,0.0
0.925,0.0,77.5,0,60,3.0,0,0.0
0.93,0.0,77.5,0,60,3.0,0,0.0
0.935,0.0,77.5,0,60,3.0,0,0.0
0.94,0.0,77.5,0,60,3.0,0,0.0
0.945,0.0,77.5,0,60,3.0,0,0.0
0.95,0.0,77.5,0,60,3.0,0,0.0
0.955,0.0,77.5,0,60,3.0,0,0.0
0.96,0.0,77.5,0,60,3.0,0,0.0
0.965,0.0,77.5,0,60,3.0,0,0.0
0.97,0.0,77.5,0,60,3.0,0,0.0
0.975,0.0,77.5,0,60,3.0,0,0.0
0.98,0.0,77.5,0,60,3.0,0,0.0
0.985,0.0,77.5,0,60,3.0,0,0.0
0.99,0.0,77.5,0,60,3.0,0,0.0
0.995,0.0,77.5,0,60,3.0,0,0.0
1.0,0.0,77.5,0,60,3.0,0,0.0
1.005,0.0,77.5,0,60,3.0,0,0.0
1.01,0.0,77.5,0,60,3.0,0,0.0
1.015,0.0,77.5,0,60,3.0,0,0.0
1.02,0.0,77.5,0,60,3.0,0,0.0
1.025,0.001684486749771458,77.5,0,60,3.0,0,0.0
1.03,0.003097557930867117,77.5,0,60,3.0,0,0.0
1.035,0.005475106668887023,77.5,0,60,3.0,0,0.0
1.04,0.00930222931468658,77.5,0,60,3.0,0,0.0
1.045,0.01519157517868857,77.5,0,60,3.0,0,0.0
1.05,0.023847336626128316,77.5,0,60,3.0,0,0.0
1.055,0.0359830743700859,77.5,0,60,3.0,0,0.0
1.06,0.05218887796857759,77.5,0,60,3.0,0,0.0
1.065,0.0727577001223134,77.5,0,60,3.0,0,0.0
1.07,0.0974992498694751,77.5,0,60,3.0,0,0.0
1.075,0.12558706050443358,77.5,0,60,3.0,0,0.0
1.08,0.15549263588878245,77.5,0,60,3.0,0,0.0
1.085,0.1850529723539114,77.5,0,60,3.0,0,0.0
1.09,0.21169159439317053,77.5,0,60,3.0,0,0.0
1.095,0.23277292922115492,77.5,0,60,3.0,0,0.0
1.1,0.24602692519491282,77.5,0,60,3.0,0,0.0
1.105,0.24995056064839283,77.5,0,60,3.0,0,0.0
1.11,0.24408826520424054,77.5,0,60,3.0,0,0.0
1.115,0.22911894216865275,77.5,0,60,3.0,0,0.0
1.12,0.20672661788705934,77.5,0,60,3.0,0,0.0
1.125,0.17928878030241233,77.5,0,60,3.0,0,0.0
1.13,0.14946211903866036,77.5,0,60,3.0,0,0.0
1.135,0.1197651512573837,77.5,0,60,3.0,0,0.0
1.14,0.09224675744988023,77.5,0,60,3.0,0,0.0
1.145,0.06829565320281596,77.5,0,60,3.0,0,0.0
1.15,0.04860224607515734,77.5,0,60,3.0,0,0.0
1.155,0.03324612389699793,77.5,0,60,3.0,0,0.0
1.16,0.021859876340472782,77.5,0,60,3.0,0,0.0
1.165,0.01381595518554205,77.5,0,60,3.0,0,0.0
1.17,0.008394095110402422,77.5,0,60,3.0,0,0.0
1.175,0.0049052535271608,77.5,0,60,3.0,0,0.0
1.18,0.0027671663551903634,77.5,0,60,3.0,0,0.0
1.185,0.0015425553464444616,77.5,0,60,3.0,0,0.0
1.19,0.0009638206637011801,77.5,0,60,3.0,0,0.0
1.195,0.0009804935156568228,77.5,0,60,3.0,0,0.0
1.2,0.0018793744894085216,77.5,0,60,3.0,0,0.0
1.205,0.004535525206900863,77.5,0,60,3.0,1,0.0
1.21,0.010832767979632273,77.5,0,60,3.0,1,0.0
1.215,0.024208003392322392,77.5,0,60,3.0,1,0.0
1.22,0.0500971897335304,77.5,0,60,3.0,1,0.0
1.225,0.09582894921774403,77.5,0,60,3.0,1,0.0
1.23,0.16937896721820658,77.5,0,60,3.0,1,0.0
1.235,0.27661303008991756,77.5,0,60,3.0,1,0.0
1.24,0.4173782800009149,77.5,0,60,3.0,1,0.0
1.245,0.5818720934538056,77.5,0,60,3.0,1,0.0
1.25,0.7494718801585675,77.5,0,60,3.0,1,0.0
1.255,0.891813020752378,77.5,0,60,3.0,1,0.0
1.26,0.9800361632936612,77.5,0,60,3.0,1,0.0
1.265,0.993574479225126,77.50000249379623,1,60,3.0,1,5.8677558372972485e-08
1.27,0.9263438449375362,77.50000374914603,0,60,3.0,1,8.821520074942621e-08
1.275,0.7873015962290536,77.50000574205839,0,60,3.0,1,1.3510725626902592e-07
1.28,0.5959516244629897,77.50000904290425,0,60,3.0,1,2.1277421771682224e-07
1.285,0.376910120078773,77.50001477842311,0,60,3.0,1,3.477276025290955e-07
1.29,0.15739335672107918,77.50002521824138,0,60,3.0,1,5.93370385318207e-07
1.295,-0.033361226269301235,77.50004495906866,0,60,3.0,1,1.0578604390582981e-06
1.3,-0.1680180840843834,77.5000832626602,0,60,3.0,1,1.9591214164152276e-06
1.305,-0.23069703190837854,77.50015855775519,0,60,3.0,1,3.730770710235982e-06
1.31,-0.22587267821131068,77.50030687962926,0,60,3.0,1,7.220697159147997e-06
1.315,-0.17718181630665902,77.50059725115638,0,60,3.0,1,1.4052968385372237e-05
1.32,-0.11494332516451301,77.50115890175013,0,60,3.0,1,2.726827647366543e-05
1.325,-0.061810214049552864,77.502227982956,0,60,3.0,1,5.242312837648409e-05
1.33,-0.026546104631500547,77.50422523134473,0,60,3.0,1,9.941720811137683e-05
1.335,-0.00719600351942686,77.50788085207563,0,60,3.0,1,0.00018543181354422868
1.34,0.0022072757983807078,77.51442842473308,0,60,3.0,1,0.0003394923466607773
1.345,0.006917199873730717,77.52589499534879,0,60,3.0,1,0.0006092940082068895
1.35,0.01004859748264829,77.54551806446773,0,60,3.0,1,0.0010710132815936102
1.355,0.013037082251128167,77.57831931533336,0,60,3.0,1,0.001842807419608468
1.36,0.01645163937690478,77.63185613703956,0,60,3.0,1,0.0031024973421073594
1.365,0.020526639934696615,77.71715124028381,0,60,3.0,1,0.005109440947854396
1.37,0.02539629541761738,77.84976424958334,0,60,3.0,1,0.008229747049019874
1.375,0.031171612185577933,78.05091521223822,0,60,3.0,1,0.012962710876193488
1.38,0.03795853426638131,78.34850034697884,0,60,3.0,1,0.0199647140465609
1.385,0.0458588961882057,78.77776263344921,0,60,3.0,1,0.030065003139981505
1.39,0.054966995891435555,79.38130867176919,0,60,3.0,1,0.04426608639456918
1.395,0.06536491004445595,80.20812022232984,0,60,3.0,1,0.06372047581952563
1.4,0.07711726085088699,81.31122000278289,0,60,3.0,1,0.08967576477136209
1.405,0.09026570629555215,82.74374175486754,0,60,3.0,1,0.12338215893805983
1.41,0.10482339848670268,84.5533405253622,0,60,3.0,1,0.16596095353793416
1.415,0.12076968927580028,86.77515893010619,0,60,3.0,1,0.21823903364955735
1.42,0.13804539501007884,89.42391197979815,0,60,3.0,1,0.28056263481877997
1.425,0.15654895051787066,92.48601184868365,0,60,3.0,1,0.3526120434984387
1.43,0.17613378141900526,95.91294646423091,0,60,3.0,1,0.4332457991583744
1.435,0.19660720058055794,99.61726401786359,0,60,3.0,1,0.5204062121850257
1.44,0.21773108748496234,103.4724229370135,0,60,3.0,1,0.6111158338120825
1.445,0.23922453870058807,107.317402683545,0,60,3.0,1,0.7015859454951764
1.45,0.2607685857914563,110.96635024110174,0,60,3.0,1,0.7874435350847467
1.455,0.2820129681603682,114.22274096962201,0,60,3.0,1,0.8640644934028708
1.46,0.30258482867153996,116.8966991332729,0,60,3.0,1,0.9269811560770095
1.465,0.3220990771751686,118.82342375535035,0,60,3.0,1,0.972315853067067
1.47,0.3401700499968971,119.88026396726374,0,60,3.0,1,0.9971826815826763
1.475,0.3564239911198326,120.0,0,60,3.0,1,1.0
1.48,0.3705118017738417,119.1783433081767,0,60,3.0,1,0.9806669013688634
1.485,0.3821214567925213,117.47450566886323,0,60,3.0,1,0.9405766039732525
1.49,0.39098947374066967,115.00474839088832,0,60,3.0,1,0.8824646680209017
1.495,0.3969108472035567,111.92990155349591,0,60,3.0,1,0.810115330670492
1.5,0.3997469255491936,108.43872783044789,0,60,3.0,1,0.7279700665987738
1.505,0.3994308076379137,104.7295305019311,0,60,3.0,1,0.6406948353395552
1.51,0.3959699661768434,100.99248893952765,0,60,3.0,1,0.5527644456359446
1.515,0.38944595408114946,97.39486371458231,0,60,3.0,1,0.4681144403431133
1.52,0.38001120995358023,94.07055139237116,0,60,3.0,1,0.3898953268793214
1.525,0.3678831374098315,91.1146454134743,0,60,3.0,1,0.3203445979641013
1.53,0.35333577933796634,88.5828469468639,0,60,3.0,1,0.260772869337974
1.535,0.33668953221163944,86.49491404388809,0,60,3.0,1,0.21164503632677853
1.54,0.3182994390982644,84.84092970825792,0,60,3.0,1,0.17272775784136277
1.545,0.29854265738230645,83.58903512890866,0,60,3.0,1,0.14327141479785088
1.55,0.2778057157821067,82.69338027079178,0,60,3.0,1,0.12219718284215948
1.555,0.2564721553719815,82.10131785759242,0,60,3.0,1,0.10826630253158635
1.56,0.23491109433464996,81.75922079911874,0,60,3.0,1,0.10021695997926439
1.565,0.21346717185309805,81.61665631936843,0,60,3.0,1,0.09686250163219838
1.57,0.19245222055656455,81.62894315447333,0,60,3.0,1,0.09715160363466667
1.575,0.17213889801761392,81.75831982609262,0,60,3.0,1,0.10019576061394392
1.58,0.15275638501270183,81.9740569196691,0,60,3.0,1,0.10527192752162577
1.585,0.13448814019607322,82.25186848048502,0,60,3.0,1,0.11180867012905918
1.59,0.11747159495449566,82.57294133248891,0,60,3.0,1,0.11936332547032728
1.595,0.10179958433370105,82.92283264526998,0,60,3.0,1,0.12759606224164652
1.6,0.08752324394101413,83.29040798078412,0,60,3.0,1,0.1362448936655088
1.605,0.07465606047174059,83.66692017809487,0,60,3.0,1,0.1451040041904675
1.61,0.0631787448609295,84.04527242910562,0,60,3.0,1,0.1540064100966029
1.615,0.05304460019959574,84.41946941505594,0,60,3.0,1,0.16281104506013983
1.62,0.044185078305849994,84.78423701164296,0,60,3.0,1,0.17139381203865783
1.625,0.03651525513023255,85.13478033273678,0,60,3.0,1,0.1796418901820419
1.63,0.0299390014708757,85.466647720412,0,60,3.0,1,0.18745053459792937
1.635,0.024353677220580638,85.77567108148466,0,60,3.0,1,0.19472167250552141
1.64,0.01965423034339045,86.05795797916235,0,60,3.0,1,0.20136371715676124
1.645,0.015736632374757337,86.30991632969506,0,60,3.0,1,0.20729214893400133
1.65,0.012500627640593535,86.52829745546912,0,60,3.0,1,0.2124305283639792
1.655,0.009851811652115898,86.71024721641409,0,60,3.0,1,0.21671169920974329
1.66,0.007703084175428559,86.85335794517667,0,60,3.0,1,0.22007901047474515
1.665,0.005975544002062424,86.95571609025774,0,60,3.0,1,0.22248743741782911
1.67,0.004598905818663047,87.0159420257872,0,60,3.0,1,0.2239045182538164
1.675,0.0035115256454839104,87.03321960866413,0,60,3.0,1,0.2243110496156265
1.68,0.002660121266303676,87.0073139066997,0,60,3.0,1,0.2237015036870516
1.685,0.0019992692560877024,86.938576193165,0,60,3.0,1,0.22208414572152954
1.69,0.0014907520044639367,86.82793587151944,0,60,3.0,1,0.2194808440357516
1.695,0.0011028178277539807,86.67687949596854,0,60,3.0,1,0.21592657637573023
1.7,0.0008094059938923333,86.4874175045347,0,60,3.0,1,0.21146864716552247
1.705,0.0005893771793717645,86.26203968403271,0,60,3.0,1,0.20616563962429918
1.71,0.0004257792353490551,86.00366073614138,0,60,3.0,1,0.20008613496803257
1.715,0.0003051686392901525,85.71555760321358,0,60,3.0,1,0.19330723772267253
1.72,0.00021699992642659966,85.40130043404575,0,60,3.0,1,0.1859129513893118
1.725,0.00015308884054097838,85.06467921767266,0,60,3.0,1,0.17799245218053322
1.73,0.00010714989329311098,84.70962818415443,0,60,3.0,1,0.16963831021539824
1.735,7.440535854020571e-05,84.34015006520161,0,60,3.0,1,0.16094470741650854
1.74,5.1260276743925106e-05,83.9602422274949,0,60,3.0,1,0.1520056994704683
1.745,3.503659887882241e-05,83.57382654391216,0,60,3.0,1,0.14291356573910968
1.75,2.375894748103639e-05,83.18468466146989,0,60,3.0,1,0.13375728615223265
1.755,1.5984413869232557e-05,82.79640007066425,0,60,3.0,1,0.12462117813327642
1.76,1.0669166579899869e-05,82.41230809162077,0,60,3.0,1,0.11558371980284171
1.765,7.06526633560511e-06,82.03545458144112,0,60,3.0,1,0.10671657838684977
1.77,4.641847214699205e-06,81.66856384791926,0,60,3.0,1,0.09808385524515903
1.775,3.025641074479182e-06,81.31401594043791,0,60,3.0,1,0.08974155153971558
1.78,1.9566278676921314e-06,80.97383319129152,0,60,3.0,1,0.08173725155980044
1.785,1.2553456560008793e-06,80.64967561027302,0,60,3.0,1,0.07411001435936522
1.79,7.990660428214668e-07,80.34284450049499,0,60,3.0,1,0.06689045883517625
1.795,5.046221251618276e-07,80.0542934702713,0,60,3.0,1,0.06010102282991304
1.8,3.1616527078858815e-07,79.78464586832229,0,60,3.0,1,0.05375637337228909
1.805,1.9652884407760343e-07,79.53421756914149,0,60,3.0,1,0.04786394280332916
1.81,1.2120002189836396e-07,79.30304398146892,0,60,3.0,1,0.04242456426985688
1.815,7.415549848886236e-08,79.09091014291228,0,60,3.0,1,0.03743317983323008
1.82,4.501406988770349e-08,78.89738279368821,0,60,3.0,1,0.032879595145604915
1.825,0.0,78.72184338679693,0,60,3.0,1,0.028749256159927856
1.83,0.0,78.56352108441183,0,60,3.0,1,0.025024025515572517
1.835,0.0,78.42152490408645,0,60,3.0,1,0.021682938919681257
1.84,0.0,78.29487430668186,0,60,3.0,1,0.01870292486310264
1.845,0.0,78.18252765403497,0,60,3.0,1,0.016059474212587542
1.85,0.0,78.08340810217774,0,60,3.0,1,0.013727249463005698
1.855,0.0,77.99642662994414,0,60,3.0,1,0.01168062658692092
1.86,0.0,77.92050202852263,0,60,3.0,1,0.009894165377003153
1.865,0.0,77.85457779134715,0,60,3.0,1,0.008343006855227151
1.87,0.0,77.79763594309105,0,60,3.0,1,0.00700319866096593
1.875,0.0,77.7487079298358,0,60,3.0,1,0.0058519512902541785
1.88,0.0,77.70688275903142,0,60,3.0,1,0.004867829624268605
1.885,0.0,77.67131262775425,0,60,3.0,1,0.004030885358923463
1.89,0.0,77.64121631177731,0,60,3.0,1,0.0033227367477014894
1.895,0.0,77.61588060740796,0,60,3.0,1,0.0027266025272461
1.9,0.0,77.59466012461155,0,60,3.0,1,0.0022272970496835433
1.905,0.0,77.57697572556901,0,60,3.0,1,0.0018111935428003242
1.91,0.0,77.56231188956468,0,60,3.0,1,0.0014661621074042962
1.915,0.0,77.5502132650315,0,60,3.0,1,0.0011814885889765158
1.92,0.0,77.54028064465962,0,60,3.0,1,0.0009477798743439374
1.925,0.0,77.53216657151289,0,60,3.0,1,0.0007568605061856167
1.93,0.0,77.52557075468849,0,60,3.0,1,0.0006016648161997129
1.935,0.0,77.52023544355008,0,60,3.0,1,0.0004761280835312471
1.94,0.0,77.5159408810574,0,60,3.0,1,0.0003750795542918481
1.945,0.0,77.51250093004288,0,60,3.0,1,0.0002941395304206066
1.95,0.0,77.50975894204335,0,60,3.0,1,0.00022962216572583363
1.955,0.0,77.50758391686,0,60,3.0,1,0.000178445102588231
1.96,0.0,77.505866982575,0,60,3.0,1,0.00013804664882353362
1.965,0.0,77.50451821032726,0,60,3.0,1,0.00010631083122970107
1.97,0.0,77.50346376564148,0,60,3.0,1,8.150036803492773e-05
1.975,0.0,77.50264338831892,0,60,3.0,1,6.219737220977978e-05
1.98,0.0,77.50200818557703,0,60,3.0,1,4.72514253417825e-05
1.985,0.0,77.50151871796827,0,60,3.0,1,3.5734540429811044e-05
1.99,0.0,77.5011433542997,0,60,3.0,1,2.6902454110581055e-05
1.995,0.0,77.50085686999996,0,60,3.0,1,2.01616470579826e-05
2.0,0.0,77.50063926283588,0,60,3.0,1,1.5041478491184535e-05
2.005,0.0,77.50047476029029,0,60,3.0,1,1.1170830359721068e-05
2.01,0.0,77.50035099402773,0,60,3.0,1,8.258683005338111e-06
2.015,0.0,77.5002583184806,0,60,3.0,1,6.078081896569475e-06
2.02,0.0,77.5001892525059,0,60,3.0,1,4.453000138937569e-06
2.025,0.0,77.50013802514448,0,60,3.0,1,3.2476504583535324e-06
2.03,0.0,77.50010020864568,0,60,3.0,1,2.3578504865059477e-06
2.035,0.0,77.50007242401301,0,60,3.0,1,1.704094423824726e-06
2.04,0.0,77.50005210631836,0,60,3.0,1,1.2260310203306718e-06
2.045,0.0,77.50003731888009,0,60,3.0,1,8.780912962185325e-07
2.05,0.0,77.50002660708068,0,60,3.0,1,6.260489572816689e-07
2.055,0.0,77.5000188840987,0,60,3.0,1,4.443317339684975e-07
2.06,0.0,77.50001334214654,0,60,3.0,1,3.1393285988034384e-07
2.065,0.0,77.50000938394734,0,60,3.0,1,2.2079876102639794e-07
2.07,0.0,77.50000657015823,0,60,3.0,1,1.5459195845537846e-07
2.075,0.0,77.50000457927268,0,60,3.0,1,1.0774759255796466e-07
2.08,0.001684486749771458,77.50000317722223,0,60,3.0,1,7.475817001785104e-08
2.085,0.003097557930867117,77.50000219446719,0,60,3.0,1,5.163452201754005e-08
2.09,0.005475106668887023,77.5000015088324,0,60,3.0,1,3.5501938769170115e-08
2.095,0.00930222931468658,77.50000103272174,0,60,3.0,1,2.4299335082640242e-08
2.1,0.01519157517868857,77.50000070364895,0,60,3.0,1,1.6556445897924062e-08
2.105,0.023847336626128316,77.50000047726456,0,60,3.0,1,1.1229754443989162e-08
2.11,0.0359830743700859,77.50000032224986,0,60,3.0,1,7.58234966055812e-09
2.115,0.05218887796857759,77.50000021659912,0,60,3.0,1,5.0964498608236145e-09
2.12,0.0727577001223134,77.50000014492758,0,60,3.0,1,3.410060772319626e-09
2.125,0.0974992498694751,77.50000009653301,0,60,3.0,1,2.2713650463736165e-09
2.13,0.12558706050443358,77.50000006400752,0,60,3.0,1,1.5060593608830138e-09
2.135,0.15549263588878245,77.50000004224901,0,60,3.0,1,9.940944276904167e-10
2.14,0.1850529723539114,77.50000002776085,0,60,3.0,1,6.531964198289001e-10
2.145,0.21169159439317053,77.50000001815846,0,60,3.0,1,4.2725787352537734e-10
2.15,0.23277292922115492,77.50000001182377,0,60,3.0,1,2.782064043190878e-10
2.155,0.24602692519491282,77.50000000766414,0,60,3.0,1,1.8033273697844433e-10
2.16,0.24995056064839283,77.50000000494539,0,60,3.0,1,1.1636215651164735e-10
2.165,0.24408826520424054,77.50000000317665,0,60,3.0,1,7.474474895228495e-11
2.17,0.22911894216865275,77.50000000203127,0,60,3.0,1,4.779461532427162e-11
2.175,0.20672661788705934,77.50000000129299,0,60,3.0,1,3.0423266520408696e-11
2.18,0.17928878030241233,77.50000000081933,0,60,3.0,1,1.9278278320116976e-11
2.185,0.14946211903866036,77.50000000051682,0,60,3.0,1,1.2160479159587447e-11
2.19,0.1197651512573837,77.50000000032453,0,60,3.0,1,7.636077391319251e-12
2.195,0.09224675744988023,77.50000000020287,0,60,3.0,1,4.773509692099383e-12
2.2,0.06829565320281596,77.50000000012624,0,60,3.0,1,2.97023582200328e-12
2.205,0.04860224607515734,77.5000000000782,0,60,3.0,1,1.8400549058295675e-12
2.21,0.03324612389699793,77.50000000004822,0,60,3.0,1,1.1345277658513034e-12
2.215,0.021859876340472782,77.5000000000296,0,60,3.0,1,6.964990675709594e-13
2.22,0.01381595518554205,77.50000000001809,0,60,3.0,1,4.256568953518153e-13
2.225,0.008394095110402422,77.500000000011,0,60,3.0,1,2.5880474234273766e-13
2.23,0.0049052535271608,77.50000000000666,0,60,3.0,1,1.5682096144540564e-13
2.235,0.0027671663551903634,77.50000000000402,0,60,3.0,1,9.462757375063923e-14
2.24,0.0015425553464444616,77.50000000000242,0,60,3.0,1,5.684341886080802e-14
2.245,0.0009638206637011801,77.50000000000144,0,60,3.0,1,3.377167826436241e-14
2.25,0.0009804935156568228,77.50000000000085,0,60,3.0,1,2.0062383127344007e-14
2.255,0.0018793744894085216,77.50000000000051,0,60,3.0,1,1.2037429876406403e-14
2.26,0.004535525206900863,77.5000000000003,0,60,3.0,1,7.021834094570402e-15
2.265,0.010832767979632273,77.50000000000017,0,60,3.0,1,4.012476625468801e-15
2.27,0.024208003392322392,77.5000000000001,0,60,3.0,1,2.3406113648568006e-15
2.275,0.0500971897335304,77.50000000000006,0,60,3.0,1,1.3374922084896003e-15
2.28,0.09582894921774403,77.50000000000003,0,60,3.0,1,6.687461042448002e-16
2.285,0.16937896721820658,77.50000000000001,0,60,3.0,1,3.343730521224001e-16
2.29,0.27661303008991756,77.50000000000001,0,60,3.0,1,3.343730521224001e-16
2.295,0.4173782800009149,77.5,0,60,3.0,1,0.0
2.3,0.5818720934538056,77.5,0,60,3.0,1,0.0
2.305,0.7494718801585675,77.5,0,60,3.0,1,0.0
2.31,0.891813020752378,77.5,0,60,3.0,1,0.0
2.315,0.9800361632936612,77.5,0,60,3.0,1,0.0
2.32,0.993574479225126,77.5000024907942,1,60,3.0,1,5.860692240008468e-08
2.325,0.9263438449375362,77.50000370168296,0,60,3.0,1,8.709842250830073e-08
2.33,0.7873015962290536,77.50000559732517,0,60,3.0,1,1.3170176871694018e-07
2.335,0.5959516244629897,77.50000868528376,0,60,3.0,1,2.0435961787638113e-07
2.34,0.376910120078773,77.50001394785167,0,60,3.0,1,3.281847451783987e-07
2.345,0.15739335672107918,77.50002332361363,0,60,3.0,1,5.487909089986394e-07
2.35,-0.033361226269301235,77.50004066287902,0,60,3.0,1,9.567736239044762e-07
2.355,-0.1680180840843834,77.50007358415628,0,60,3.0,1,1.7313919125386104e-06
2.36,-0.23069703190837854,77.50013699814808,0,60,3.0,1,3.223485837157996e-06
2.365,-0.22587267821131068,77.50025963121455,0,60,3.0,1,6.108969754049052e-06
2.37,-0.17718181630665902,77.5004957861202,0,60,3.0,1,1.1665555769348109e-05
2.375,-0.11494332516451301,77.5009459677673,0,60,3.0,1,2.2258065112790813e-05
2.38,-0.061810214049552864,77.50179203370355,0,60,3.0,1,4.216549890710506e-05
2.385,-0.026546104631500547,77.50335533913052,0,60,3.0,1,7.894915601227963e-05
2.39,-0.00719600351942686,77.50618997755612,0,60,3.0,1,0.00014564653073220518
2.395,0.0022072757983807078,77.51122751320875,0,60,3.0,1,0.00026417678138239566
2.4,0.006917199873730717,77.51999405208973,0,60,3.0,1,0.0004704482844642023
2.405,0.01004859748264829,77.53492407870733,0,60,3.0,1,0.0008217430284078626
2.41,0.013037082251128167,77.5597965053602,0,60,3.0,2,0.001406976596710512
2.415,0.01645163937690478,77.60031444210082,0,60,3.0,2,0.002360339814137045
2.42,0.020526639934696615,77.66483834903529,0,60,3.0,2,0.003878549389065711
2.425,0.02539629541761738,77.76525944842403,0,60,3.0,2,0.006241398786447823
2.43,0.031171612185577933,77.91796430133022,0,60,3.0,2,0.009834454148946245
2.435,0.03795853426638131,78.14479205705722,0,60,3.0,2,0.015171577813110978
2.44,0.0458588961882057,78.47382629012718,0,60,3.0,2,0.022913559767698308
2.445,0.054966995891435555,78.93980153362324,0,60,3.0,2,0.033877683144076215
2.45,0.06536491004445595,79.58385394298729,0,60,3.0,2,0.049031857482053874
2.455,0.07711726085088699,80.45232396160812,0,60,3.0,2,0.06946644615548507
2.46,0.09026570629555215,81.59434646012087,0,60,3.0,2,0.09633756376754998
2.465,0.10482339848670268,83.05805814539562,0,60,3.0,2,0.13077783871519105
2.47,0.12076968927580028,84.88542207281273,0,60,3.0,2,0.17377463700735835
2.475,0.13804539501007884,87.10590891921052,0,60,3.0,2,0.2260213863343652
2.48,0.15654895051787066,89.72955874504295,0,60,3.0,2,0.2877543234127753
2.485,0.17613378141900526,92.74022929216065,0,60,3.0,2,0.35859363040377995
2.49,0.19660720058055794,96.09005573048681,0,60,3.0,2,0.43741307601145435
2.495,0.21773108748496234,99.69623571926265,0,60,3.0,2,0.5222643698650035
2.5,0.23922453870058807,103.44115724979734,0,60,3.0,2,0.6103801705834668
2.505,0.2607685857914563,107.1765779098145,0,60,3.0,2,0.6982724214074
2.51,0.2820129681603682,110.73205831883556,0,60,3.0,2,0.7819307839726013
2.515,0.30258482867153996,113.9272131458442,0,60,3.0,2,0.8571108975492754
2.52,0.3220990771751686,116.58667615229265,0,60,3.0,2,0.9196864977010036
2.525,0.3401700499968971,118.55611058611859,0,60,3.0,2,0.9660261314380845
2.53,0.3564239911198326,119.71725824702628,0,60,3.0,2,0.9933472528712066
2.535,0.3705118017738417,120.0,0,60,3.0,2,1.0
2.54,0.3821214567925213,119.38972767868773,0,60,3.0,2,0.9856406512632409
2.545,0.39098947374066967,117.928960255824,0,60,3.0,2,0.9512696530782117
2.55,0.3969108472035567,115.71296719634108,0,60,3.0,2,0.8991286399139078
2.555,0.3997469255491936,112.88003618911034,0,60,3.0,2,0.8324714397437728
2.56,0.3994308076379137,109.59777808833056,0,60,3.0,2,0.7552418373724837
2.565,0.3959699661768434,106.04736280680477,0,60,3.0,2,0.6717026542777593
2.57,0.38944595408114946,102.40774654607134,0,60,3.0,2,0.5860646246134432
2.575,0.38001120995358023,98.84177511307495,0,60,3.0,2,0.5021594144252928
2.58,0.3678831374098315,95.48559074062281,0,60,3.0,2,0.42319037036759555
2.585,0.35333577933796634,92.44214101065349,0,60,3.0,2,0.3515797884859644
2.59,0.33668953221163944,89.77891922140981,0,60,3.0,2,0.2889157463861131
2.595,0.3182994390982644,87.52947735808088,0,60,3.0,2,0.23598770254307957
2.6,0.29854265738230645,85.69783352955922,0,60,3.0,2,0.19289020069551102
2.605,0.2778057157821067,84.26468652216829,0,60,3.0,2,0.15916909463925388
2.61,0.2564721553719815,83.19434532822073,0,60,3.0,2,0.13398459595813492
2.615,0.23491109433464996,82.44143882176813,0,60,3.0,2,0.11626914874748542
2.62,0.21346717185309805,81.95672745633289,0,60,3.0,2,0.1048641754431267
2.625,0.19245222055656455,81.69162896855883,0,60,3.0,2,0.09862656396609014
2.63,0.17213889801761392,81.60133817646327,0,60,3.0,2,0.09650207474031229
2.635,0.15275638501270183,81.6466303296647,0,60,3.0,2,0.09756777246269889
2.64,0.13448814019607322,81.79457204803045,0,60,3.0,2,0.1010487540713046
2.645,0.11747159495449566,82.0184254014162,0,60,3.0,2,0.10631589179802813
2.65,0.10179958433370105,82.29703291343391,0,60,3.0,2,0.11287136266903317
2.655,0.08752324394101413,82.61393361697077,0,60,3.0,2,0.12032784981107691
2.66,0.07465606047174059,82.95640229029239,0,60,3.0,2,0.12838593624217384
2.665,0.0631787448609295,83.3145416910855,0,60,3.0,2,0.13681274567259988
2.67,0.05304460019959574,83.68050183919746,0,60,3.0,2,0.1454235726869991
2.675,0.044185078305849994,84.04785682983105,0,60,3.0,2,0.15406721952543642
2.68,0.03651525513023255,84.41113973526605,0,60,3.0,2,0.16261505259449524
2.685,0.0299390014708757,84.76551854057078,0,60,3.0,2,0.17095337742519484
2.69,0.024353677220580638,85.10658802224076,0,60,3.0,2,0.17897854169978253
2.695,0.01965423034339045,85.43025095384682,0,60,3.0,2,0.18659414009051348
2.7,0.015736632374757337,85.73266428905295,0,60,3.0,2,0.19370974797771642
2.705,0.012500627640593535,86.01022996494767,0,60,3.0,2,0.20024070505759223
2.71,0.009851811652115898,86.25961432746958,0,60,3.0,2,0.20610857241104888
2.715,0.007703084175428559,86.47778414733979,0,60,3.0,2,0.21124197993740682
2.72,0.005975544002062424,86.66205044872433,0,60,3.0,2,0.21557765761704303
2.725,0.004598905818663047,86.81011386775772,0,60,3.0,2,0.2190615027707699
2.73,0.0035115256454839104,86.92010709100687,0,60,3.0,2,0.22164957861192633
2.735,0.002660121266303676,86.99063124445878,0,60,3.0,2,0.2233089704578537
2.74,0.0019992692560877024,87.02078406058945,0,60,3.0,2,0.22401844848445762
2.745,0.0014907520044639367,87.01017836754043,0,60,3.0,2,0.22376890276565725
2.75,0.0011028178277539807,86.95895001011893,0,60,3.0,2,0.22256352964985707
2.755,0.0008094059938923333,86.86775478592403,0,60,3.0,2,0.2204177596688008
2.76,0.0005893771793717645,86.7377543953211,0,60,3.0,2,0.21735892694873188
2.765,0.0004257792353490551,86.57059177747234,0,60,3.0,2,0.2134256888817022
2.77,0.0003051686392901525,86.36835654093382,0,60,3.0,2,0.20866721272785452
2.775,0.00021699992642659966,86.13354149454099,0,60,3.0,2,0.20314215281272924
2.78,0.00015308884054097838,85.86899153734997,0,60,3.0,2,0.19691744793764634
2.785,0.00010714989329311098,85.57784636939925,0,60,3.0,2,0.19006697339762949
2.79,7.440535854020571e-05,85.26347863285459,0,60,3.0,2,0.18267008547893143
2.795,5.1260276743925106e-05,84.92942918219951,0,60,3.0,2,0.17481009840469441
2.8,3.503659887882241e-05,84.5793412112028,0,60,3.0,2,0.1665727343812424
2.805,2.375894748103639e-05,84.21689493445919,0,60,3.0,2,0.15804458669315744
2.81,1.5984413869232557e-05,83.84574443572966,0,60,3.0,2,0.1493116337818743
2.815,1.0669166579899869e-05,83.46945815961926,0,60,3.0,2,0.14045783904986506
2.82,7.06526633560511e-06,83.09146434467037,0,60,3.0,2,0.13156386693342048
2.825,4.641847214699205e-06,82.71500248349014,0,60,3.0,2,0.12270594078800326
2.83,3.025641074479182e-06,82.34308165880215,0,60,3.0,2,0.11395486256005055
2.835,1.9566278676921314e-06,81.97844635350938,0,60,3.0,2,0.10537520831786784
2.84,1.2553456560008793e-06,81.62355007815492,0,60,3.0,2,0.09702470772129225
2.845,7.990660428214668e-07,81.28053691025927,0,60,3.0,2,0.08895380965315934
2.85,5.046221251618276e-07,80.95123080570434,0,60,3.0,2,0.08120543072245509
2.855,3.1616527078858815e-07,80.63713233020238,0,60,3.0,2,0.07381487835770298
2.86,1.9652884407760343e-07,80.33942227503793,0,60,3.0,2,0.06680993588324548
2.865,1.2120002189836396e-07,80.05897147016721,0,60,3.0,2,0.06021109341569901
2.87,7.415549848886236e-08,79.7963559921641,0,60,3.0,2,0.05403190569797871
2.875,4.501406988770349e-08,79.5518768854916,0,60,3.0,2,0.04827945612921399
2.88,0.0,79.32558347264785,0,60,3.0,2,0.042954905238772934
2.885,0.0,79.11729931996666,0,60,3.0,2,0.0380541016462744
2.89,0.0,78.92664994813347,0,60,3.0,2,0.03356823407372878
2.895,0.0,78.75309142576543,0,60,3.0,2,0.029484504135657248
2.9,0.0,78.59593905599313,0,60,3.0,2,0.025786801317485362
2.905,0.0,78.45439545479327,0,60,3.0,2,0.02245636364219462
2.91,0.0,78.32757742066049,0,60,3.0,2,0.019472409897893866
2.915,0.0,78.21454110300745,0,60,3.0,2,0.016812731835469375
2.92,0.0,78.11430508671904,0,60,3.0,2,0.014454237334565705
2.925,0.0,78.02587111832956,0,60,3.0,2,0.012373438078342628
2.93,0.0,77.94824230174004,0,60,3.0,2,0.010546877688000892
2.935,0.0,77.88043868534147,0,60,3.0,2,0.00895149847862292
2.94,0.0,77.82151024568631,0,60,3.0,2,0.007564946957324991
2.945,0.0,77.77054734400774,0,60,3.0,2,0.006365819859005609
2.95,0.0,77.72668879016348,0,60,3.0,2,0.005333853886199503
2.955,0.0,77.68912769383309,0,60,3.0,2,0.004450063384307909
2.96,0.0,77.65711531541673,0,60,3.0,2,0.0036968309509819285
2.965,0.0,77.62996314989257,0,60,3.0,2,0.0030579564680605848
2.97,0.0,77.60704348704466,0,60,3.0,2,0.0025186702834038414
2.975,0.0,77.58778869236009,0,60,3.0,2,0.0020656162908257074
2.98,0.0,77.57168944602738,0,60,3.0,2,0.0016868104947618309
2.985,0.0,77.55829216441224,0,60,3.0,2,0.001371580339111447
2.99,0.0,77.54719581067285,0,60,3.0,2,0.001110489662890506
2.995,0.0,77.53804828025008,0,60,3.0,2,0.0008952536529430771
3.0,0.0,77.53054252413591,0,60,3.0,2,0.0007186476267273011
3.005,0.0,77.52441254923001,0,60,3.0,2,0.0005744129230589913
3.01,0.0,77.51942941169872,0,60,3.0,2,0.00045716262820526347
3.015,0.0,77.51539729682236,0,60,3.0,2,0.0003622893369966358
3.02,0.0,77.51214975793991,0,60,3.0,2,0.00028587665740962404
3.025,0.0,77.50954616818494,0,60,3.0,2,0.00022461572199858893
3.03,0.0,77.50746842200519,0,60,3.0,2,0.00017572757659268867
3.035,0.0,77.50581790908933,0,60,3.0,2,0.00013689197857248098
3.04,0.0,77.50451277129098,0,60,3.0,2,0.00010618285390531876
3.045,0.0,77.50348544335841,0,60,3.0,2,8.201043196269144e-05
3.05,0.0,77.5026804705957,0,60,3.0,2,6.306989636955757e-05
3.055,0.0,77.50205259079931,0,60,3.0,2,4.82962541013876e-05
3.06,0.0,77.5015650637076,0,60,3.0,2,3.682502841416756e-05
3.065,0.0,77.50118822853021,0,60,3.0,2,2.7958318357899344e-05
3.07,0.0,77.50089826865133,0,60,3.0,2,2.113573297238498e-05
3.075,0.0,77.50067616209898,0,60,3.0,2,1.590969644666984e-05
3.08,0.0,77.50050679662725,0,60,3.0,2,1.1924626523509955e-05
3.085,0.0,77.50037822908388,0,60,3.0,2,8.899507855965246e-06
3.09,0.0,77.500281069964,0,60,3.0,2,6.6134109177335845e-06
3.095,0.0,77.5002079755434,0,60,3.0,2,4.893542197738926e-06
3.1,0.0,77.50015323162589,0,60,3.0,2,3.6054500208806796e-06
3.105,0.0,77.50011241463747,0,60,3.0,2,2.645050293428058e-06
3.11,0.0,77.50008211748334,0,60,3.0,2,1.9321760786999005e-06
3.115,0.0,77.50005972920171,0,60,3.0,2,1.4053929813893346e-06
3.12,0.0,77.50004325896278,0,60,3.0,2,1.0178579476788025e-06
3.125,0.0,77.50003119635159,0,60,3.0,2,7.34031802012931e-07
3.13,0.0,77.50002240112465,0,60,3.0,2,5.270852859533025e-07
3.135,0.0,77.50001601674096,0,60,3.0,2,3.768644931182387e-07
3.14,0.0,77.50001140293878,0,60,3.0,2,2.6830444192134617e-07
3.145,0.0,77.50000808346843,0,60,3.0,2,1.901992571701532e-07
3.15,0.0,77.50000570580615,0,60,3.0,2,1.342542622537354e-07
3.155,0.0,77.50000401027903,0,60,3.0,2,9.435950654037964e-08
3.16,0.0,77.50000280653512,0,60,3.0,2,6.603612050907139e-08
3.165,0.001684486749771458,77.50000195571103,0,60,3.0,2,4.6016730065650123e-08
3.17,0.003097557930867117,77.50000135699173,0,60,3.0,2,3.1929217210049765e-08
3.175,0.005475106668887023,77.50000093753617,0,60,3.0,2,2.2059674620322768e-08
3.18,0.00930222931468658,77.50000064496652,0,60,3.0,2,1.5175682807132356e-08
3.185,0.01519157517868857,77.50000044179889,0,60,3.0,2,1.0395267977133592e-08
3.19,0.023847336626128316,77.50000030133556,0,60,3.0,2,7.090248492899906e-09
3.195,0.0359830743700859,77.50000020465129,0,60,3.0,2,4.815324379759498e-09
3.2,0.05218887796857759,77.50000013839387,0,60,3.0,2,3.256326408518362e-09
3.205,0.0727577001223134,77.50000009318748,0,60,3.0,2,2.1926466080699087e-09
3.21,0.0974992498694751,77.50000006247936,0,60,3.0,2,1.4701025547230314e-09
3.215,0.12558706050443358,77.50000004171132,0,60,3.0,2,9.814427545172614e-10
3.22,0.15549263588878245,77.50000002772742,0,60,3.0,2,6.524099744103082e-10
3.225,0.1850529723539114,77.50000001835285,0,60,3.0,2,4.3183176250535965e-10
3.23,0.21169159439317053,77.50000001209582,0,60,3.0,2,2.8460764202891904e-10
3.235,0.23277292922115492,77.50000000793791,0,60,3.0,2,1.8677443382758238e-10
3.24,0.24602692519491282,77.50000000518699,0,60,3.0,2,1.2204683277078027e-10
3.245,0.24995056064839283,77.50000000337491,0,60,3.0,2,7.940958740244455e-11
3.25,0.24408826520424054,77.5000000021865,0,60,3.0,2,5.14469721726046e-11
3.255,0.22911894216865275,77.5000000014105,0,60,3.0,2,3.318819728840882e-11
3.26,0.20672661788705934,77.50000000090601,0,60,3.0,2,2.1317953938063616e-11
3.265,0.17928878030241233,77.50000000057948,0,60,3.0,2,1.3634729946395109e-11
3.27,0.14946211903866036,77.50000000036904,0,60,3.0,2,8.683333790566607e-12
3.275,0.1197651512573837,77.50000000023402,0,60,3.0,2,5.506455422351685e-12
3.28,0.09224675744988023,77.50000000014776,0,60,3.0,2,3.476810995968716e-12
3.285,0.06829565320281596,77.5000000000929,0,60,3.0,2,2.1857966417241294e-12
3.29,0.04860224607515734,77.50000000005815,0,60,3.0,2,1.3682545292848611e-12
3.295,0.03324612389699793,77.50000000003625,0,60,3.0,2,8.529856559642426e-13
3.3,0.021859876340472782,77.5000000000225,0,60,3.0,2,5.293125415097594e-13
3.305,0.01381595518554205,77.50000000001391,0,60,3.0,2,3.273512180278297e-13
3.31,0.008394095110402422,77.50000000000855,0,60,3.0,2,2.0129257737768484e-13
3.315,0.0049052535271608,77.50000000000524,0,60,3.0,2,1.2338365623316562e-13
3.32,0.0027671663551903634,77.5000000000032,0,60,3.0,2,7.523393672754002e-14
3.325,0.0015425553464444616,77.50000000000195,0,60,3.0,2,4.5809108140768813e-14
3.33,0.0009638206637011801,77.50000000000118,0,60,3.0,2,2.7752963326159206e-14
3.335,0.0009804935156568228,77.50000000000071,0,60,3.0,2,1.6718652606120005e-14
3.34,0.0018793744894085216,77.50000000000043,0,60,3.0,2,1.0031191563672003e-14
3.345,0.004535525206900863,77.50000000000026,0,60,3.0,2,6.0187149382032015e-15
3.35,0.010832767979632273,77.50000000000016,0,60,3.0,2,3.678103573346401e-15
3.355,0.024208003392322392,77.50000000000009,0,60,3.0,2,2.0062383127344005e-15
3.36,0.0500971897335304,77.50000000000006,0,60,3.0,2,1.3374922084896003e-15
3.365,0.09582894921774403,77.50000000000003,0,60,3.0,2,6.687461042448002e-16
3.37,0.16937896721820658,77.50000000000001,0,60,3.0,2,3.343730521224001e-16
3.375,0.27661303008991756,77.50000000000001,0,60,3.0,2,3.343730521224001e-16
3.38,0.4173782800009149,77.5,0,60,3.0,2,0.0
3.385,0.5818720934538056,77.5,0,60,3.0,2,0.0
3.39,0.7494718801585675,77.5,0,60,3.0,2,0.0
3.395,0.891813020752378,77.5,0,60,3.0,2,0.0
3.4,0.9800361632936612,77.5,0,60,3.0,2,0.0
3.405,0.993574479225126,77.50000249265109,1,60,3.0,2,5.865061392368636e-08
3.41,0.9263438449375362,77.50000398518917,0,60,3.0,2,9.376915687318936e-08
3.415,0.7873015962290536,77.50000654066784,0,60,3.0,2,1.5389806682886795e-07
3.42,0.5959516244629897,77.50001117740402,0,60,3.0,2,2.6299774162907853e-07
3.425,0.376910120078773,77.50002013947866,0,60,3.0,2,4.738700862189409e-07
3.43,0.15739335672107918,77.5000384600986,0,60,3.0,2,9.049434963264288e-07
3.435,-0.033361226269301235,77.50007741584777,0,60,3.0,2,1.8215493592860558e-06
3.44,-0.1680180840843834,77.50016192215617,0,60,3.0,2,3.809933086278547e-06
3.445,-0.23069703190837854,77.50034582846276,0,60,3.0,2,8.137140300130555e-06
3.45,-0.22587267821131068,77.50074240798563,0,60,3.0,2,1.746842319120975e-05
3.455,-0.17718181630665902,77.50158283173528,0,60,3.0,2,3.7243099653578076e-05
3.46,-0.11494332516451301,77.50332386614215,0,60,3.0,2,7.820861510949458e-05
3.465,-0.061810214049552864,77.50683799925999,0,60,3.0,2,0.00016089410023496117
3.47,-0.026546104631500547,77.51373441655053,0,60,3.0,2,0.0003231627423655054
3.475,-0.00719600351942686,77.52687569910647,0,60,3.0,2,0.0006323693907404504
3.48,0.0022072757983807078,77.55116788428217,0,60,3.0,2,0.001203950218403888
3.485,0.006917199873730717,77.59470175431602,0,60,3.0,2,0.0022282765721416474
3.49,0.01004859748264829,77.67029790979625,0,60,3.0,2,0.004007009642264634
3.495,0.013037082251128167,77.7974418428452,0,60,3.0,2,0.006998631596357708
3.5,0.01645163937690478,78.00447430391384,0,60,3.0,2,0.011869983621502074
3.505,0.020526639934696615,78.33072285038611,0,60,3.0,2,0.019546420009084936
3.51,0.02539629541761738,78.82803821419652,0,60,3.0,2,0.031247957981094702
3.515,0.031171612185577933,79.56097824520513,0,60,3.0,2,0.048493605769532586
3.52,0.03795853426638131,80.60473847007711,0,60,3.0,2,0.07305266988416727
3.525,0.0458588961882057,82.03996014692362,0,60,3.0,2,0.10682259169232045
3.53,0.054966995891435555,83.94385011838155,0,60,3.0,2,0.15162000278544818
3.535,0.06536491004445595,86.37767589396867,0,60,3.0,2,0.20888649162279227
3.54,0.07711726085088699,89.37162197482888,0,60,3.0,2,0.2793322817606796
3.545,0.09026570629555215,92.90905900097749,0,60,3.0,2,0.3625660941406469
3.55,0.10482339848670268,96.91321870732834,0,60,3.0,2,0.45678161664301975
3.555,0.12076968927580028,101.23975090338715,0,60,3.0,2,0.5585823741973447
3.56,0.13804539501007884,105.67835968633564,0,60,3.0,2,0.6630202279137798
3.565,0.15654895051787066,109.9655210856638,0,60,3.0,2,0.7638946137803246
3.57,0.17613378141900526,113.80827084332563,0,60,3.0,2,0.8543122551370737
3.575,0.19660720058055794,116.91660159020552,0,60,3.0,2,0.9274494491813062
3.58,0.21773108748496234,119.03972532135623,0,60,3.0,2,0.9774053016789701
3.585,0.23922453870058807,120.0,0,60,3.0,2,1.0
3.59,0.2607685857914563,119.71819486981664,0,60,3.0,2,0.9933692910545092
3.595,0.2820129681603682,118.22514303259423,0,60,3.0,2,0.9582386595904525
3.6,0.30258482867153996,115.65743887896393,0,60,3.0,2,0.8978220912697396
3.605,0.3220990771751686,112.23804596842908,0,60,3.0,2,0.8173657874924489
3.61,0.3401700499968971,108.24566642383822,0,60,3.0,2,0.7234274452667816
3.615,0.3564239911198326,103.97873354137889,0,60,3.0,3,0.6230290245030327
3.62,0.3705118017738417,99.72047151631871,0,60,3.0,3,0.5228346239133814
3.625,0.3821214567925213,95.71058737466072,0,60,3.0,3,0.42848440881554634
3.63,0.39098947374066967,92.12718604457994,0,60,3.0,3,0.344169083401881
3.635,0.3969108472035567,89.08004508009347,0,60,3.0,3,0.2724716489433758
3.64,0.3997469255491936,86.61410476743372,0,60,3.0,3,0.21444952393961683
3.645,0.3994308076379137,84.72042200656003,0,60,3.0,3,0.16989228250729477
3.65,0.3959699661768434,83.35113478668552,0,60,3.0,3,0.13767375968671813
3.655,0.38944595408114946,82.43514255356241,0,60,3.0,3,0.11612100126029211
3.66,0.38001120995358023,81.89197759278828,0,60,3.0,3,0.10334064924207717
3.665,0.3678831374098315,81.64238940648725,0,60,3.0,3,0.09746798603499422
3.67,0.35333577933796634,81.6151801350747,0,60,3.0,3,0.09682776788411047
3.675,0.33668953221163944,81.75060635081712,0,60,3.0,3,0.10001426707804993
3.68,0.3182994390982644,82.00111582897384,0,60,3.0,3,0.10590860774056088
3.685,0.29854265738230645,82.33033612390017,0,60,3.0,3,0.11365496762118041
3.69,0.2778057157821067,82.71115690383473,0,60,3.0,3,0.12261545656081727
3.695,0.2564721553719815,83.12355143657747,0,60,3.0,3,0.13231885733123463
3.7,0.23491109433464996,83.55255280048831,0,60,3.0,3,0.14241300707031326
3.705,0.21346717185309805,83.9865965664751,0,60,3.0,3,0.15262580156412
3.71,0.19245222055656455,84.41629201158128,0,60,3.0,3,0.1627362826254418
3.715,0.17213889801761392,84.83359239198698,0,60,3.0,3,0.17255511510557606
3.72,0.15275638501270183,85.23129130222692,0,60,3.0,3,0.1819127365229864
3.725,0.13448814019607322,85.60276139246572,0,60,3.0,3,0.19065320923448761
3.73,0.11747159495449566,85.94185923872563,0,60,3.0,3,0.1986319820876618
3.735,0.10179958433370105,86.24293515703938,0,60,3.0,3,0.20571612134210313
3.74,0.08752324394101413,86.50090259788347,0,60,3.0,3,0.211785943479611
3.745,0.07465606047174059,86.71133525558322,0,60,3.0,3,0.21673730013136994
3.75,0.0631787448609295,86.87057024485128,0,60,3.0,3,0.22048400576120658
3.755,0.05304460019959574,86.97580290241507,0,60,3.0,3,0.22296006829211926
3.76,0.044185078305849994,87.02516369076801,0,60,3.0,3,0.22412149860630615
3.765,0.03651525513023255,87.01777106783803,0,60,3.0,3,0.22394755453736534
3.77,0.0299390014708757,86.9537566386758,0,60,3.0,3,0.22244133267472468
3.775,0.024353677220580638,86.83426082299079,0,60,3.0,3,0.2196296664233126
3.78,0.01965423034339045,86.6613988844267,0,60,3.0,3,0.215562326692393
3.785,0.015736632374757337,86.43819858020841,0,60,3.0,3,0.2103105548284331
3.79,0.012500627640593535,86.16851193308655,0,60,3.0,3,0.20396498666085996
3.795,0.009851811652115898,85.85690469035502,0,60,3.0,3,0.19663305153776525
3.8,0.007703084175428559,85.5085278896082,0,60,3.0,3,0.18843595034372243
3.805,0.005975544002062424,85.12897656919976,0,60,3.0,3,0.17950533103999447
3.81,0.004598905818663047,84.72414102229583,0,60,3.0,3,0.16997978875990177
3.815,0.0035115256454839104,84.300056088787,0,60,3.0,3,0.16000131973616477
3.82,0.002660121266303676,83.86275381532766,0,60,3.0,3,0.149711854478298
3.825,0.0019992692560877024,83.41812441079733,0,60,3.0,3,0.13924998613640782
3.83,0.0014907520044639367,82.97178981552887,0,60,3.0,3,0.1287479956595027
3.835,0.0011028178277539807,82.52899343074151,0,60,3.0,3,0.11832925719391783
3.84,0.0008094059938923333,82.09450866958008,0,60,3.0,3,0.1081060863430607
3.845,0.0005893771793717645,81.67256804608654,0,60,3.0,3,0.09817807167262445
3.85,0.0004257792353490551,81.26681356614274,0,60,3.0,3,0.0886309074386528
3.855,0.0003051686392901525,80.88026827418531,0,60,3.0,3,0.07953572409847792
3.86,0.00021699992642659966,80.51532798422296,0,60,3.0,3,0.07094889374642267
3.865,0.00015308884054097838,80.17377151780276,0,60,3.0,3,0.06291227100712384
3.87,0.00010714989329311098,79.85678720962173,0,60,3.0,3,0.05545381669698185
3.875,7.440535854020571e-05,79.56501303754825,0,60,3.0,3,0.04858854205995893
3.88,5.1260276743925106e-05,79.29858749169244,0,60,3.0,3,0.042319705686881044
3.885,3.503659887882241e-05,79.05720821119262,0,60,3.0,3,0.03664019320453215
3.89,2.375894748103639e-05,78.84019547384673,0,60,3.0,3,0.03153401114933491
3.895,1.5984413869232557e-05,78.64655780260682,0,60,3.0,3,0.026977830649572272
3.9,1.0669166579899869e-05,78.47505722994445,0,60,3.0,3,0.02294252305751657
3.905,7.06526633560511e-06,78.32427210957142,0,60,3.0,3,0.019394637872268812
3.91,4.641847214699205e-06,78.1926557579629,0,60,3.0,3,0.01629778254030344
3.915,3.025641074479182e-06,78.07858961988646,0,60,3.0,3,0.013613873409093123
3.92,1.9566278676921314e-06,77.9804300596609,0,60,3.0,3,0.01130423669790362
3.925,1.2553456560008793e-06,77.89654826378585,0,60,3.0,3,0.00933054738319637
3.93,7.990660428214668e-07,77.82536308579414,0,60,3.0,3,0.007655602018685586
3.935,5.046221251618276e-07,77.76536696008434,0,60,3.0,3,0.006243928472572607
3.94,3.1616527078858815e-07,77.71514525189316,0,60,3.0,3,0.005062241221015577
3.945,1.9652884407760343e-07,77.67338959331528,0,60,3.0,3,0.004079755136830072
3.95,1.2120002189836396e-07,77.6389058816922,0,60,3.0,3,0.0032683736868751993
3.955,7.415549848886236e-08,77.61061769088091,0,60,3.0,3,0.0026027691971979923
3.96,4.501406988770349e-08,77.58756587402519,0,60,3.0,3,0.0020603735064750094
3.965,0.0,77.56890512593462,0,60,3.0,3,0.0016212970808145897
3.97,0.0,77.55389823209191,0,60,3.0,3,0.0012681936962802437
3.975,0.0,77.54190866774556,0,60,3.0,3,0.0009860862998955192
3.98,0.0,77.5323921321391,0,60,3.0,3,0.000762167815037508
3.985,0.0,77.52488751651502,0,60,3.0,3,0.0005855886238828803
3.99,0.0,77.51900771591679,0,60,3.0,3,0.000447240374512603
3.995,0.0,77.51443060865897,0,60,3.0,3,0.00033954373315222094
4.0,0.0,77.51089044714392,0,60,3.0,3,0.0002562458151510996
4.005,0.0,77.50816983187276,0,60,3.0,3,0.0001922313381826638
4.01,0.0,77.50609237843871,0,60,3.0,3,0.0001433500809107901
4.015,0.0,77.5045161355761,0,60,3.0,3,0.00010626201355521784
4.02,0.0,77.50332777086618,0,60,3.0,3,7.830049096890649e-05
4.025,0.0,77.50243750887084,0,60,3.0,3,5.735314990214219e-05
4.03,0.0,77.50177478332647,0,60,3.0,3,4.175960768159658e-05
4.035,0.0,77.50128454942946,0,60,3.0,3,3.0224692457803778e-05
4.04,0.0,77.5009241929401,0,60,3.0,3,2.1745716237747354e-05
4.045,0.0,77.50066096858444,0,60,3.0,3,1.555220198684658e-05
4.05,0.0,77.50046989988111,0,60,3.0,3,1.1056467790842148e-05
4.055,0.0,77.50033207501247,0,60,3.0,3,7.813529705077491e-06
4.06,0.0,77.50023327779714,0,60,3.0,3,5.488889344379084e-06
4.065,0.0,77.50016289845264,0,60,3.0,3,3.832904768079756e-06
4.07,0.0,77.50011307506807,0,60,3.0,3,2.6605898369780333e-06
4.075,0.0,77.50007802308215,0,60,3.0,3,1.8358372271369958e-06
4.08,0.0,77.50005351625225,0,60,3.0,3,1.259205935318331e-06
4.085,0.001684486749771458,77.50003648838381,0,60,3.0,3,8.585502073669083e-07
4.09,0.003097557930867117,77.50002473032981,0,60,3.0,3,5.818901132335989e-07
4.095,0.005475106668887023,77.50001666140167,0,60,3.0,3,3.920329805516624e-07
4.1,0.00930222931468658,77.50001115833784,0,60,3.0,3,2.625491256768488e-07
4.105,0.01519157517868857,77.50000742837507,0,60,3.0,3,1.7478529577922873e-07
4.11,0.023847336626128316,77.50000491580317,0,60,3.0,3,1.156659570423311e-07
4.115,0.0359830743700859,77.50000323371316,0,60,3.0,3,7.608736843715579e-08
4.12,0.05218887796857759,77.50000211453485,0,60,3.0,3,4.975376120509121e-08
4.125,0.0727577001223134,77.50000137446773,0,60,3.0,3,3.234041715212002e-08
4.13,0.0974992498694751,77.50000088809739,0,60,3.0,3,2.0896409162506803e-08
4.135,0.12558706050443358,77.50000057041768,0,60,3.0,3,1.342159253801904e-08
4.14,0.15549263588878245,77.5000003641931,0,60,3.0,3,8.569249383286019e-09
4.145,0.1850529723539114,77.5000002311409,0,60,3.0,3,5.438609458210789e-09
4.15,0.21169159439317053,77.50000014582373,0,60,3.0,3,3.4311466713595164e-09
4.155,0.23277292922115492,77.50000009145047,0,60,3.0,3,2.1517758555359357e-09
4.16,0.24602692519491282,77.50000005700987,0,60,3.0,3,1.34140872004911e-09
4.165,0.24995056064839283,77.50000003532813,0,60,3.0,3,8.312500700840782e-10
4.17,0.24408826520424054,77.50000002176193,0,60,3.0,3,5.120455170981586e-10
4.175,0.22911894216865275,77.5000000133254,0,60,3.0,3,3.135389359907576e-10
4.18,0.20672661788705934,77.50000000811092,0,60,3.0,3,1.9084509136412047e-10
4.185,0.17928878030241233,77.50000000490756,0,60,3.0,3,1.1547205544689753e-10
4.19,0.14946211903866036,77.50000000295167,0,60,3.0,3,6.945095479108311e-11
4.195,0.1197651512573837,77.50000000176472,0,60,3.0,3,4.1522779985611766e-11
4.2,0.09224675744988023,77.50000000104879,0,60,3.0,3,2.467739999273737e-11
4.205,0.06829565320281596,77.50000000061961,0,60,3.0,3,1.4578999445588767e-11
4.21,0.04860224607515734,77.50000000036387,0,60,3.0,3,8.561621999594055e-12
4.215,0.03324612389699793,77.50000000021241,0,60,3.0,3,4.997874010073514e-12
4.22,0.021859876340472782,77.50000000012325,0,60,3.0,3,2.900017481057576e-12
4.225,0.01381595518554205,77.5000000000711,0,60,3.0,3,1.6728683797683677e-12
4.23,0.008394095110402422,77.50000000004077,0,60,3.0,3,9.593162865391658e-13
4.235,0.0049052535271608,77.50000000002323,0,60,3.0,3,5.466999402201241e-13
4.24,0.0027671663551903634,77.50000000001316,0,60,3.0,3,3.096294462653425e-13
4.245,0.0015425553464444616,77.50000000000742,0,60,3.0,3,1.7454273320789286e-13
4.25,0.0009638206637011801,77.50000000000415,0,60,3.0,3,9.763693121974082e-14
4.255,0.0009804935156568228,77.50000000000232,0,60,3.0,3,5.4502807495951216e-14
4.26,0.0018793744894085216,77.50000000000128,0,60,3.0,3,3.009357469101601e-14
4.265,0.004535525206900863,77.5000000000007,0,60,3.0,3,1.6384279553997603e-14
4.27,0.010832767979632273,77.50000000000038,0,60,3.0,3,9.028072407304802e-15
4.275,0.024208003392322392,77.50000000000021,0,60,3.0,3,5.015595781836002e-15
4.28,0.0500971897335304,77.50000000000011,0,60,3.0,3,2.6749844169792007e-15
4.285,0.09582894921774403,77.50000000000006,0,60,3.0,3,1.3374922084896003e-15
4.29,0.16937896721820658,77.50000000000003,0,60,3.0,3,6.687461042448002e-16
4.295,0.27661303008991756,77.50000000000001,0,60,3.0,3,3.343730521224001e-16
4.3,0.4173782800009149,77.50000000000001,0,60,3.0,3,3.343730521224001e-16
4.305,0.5818720934538056,77.5,0,60,3.0,3,0.0
4.31,0.7494718801585675,77.5,0,60,3.0,3,0.0
4.315,0.891813020752378,77.5,0,60,3.0,3,0.0
4.32,0.9800361632936612,77.5,0,60,3.0,3,0.0
4.325,0.993574479225126,77.50000249379623,1,60,3.0,3,5.8677558372972485e-08
4.33,0.9263438449375362,77.50000391718795,0,60,3.0,3,9.216912831909533e-08
4.335,0.7873015962290536,77.50000630150961,0,60,3.0,3,1.4827081446021431e-07
4.34,0.5959516244629897,77.5000105140369,0,60,3.0,3,2.473891035659857e-07
4.345,0.376910120078773,77.50001840698704,0,60,3.0,3,4.331055773785492e-07
4.35,0.15739335672107918,77.50003400964872,0,60,3.0,3,8.002270285888859e-07
4.355,-0.033361226269301235,77.50006609644886,0,60,3.0,3,1.5552105614514243e-06
4.36,-0.1680180840843834,77.50013356232397,0,60,3.0,3,3.1426429168678785e-06
4.365,-0.23069703190837854,77.50027632336332,0,60,3.0,3,6.501726195839343e-06
4.37,-0.22587267821131068,77.50057668790406,0,60,3.0,3,1.3569127154302324e-05
4.375,-0.17718181630665902,77.50119979487688,0,60,3.0,3,2.8230467691347417e-05
4.38,-0.11494332516451301,77.50246734685948,0,60,3.0,3,5.80552202229549e-05
4.385,-0.061810214049552864,77.50498694254254,0,60,3.0,3,0.00011733982453045107
4.39,-0.026546104631500547,77.50986989510379,0,60,3.0,3,0.00023223282597153712
4.395,-0.00719600351942686,77.51908262989394,0,60,3.0,3,0.00044900305632809785
4.4,0.0022072757983807078,77.53598806050526,0,60,3.0,3,0.0008467778942414337
4.405,0.006917199873730717,77.5661388335815,0,60,3.0,3,0.0015562078489765822
4.41,0.01004859748264829,77.61837627811394,0,60,3.0,3,0.0027853241909162854
4.415,0.013037082251128167,77.70625715723415,0,60,3.0,3,0.004853109581979959
4.42,0.01645163937690478,77.84976424958334,0,60,3.0,3,0.008229747049019874
4.425,0.020526639934696615,78.07714907313756,0,60,3.0,3,0.01357997819147205
4.43,0.02539629541761738,78.42660746482035,0,60,3.0,3,0.021802528584008236
4.435,0.031171612185577933,78.94731857168912,0,60,3.0,3,0.034054554627979385
4.44,0.03795853426638131,79.69922288771569,0,60,3.0,3,0.05174642088742804
4.445,0.0458588961882057,80.75083343091529,0,60,3.0,3,0.07649019837447749
4.45,0.054966995891435555,82.17443594424168,0,60,3.0,3,0.10998672809980423
4.455,0.06536491004445595,84.03830214667643,0,60,3.0,3,0.15384240345121009
4.46,0.07711726085088699,86.39604373737505,0,60,3.0,3,0.20931867617353064
4.465,0.09026570629555215,89.2739411348602,0,60,3.0,3,0.277033909055534
4.47,0.10482339848670268,92.6578763804036,0,60,3.0,3,0.3566559148330257
4.475,0.12076968927580028,96.48219417074539,0,60,3.0,3,0.44663986284106794
4.48,0.13804539501007884,100.62317626104648,0,60,3.0,3,0.5440747355540348
4.485,0.15654895051787066,104.89963122754831,0,60,3.0,3,0.6446972053540779
4.49,0.17613378141900526,109.08226138097591,0,60,3.0,3,0.7431120324935507
4.495,0.19660720058055794,112.91202435562403,0,60,3.0,3,0.8332241024852712
4.5,0.21773108748496234,116.12590285572924,0,60,3.0,3,0.908844773075982
4.505,0.23922453870058807,118.48673321912287,0,60,3.0,3,0.964393722802891
4.51,0.2607685857914563,119.81248326881075,0,60,3.0,3,0.9955878416190765
4.515,0.2820129681603682,120.0,0,60,3.0,3,1.0
4.52,0.30258482867153996,119.03895265764984,0,60,3.0,3,0.9773871213564669
4.525,0.3220990771751686,117.01338144972989,0,60,3.0,3,0.9297266223465857
4.53,0.3401700499968971,114.09055937282247,0,60,3.0,3,0.8609543381840581
4.535,0.3564239911198326,110.49924173293033,0,60,3.0,3,0.7764527466571842
4.54,0.3705118017738417,106.501252019056,0,60,3.0,3,0.6823824004483764
4.545,0.3821214567925213,102.3613128393379,0,60,3.0,3,0.5849720668079506
4.55,0.39098947374066967,98.31991189297068,0,60,3.0,3,0.48988027983460425
4.555,0.3969108472035567,94.57291708101874,0,60,3.0,3,0.40171569602397045
4.56,0.3997469255491936,91.2599713216292,0,60,3.0,3,0.3237640310971575
4.565,0.3994308076379137,88.46186297981151,0,60,3.0,3,0.25792618776027093
4.57,0.3959699661768434,86.2055083156022,0,60,3.0,3,0.20483548977887533
4.575,0.38944595408114946,84.47418553637537,0,60,3.0,3,0.1640984832088323
4.58,0.38001120995358023,83.22032439628626,0,60,3.0,3,0.13459586814791197
4.585,0.3678831374098315,82.3784030507939,0,60,3.0,3,0.11478595413632721
4.59,0.35333577933796634,81.87614033165356,0,60,3.0,3,0.10296800780361316
4.595,0.33668953221163944,81.6429627878982,0,60,3.0,3,0.09748147736231057
4.6,0.3182994390982644,81.61546715457652,0,60,3.0,3,0.09683452128415344
4.605,0.29854265738230645,81.74015709851017,0,60,3.0,3,0.09976840231788628
4.61,0.2778057157821067,81.9740569196691,0,60,3.0,3,0.10527192752162577
4.615,0.2564721553719815,82.28391103867587,0,60,3.0,3,0.1125626126747263
4.62,0.23491109433464996,82.64462413530069,0,60,3.0,3,0.12104997965413385
4.625,0.21346717185309805,83.03745309290495,0,60,3.0,3,0.1302930139507048
4.63,0.19245222055656455,83.4482905955028,0,60,3.0,3,0.13995977871771287
4.635,0.17213889801761392,83.86622429212309,0,60,3.0,3,0.14979351275583747
4.64,0.15275638501270183,84.28243683268946,0,60,3.0,3,0.1595867490044578
4.645,0.13448814019607322,84.68943573432038,0,60,3.0,3,0.1691631937487149
4.65,0.11747159495449566,85.08056227854561,0,60,3.0,3,0.1783661712598968
4.655,0.10179958433370105,85.44971522709557,0,60,3.0,3,0.18705212299048393
4.66,0.08752324394101413,85.79122761200028,0,60,3.0,3,0.19508770851765375
4.665,0.07465606047174059,86.09984484761954,0,60,3.0,3,0.2023492905322244
4.67,0.0631787448609295,86.37076438636134,0,60,3.0,3,0.20872386791438458
4.675,0.05304460019959574,86.59970808382359,0,60,3.0,3,0.2141107784429079
4.68,0.044185078305849994,86.7830071632666,0,60,3.0,3,0.2184236979592142
4.685,0.03651525513023255,86.91768606859858,0,60,3.0,3,0.22159261337879022
4.69,0.0299390014708757,87.00153597091433,0,60,3.0,3,0.22356555225680783
4.695,0.024353677220580638,87.03317178450779,0,60,3.0,3,0.22430992434135968
4.7,0.01965423034339045,87.01206873798577,0,60,3.0,3,0.22381338207025345
4.705,0.015736632374757337,86.938576193165,0,60,3.0,3,0.22208414572152954
4.71,0.012500627640593535,86.81390773863106,0,60,3.0,3,0.2191507703207308
4.715,0.009851811652115898,86.64010773261553,0,60,3.0,3,0.21506135841448312
4.72,0.007703084175428559,86.41999548610957,0,60,3.0,3,0.2098822467319899
4.725,0.005975544002062424,86.15708917317427,0,60,3.0,3,0.2036962158393946
4.73,0.004598905818663047,85.85551231983004,0,60,3.0,3,0.1966002898783539
4.735,0.0035115256454839104,85.5198863357969,0,60,3.0,3,0.18870320790110348
4.74,0.002660121266303676,85.15521299527994,0,60,3.0,3,0.18012265871246916
4.745,0.0019992692560877024,84.76675103026113,0,60,3.0,3,0.17098237718261491
4.75,0.0014907520044639367,84.35989106720938,0,60,3.0,3,0.16140920158139707
4.755,0.0011028178277539807,83.94003302017312,0,60,3.0,3,0.15153018870995572
4.76,0.0008094059938923333,83.51246976372725,0,60,3.0,3,0.14146987679358242
4.765,0.0005893771793717645,83.082280470485,0,60,3.0,3,0.13134777577611773
4.77,0.0004257792353490551,82.65423643892917,0,60,3.0,3,0.12127615150421588
4.775,0.0003051686392901525,82.23272159200907,0,60,3.0,3,0.11135815510609579
4.78,0.00021699992642659966,81.8216691316493,0,60,3.0,3,0.10168633250939532
4.785,0.00015308884054097838,81.4245151256355,0,60,3.0,3,0.09234153236789398
4.79,0.00010714989329311098,81.0441691159847,0,60,3.0,3,0.08339221449375767
4.795,7.440535854020571e-05,80.683001202808,0,60,3.0,3,0.07489414594842354
4.8,5.1260276743925106e-05,80.34284450049499,0,60,3.0,3,0.06689045883517625
4.805,3.503659887882241e-05,80.02501140315086,0,60,3.0,3,0.05941203301531426
4.81,2.375894748103639e-05,79.73032174609531,0,60,3.0,3,0.052478158731654435
4.815,1.5984413869232557e-05,79.4591407154507,0,60,3.0,3,0.04609742859884002
4.82,1.0669166579899869e-05,79.21142423740287,0,60,3.0,4,0.04026880558594979
4.825,7.06526633560511e-06,78.9867695657814,0,60,3.0,4,0.03498281331250355
4.83,4.641847214699205e-06,78.78446886954399,0,60,3.0,4,0.030222796930446723
4.835,3.025641074479182e-06,78.60356378533176,0,60,3.0,4,0.025966206713688426
4.84,1.9566278676921314e-06,78.44289912695085,0,60,3.0,4,0.022185861810608203
4.845,1.2553456560008793e-06,78.30117421486159,0,60,3.0,4,0.018851157996743282
4.85,7.990660428214668e-07,78.17699058609722,0,60,3.0,4,0.015929190261111028
4.855,5.046221251618276e-07,78.0688951512295,0,60,3.0,4,0.013385768264223476
4.86,3.1616527078858815e-07,77.97541816475811,0,60,3.0,4,0.011186309759014367
4.865,1.9652884407760343e-07,77.89510565587798,0,60,3.0,4,0.00929660366771727
4.87,1.2120002189836396e-07,77.82654621810562,0,60,3.0,4,0.007683440426014573
4.875,7.415549848886236e-08,77.7683922718456,0,60,3.0,4,0.006315112278719974
4.88,4.501406988770349e-08,77.71937608967772,0,60,3.0,4,0.0051617903453582
4.885,0.0,77.67832100862636,0,60,3.0,4,0.00419578843826718
4.89,0.0,77.64414834790306,0,60,3.0,4,0.0033917258330130634
4.895,0.0,77.61588060740796,0,60,3.0,4,0.0027266025272461
4.9,0.0,77.59264154581128,0,60,3.0,4,0.0021798010779123696
4.905,0.0,77.57365373238999,0,60,3.0,4,0.0017330289974114186
4.91,0.0,77.55823413948939,0,60,3.0,4,0.0013702150468090808
4.915,0.0,77.54578829810711,0,60,3.0,4,0.0010773717201673476
4.92,0.0,77.53580348299825,0,60,3.0,4,0.0008424348940764048
4.925,0.0,77.52784133072689,0,60,3.0,4,0.0006550901347502665
4.93,0.0,77.5215302284374,0,60,3.0,4,0.0005065936102917422
4.935,0.0,77.51655774624525,0,60,3.0,4,0.00038959402930010905
4.94,0.0,77.51266332472912,0,60,3.0,4,0.00029796058186160306
4.945,0.0,77.50963137297701,0,60,3.0,4,0.0002266205406355686
4.95,0.0,77.50728488323819,0,60,3.0,4,0.00017140901736906124
4.955,0.0,77.50547962610095,0,60,3.0,4,0.00012893237884588202
4.96,0.0,77.5040989553958,0,60,3.0,4,9.644600931303959e-05
4.965,0.0,77.50304922446462,0,60,3.0,4,7.174645799101894e-05
4.97,0.0,77.50225579450853,0,60,3.0,4,5.3077517847722284e-05
4.975,0.0,77.50165960070633,0,60,3.0,4,3.904942838430008e-05
4.98,0.0,77.50121423185787,0,60,3.0,4,2.8570161361706006e-05
4.985,0.0,77.50088347359097,0,60,3.0,4,2.0787613905280096e-05
4.99,0.0,77.50063926283588,0,60,3.0,4,1.5041478491184535e-05
4.995,0.0,77.5004600015325,0,60,3.0,4,1.0823565470646452e-05
5.0,0.0,77.5003291796934,0,60,3.0,4,7.745404550472385e-06
5.005,0.0,77.50023426139796,0,60,3.0,4,5.512032893260339e-06
5.01,0.0,77.50016579153834,0,60,3.0,4,3.900977372615992e-06
5.015,0.0,77.50011668577856,0,60,3.0,4,2.7455477309371525e-06
5.02,0.0,77.50008167091697,0,60,3.0,4,1.921668634582495e-06
5.025,0.0,77.5000568474347,0,60,3.0,4,1.3375866989703996e-06
5.03,0.0,77.50003935031812,0,60,3.0,4,9.258898380855552e-07
5.035,0.0,77.50002708816338,0,60,3.0,4,6.373685500741832e-07
5.04,0.001684486749771458,77.50001854405937,0,60,3.0,4,4.3633080876508543e-07
5.045,0.003097557930867117,77.50001262478511,0,60,3.0,4,2.970537673932353e-07
5.05,0.005475106668887023,77.50000854746077,0,60,3.0,4,2.0111672390211263e-07
5.055,0.00930222931468658,77.50000575498471,0,60,3.0,4,1.3541140500659395e-07
5.06,0.01519157517868857,77.50000385340955,0,60,3.0,4,9.066846005493169e-08
5.065,0.023847336626128316,77.50000256590221,0,60,3.0,4,6.037416958005291e-08
5.07,0.0359830743700859,77.50000169913923,0,60,3.0,4,3.997974665574421e-08
5.075,0.05218887796857759,77.50000111895281,0,60,3.0,4,2.6328301400473507e-08
5.08,0.0727577001223134,77.50000073280515,0,60,3.0,4,1.724247407336781e-08
5.085,0.0974992498694751,77.50000047726456,0,60,3.0,4,1.1229754443989162e-08
5.09,0.12558706050443358,77.50000030911765,0,60,3.0,4,7.273356526210966e-09
5.095,0.15549263588878245,77.50000019910509,0,60,3.0,4,4.68482559935022e-09
5.1,0.1850529723539114,77.5000001275366,0,60,3.0,4,3.0008610498471708e-09
5.105,0.21169159439317053,77.50000008124212,0,60,3.0,4,1.9115793079168616e-09
5.11,0.23277292922115492,77.50000005146615,0,60,3.0,4,1.2109681205509012e-09
5.115,0.24602692519491282,77.5000000324232,0,60,3.0,4,7.628988682614256e-10
5.12,0.24995056064839283,77.50000002031346,0,60,3.0,4,4.779638750144787e-10
5.125,0.24408826520424054,77.50000001265629,0,60,3.0,4,2.9779498083157436e-10
5.13,0.22911894216865275,77.50000000784192,0,60,3.0,4,1.8451574386049555e-10
5.135,0.20672661788705934,77.50000000483206,0,60,3.0,4,1.1369553142097122e-10
5.14,0.17928878030241233,77.50000000296099,0,60,3.0,4,6.967030351327541e-11
5.145,0.14946211903866036,77.50000000180441,0,60,3.0,4,4.245668392018963e-11
5.15,0.1197651512573837,77.50000000109351,0,60,3.0,4,2.5729671987766563e-11
5.155,0.09224675744988023,77.50000000065904,0,60,3.0,4,1.5506884665228427e-11
5.16,0.06829565320281596,77.50000000039499,0,60,3.0,4,9.29389898374211e-12
5.165,0.04860224607515734,77.50000000023543,0,60,3.0,4,5.539558354511802e-12
5.17,0.03324612389699793,77.50000000013955,0,60,3.0,4,3.283543371841969e-12
5.175,0.021859876340472782,77.50000000008227,0,60,3.0,4,1.935685598736574e-12
5.18,0.01381595518554205,77.50000000004822,0,60,3.0,4,1.1345277658513034e-12
5.185,0.008394095110402422,77.50000000002811,0,60,3.0,4,6.613898970981073e-13
5.19,0.0049052535271608,77.5000000000163,0,60,3.0,4,3.835258907843929e-13
5.195,0.0027671663551903634,77.5000000000094,0,60,3.0,4,2.2102058745290646e-13
5.2,0.0015425553464444616,77.50000000000539,0,60,3.0,4,1.2672738675438964e-13
5.205,0.0009638206637011801,77.50000000000307,0,60,3.0,4,7.222457925843841e-14
5.21,0.0009804935156568228,77.50000000000175,0,60,3.0,4,4.112788541105521e-14
5.215,0.0018793744894085216,77.50000000000098,0,60,3.0,4,2.3071740596445606e-14
5.22,0.004535525206900863,77.50000000000055,0,60,3.0,4,1.3040549032773603e-14
5.225,0.010832767979632273,77.50000000000031,0,60,3.0,4,7.356207146692803e-15
5.23,0.024208003392322392,77.50000000000017,0,60,3.0,4,4.012476625468801e-15
5.235,0.0500971897335304,77.5000000000001,0,60,3.0,4,2.3406113648568006e-15
5.24,0.09582894921774403,77.50000000000006,0,60,3.0,4,1.3374922084896003e-15
5.245,0.16937896721820658,77.50000000000003,0,60,3.0,4,6.687461042448002e-16
5.25,0.27661303008991756,77.50000000000001,0,60,3.0,4,3.343730521224001e-16
5.255,0.4173782800009149,77.50000000000001,0,60,3.0,4,3.343730521224001e-16
5.26,0.5818720934538056,77.5,0,60,3.0,4,0.0
5.265,0.7494718801585675,77.5,0,60,3.0,4,0.0
5.27,0.891813020752378,77.5,0,60,3.0,4,0.0
5.275,0.9800361632936612,77.5,0,60,3.0,4,0.0
5.28,0.993574479225126,77.50000249158927,1,60,3.0,4,5.8625629903604824e-08
5.285,0.9263438449375362,77.50000379993156,0,60,3.0,4,8.941015440701877e-08
5.29,0.7873015962290536,77.50000591356006,0,60,3.0,4,1.3914258963321865e-07
5.295,0.5959516244629897,77.50000948821413,0,60,3.0,4,2.232520972377054e-07
5.3,0.376910120078773,77.50001585275675,0,60,3.0,4,3.730060410923804e-07
5.305,0.15739335672107918,77.50002775258693,0,60,3.0,4,6.530020454299708e-07
5.31,-0.033361226269301235,77.50005088320476,0,60,3.0,4,1.1972518768074865e-06
5.315,-0.1680180840843834,77.50009697753961,0,60,3.0,4,2.2818244614801885e-06
5.32,-0.23069703190837854,77.50018985514251,0,60,3.0,4,4.4671798237312244e-06
5.325,-0.22587267821131068,77.50037693597443,0,60,3.0,4,8.86908175128637e-06
5.33,-0.17718181630665902,77.5007504971461,0,60,3.0,4,1.7658756378830946e-05
5.335,-0.11494332516451301,77.50148568815435,0,60,3.0,4,3.495736833756649e-05
5.34,-0.061810214049552864,77.5029063011008,0,60,3.0,4,6.838355531278787e-05
5.345,-0.026546104631500547,77.50559469328022,0,60,3.0,4,0.0001316398418874301
5.35,-0.00719600351942686,77.51056896157553,0,60,3.0,4,0.00024868144883598953
5.355,0.0022072757983807078,77.51955777873579,0,60,3.0,4,0.00046018302907735713
5.36,0.006917199873730717,77.53540961162948,0,60,3.0,4,0.0008331673324582479
5.365,0.01004859748264829,77.56267550080591,0,60,3.0,4,0.0014747176660213936
5.37,0.013037082251128167,77.60839895060144,0,60,3.0,4,0.0025505635435633047
5.375,0.01645163937690478,77.68312739222574,0,60,3.0,4,0.004308879817076291
5.38,0.020526639934696615,77.80212156747965,0,60,3.0,4,0.007108742764226944
5.385,0.02539629541761738,77.98667804053113,0,60,3.0,4,0.011451248012497217
5.39,0.031171612185577933,78.2653960540608,0,60,3.0,4,0.018009318919077675
5.395,0.03795853426638131,78.67512045415272,0,60,3.0,4,0.0276498930388875
5.4,0.0458588961882057,79.26119444970924,0,60,3.0,4,0.04143986940492322
5.405,0.054966995891435555,80.07658695093733,0,60,3.0,4,0.060625575316172374
5.41,0.06536491004445595,81.17945433275491,0,60,3.0,4,0.08657539606482152
5.415,0.07711726085088699,82.62879178438199,0,60,3.0,4,0.12067745375016443
5.42,0.09026570629555215,84.47805091356526,0,60,3.0,4,0.16418943326035895
5.425,0.10482339848670268,86.76695055985479,0,60,3.0,4,0.2180458955259951
5.43,0.12076968927580028,89.51215426574176,0,60,3.0,4,0.28263892389980605
5.435,0.13804539501007884,92.69795756330784,0,60,3.0,4,0.35759900148959617
5.44,0.15654895051787066,96.26851367759303,0,60,3.0,4,0.44161208653160083
5.445,0.17613378141900526,100.12330495994888,0,60,3.0,4,0.5323130578811501
5.45,0.19660720058055794,104.11743307542135,0,60,3.0,4,0.6262925429510905
5.455,0.21773108748496234,108.0677995687299,0,60,3.0,4,0.7192423427936446
5.46,0.23922453870058807,111.76540786080702,0,60,3.0,4,0.806244890842518
5.465,0.2607685857914563,114.99296001198383,0,60,3.0,4,0.8821872943996194
5.47,0.2820129681603682,117.54584870617109,0,60,3.0,4,0.9422552636746138
5.475,0.30258482867153996,119.2537975193284,0,60,3.0,4,0.9824422945724329
5.48,0.3220990771751686,120.0,0,60,3.0,4,1.0
5.485,0.3401700499968971,119.73478616852705,0,60,3.0,4,0.9937596745535777
5.49,0.3564239911198326,118.48161074436288,0,60,3.0,4,0.964273193985009
5.495,0.3705118017738417,116.33437700317083,0,60,3.0,4,0.9137500471334312
5.5,0.3821214567925213,113.44653664567393,0,60,3.0,4,0.8458008622511513
5.505,0.39098947374066967,110.0137397798626,0,60,3.0,4,0.7650291712908848
5.51,0.3969108472035567,106.25277411123389,0,60,3.0,4,0.6765358614407975
5.515,0.3997469255491936,102.379945660435,0,60,3.0,4,0.5854104861278823
5.52,0.3994308076379137,98.59186644889243,0,60,3.0,4,0.4962792105621749
5.525,0.3959699661768434,95.05091722544557,0,60,3.0,4,0.4129627582457782
5.53,0.38944595408114946,91.87663925411117,0,60,3.0,4,0.33827386480261573
5.535,0.38001120995358023,89.14321850764775,0,60,3.0,4,0.2739580825328881
5.54,0.3678831374098315,86.88228150405848,0,60,3.0,4,0.22075956480137607
5.545,0.35333577933796634,85.08958077085171,0,60,3.0,4,0.1785783710788638
5.55,0.33668953221163944,83.73387384780025,0,60,3.0,4,0.1466793846541236
5.555,0.3182994390982644,82.76636774511343,0,60,3.0,4,0.12391453517913947
5.56,0.29854265738230645,82.12942061521238,0,60,3.0,4,0.10892754388735017
5.565,0.2778057157821067,81.76364371168687,0,60,3.0,4,0.10032102851027924
5.57,0.2564721553719815,81.61301314306044,0,60,3.0,4,0.09677677983671629
5.575,0.23491109433464996,81.62799466338542,0,60,3.0,4,0.09712928619730406
5.58,0.21346717185309805,81.76695761370226,0,60,3.0,4,0.10039900267534729
5.585,0.19245222055656455,81.99629623494059,0,60,3.0,4,0.10579520552801382
5.59,0.17213889801761392,82.28970640800449,0,60,3.0,4,0.11269897430598803
5.595,0.15275638501270183,82.62701710307833,0,60,3.0,4,0.12063569654301953
5.6,0.13448814019607322,82.99288504130256,0,60,3.0,4,0.12924435391300135
5.605,0.11747159495449566,83.37555924692441,0,60,3.0,4,0.13824845286880966
5.61,0.10179958433370105,83.76583043233612,0,60,3.0,4,0.14743130429026158
5.615,0.08752324394101413,84.15620940218066,0,60,3.0,4,0.15661669181601562
5.62,0.07465606047174059,84.54033150564439,0,60,3.0,4,0.16565485895633855
5.625,0.0631787448609295,84.91255790226458,0,60,3.0,4,0.1744131271121078
5.63,0.05304460019959574,85.26773383409369,0,60,3.0,4,0.182770207861028
5.635,0.044185078305849994,85.60106363445495,0,60,3.0,4,0.19061326198717518
5.64,0.03651525513023255,85.90806713082313,0,60,3.0,4,0.19783687366642652
5.645,0.0299390014708757,86.18458904516632,0,60,3.0,4,0.2043432716509722
5.65,0.024353677220580638,86.42683991565524,0,60,3.0,4,0.21004329213306439
5.655,0.01965423034339045,86.63145296320879,0,60,3.0,4,0.2148577167813832
5.66,0.015736632374757337,86.79554590696114,0,60,3.0,4,0.218718727222615
5.665,0.012500627640593535,86.91678008455858,0,60,3.0,4,0.22157129610726076
5.67,0.009851811652115898,86.9934116100258,0,60,3.0,4,0.22337439082413652
5.675,0.007703084175428559,87.0243309843258,0,60,3.0,4,0.22410190551354825
5.68,0.005975544002062424,87.00908880101858,0,60,3.0,4,0.2237432659063195
5.685,0.004598905818663047,86.94790613701386,0,60,3.0,4,0.22230367381209082
5.69,0.0035115256454839104,86.84166899981275,0,60,3.0,4,0.21980397646618244
5.695,0.002660121266303676,86.6919068819151,0,60,3.0,4,0.21628016192741417
5.7,0.0019992692560877024,86.50075607951777,0,60,3.0,4,0.21178249598865342
5.705,0.0014907520044639367,86.27090897359844,0,60,3.0,4,0.20637432879055148
5.71,0.0011028178277539807,86.00555094222749,0,60,3.0,4,0.20013061040535263
5.715,0.0008094059938923333,85.7082869635257,0,60,3.0,4,0.19313616384766338
5.72,0.0005893771793717645,85.38306026845892,0,60,3.0,4,0.1854837710225628
5.725,0.0004257792353490551,85.03406560313258,0,60,3.0,4,0.17727213183841353
5.73,0.0003051686392901525,84.66565975665422,0,60,3.0,4,0.16860375898009933
5.735,0.00021699992642659966,84.2822720027081,0,60,3.0,4,0.15958287065195523
5.74,0.00015308884054097838,83.88831699514871,0,60,3.0,4,0.15031334106232266
5.745,0.00010714989329311098,83.48811245900696,0,60,3.0,4,0.14089676374134014
5.75,7.440535854020571e-05,83.0858037409954,0,60,3.0,4,0.13143067625871535
5.755,5.1260276743925106e-05,82.68529694362411,0,60,3.0,4,0.12200698690880259
5.76,3.503659887882241e-05,82.29020198220566,0,60,3.0,4,0.11271063487542726
5.765,2.375894748103639e-05,81.90378649321408,0,60,3.0,4,0.10361850572268436
5.77,1.5984413869232557e-05,81.52894110457248,0,60,3.0,4,0.09479861422523486
5.775,1.0669166579899869e-05,81.16815617144748,0,60,3.0,4,0.08630955697523478
5.78,7.06526633560511e-06,80.82350970120721,0,60,3.0,4,0.07820022826369917
5.785,4.641847214699205e-06,80.49666585205212,0,60,3.0,4,0.07050978475416748
5.79,3.025641074479182e-06,80.18888310217035,0,60,3.0,4,0.06326783769812591
5.795,1.9566278676921314e-06,79.90103095754084,0,60,3.0,4,0.05649484605978447
5.8,1.2553456560008793e-06,79.63361390077021,0,60,3.0,4,0.05020268001812269
5.805,7.990660428214668e-07,79.38680118140502,0,60,3.0,4,0.04439532191541221
5.81,5.046221251618276e-07,79.16046100780952,0,60,3.0,4,0.03906967077198862
5.815,3.1616527078858815e-07,78.95419771716094,0,60,3.0,4,0.034216416874375
5.82,1.9652884407760343e-07,78.76739056652946,0,60,3.0,4,0.029820954506575455
5.825,1.2120002189836396e-07,78.59923289601649,0,60,3.0,4,0.02586430343568208
5.83,7.415549848886236e-08,78.44877055523571,0,60,3.0,4,0.022324013064369676
5.835,4.501406988770349e-08,78.31493864740304,0,60,3.0,4,0.019175026997718572
5.84,0.0,78.19659582148978,0,60,3.0,4,0.01639048991740658
5.845,0.0,78.09255552344018,0,60,3.0,4,0.013942482904474886
5.85,0.0,78.00161379448677,0,60,3.0,4,0.011802677517335818
5.855,0.0,77.92257337147358,0,60,3.0,4,0.009942902858201772
5.86,0.0,77.85426399556034,0,60,3.0,4,0.00833562342494929
5.865,0.0,77.79555896792559,0,60,3.0,4,0.006954328657072625
5.87,0.0,77.74538810172116,0,60,3.0,4,0.005773837687556739
5.875,0.0,77.70274730749595,0,60,3.0,4,0.004770524882257753
5.88,0.0,77.66670511470362,0,60,3.0,4,0.003922473287143943
5.885,0.0,77.63640647582612,0,60,3.0,4,0.003209564137085194
5.89,0.0,77.61107422393171,0,60,3.0,4,0.002613511151334331
5.895,0.0,77.59000856154358,0,60,3.0,4,0.0021178485069078628
5.9,0.0,77.57258495126403,0,60,3.0,4,0.0017078812062125588
5.905,0.0,77.55825075956768,0,60,3.0,4,0.001370606107474928
5.91,0.0,77.54652097741523,0,60,3.0,4,0.001094611233299461
5.915,0.0,77.53697330756953,0,60,3.0,4,0.0008699601781064731
5.92,0.0,77.52924287118194,0,60,3.0,4,0.000688067557222011
5.925,0.0,77.52301674750609,0,60,3.0,4,0.0005415705295550812
5.93,0.0,77.51802852227003,0,60,3.0,4,0.00042420052400068606
5.935,0.0,77.51405298370467,0,60,3.0,4,0.00033065844010994784
5.94,0.0,77.51090107153125,0,60,3.0,4,0.00025649580073531175
5.945,0.0,77.50841515405568,0,60,3.0,4,0.00019800362483960379
5.95,0.0,77.50646468230802,0,60,3.0,4,0.00015211017195343522
5.955,0.0,77.50494224804716,0,60,3.0,4,0.00011628818934488716
5.96,0.0,77.50376005436644,0,60,3.0,4,8.847186744560531e-05
5.965,0.0,77.50284679336629,0,60,3.0,4,6.698337332442647e-05
5.97,0.0,77.50214491457672,0,60,3.0,4,5.046857827571383e-05
5.975,0.0,77.50160826011297,0,60,3.0,4,3.7841414422914834e-05
5.98,0.0,77.50120003749603,0,60,3.0,4,2.823617637726356e-05
5.985,0.0,77.50089109821971,0,60,3.0,4,2.0967016934371393e-05
5.99,0.0,77.50065848907005,0,60,3.0,4,1.5493860471719124e-05
5.995,0.0,77.50048424350034,0,60,3.0,4,1.1393964713841556e-05
6.0,0.0,77.5003543816815,0,60,3.0,4,8.338392505974673e-06
6.005,0.0,77.5002580898728,0,60,3.0,4,6.072702889442178e-06
6.01,0.0,77.50018705223314,0,60,3.0,4,4.401229015162672e-06
6.015,0.0,77.50013491090827,0,60,3.0,4,3.1743743122928316e-06
6.02,0.0,77.5000968330184,0,60,3.0,4,2.2784239624396672e-06
6.025,0.0,77.50006916591201,0,60,3.0,5,1.627433223749155e-06
6.03,0.0,77.50004916465329,0,60,3.0,5,1.1568153715469474e-06
6.035,0.0,77.50003477811896,0,60,3.0,5,8.183086813861497e-07
6.04,0.0,77.50002448225581,0,60,3.0,5,5.760530778870281e-07
6.045,0.0,77.5000171509827,0,60,3.0,5,4.035525341136878e-07
6.05,0.0,77.50001195690616,0,60,3.0,5,2.81338968561078e-07
6.055,0.0,77.50000829546754,0,60,3.0,5,1.9518747147712395e-07
6.06,0.001684486749771458,77.5000057273688,0,60,3.0,5,1.3476161885752363e-07
6.065,0.003097557930867117,77.5000039351534,0,60,3.0,5,9.259184473782678e-08
6.07,0.005475106668887023,77.50000269066989,0,60,3.0,5,6.33098797125593e-08
6.075,0.00930222931468658,77.50000183084427,0,60,3.0,5,4.3078688684224345e-08
6.08,0.01519157517868857,77.50000123975146,0,60,3.0,5,2.917062247701431e-08
6.085,0.023847336626128316,77.50000083543003,0,60,3.0,5,1.96571771566061e-08
6.09,0.0359830743700859,77.50000056024471,0,60,3.0,5,1.3182228579299751e-08
6.095,0.05218887796857759,77.5000003738847,0,60,3.0,5,8.797287123610765e-09
6.1,0.0727577001223134,77.50000024830751,0,60,3.0,5,5.8425297645632836e-09
6.105,0.0974992498694751,77.5000001641097,0,60,3.0,5,3.861404539908536e-09
6.11,0.12558706050443358,77.50000010793714,0,60,3.0,5,2.53969741446353e-09
6.115,0.15549263588878245,77.50000007064799,0,60,3.0,5,1.662305535051821e-09
6.12,0.1850529723539114,77.50000004601726,0,60,3.0,5,1.082759126802557e-09
6.125,0.21169159439317053,77.50000002982868,0,60,3.0,5,7.018513770162827e-10
6.13,0.23277292922115492,77.50000001924154,0,60,3.0,5,4.5274211569288607e-10
6.135,0.24602692519491282,77.500000012352,0,60,3.0,5,2.906353850395295e-10
6.14,0.24995056064839283,77.50000000789092,0,60,3.0,5,1.856686621442136e-10
6.145,0.24408826520424054,77.5000000050166,0,60,3.0,5,1.180376998758327e-10
6.15,0.22911894216865275,77.50000000317384,0,60,3.0,5,7.467854308796471e-11
6.155,0.20672661788705934,77.50000000199826,0,60,3.0,5,4.701786672419129e-11
6.16,0.17928878030241233,77.50000000125202,0,60,3.0,5,2.9459269011139815e-11
6.165,0.14946211903866036,77.50000000078066,0,60,3.0,5,1.8368449245291926e-11
6.17,0.1197651512573837,77.5000000004844,0,60,3.0,5,1.1397774227696251e-11
6.175,0.09224675744988023,77.50000000029911,0,60,3.0,5,7.037884001072277e-12
6.18,0.06829565320281596,77.5000000001838,0,60,3.0,5,4.3247810561511225e-12
6.185,0.04860224607515734,77.50000000011241,0,60,3.0,5,2.6448908422881848e-12
6.19,0.03324612389699793,77.50000000006841,0,60,3.0,5,1.609671872917234e-12
6.195,0.021859876340472782,77.50000000004142,0,60,3.0,5,9.746974469367963e-13
6.2,0.01381595518554205,77.50000000002497,0,60,3.0,5,5.87493452579057e-13
6.205,0.008394095110402422,77.50000000001498,0,60,3.0,5,3.524291969370097e-13
6.21,0.0049052535271608,77.50000000000894,0,60,3.0,5,2.1032064978498967e-13
6.215,0.0027671663551903634,77.50000000000531,0,60,3.0,5,1.2505552149377764e-13
6.22,0.0015425553464444616,77.50000000000314,0,60,3.0,5,7.389644451905042e-14
6.225,0.0009638206637011801,77.50000000000185,0,60,3.0,5,4.346849677591201e-14
6.23,0.0009804935156568228,77.50000000000108,0,60,3.0,5,2.5412351961302408e-14
6.235,0.0018793744894085216,77.50000000000063,0,60,3.0,5,1.4712414293385605e-14
6.24,0.004535525206900863,77.50000000000037,0,60,3.0,5,8.693699355182403e-15
6.245,0.010832767979632273,77.50000000000021,0,60,3.0,5,5.015595781836002e-15
6.25,0.024208003392322392,77.50000000000011,0,60,3.0,5,2.6749844169792007e-15
6.255,0.0500971897335304,77.50000000000007,0,60,3.0,5,1.6718652606120004e-15
6.26,0.09582894921774403,77.50000000000004,0,60,3.0,5,1.0031191563672002e-15
6.265,0.16937896721820658,77.50000000000003,0,60,3.0,5,6.687461042448002e-16
6.27,0.27661303008991756,77.50000000000001,0,60,3.0,5,3.343730521224001e-16
6.275,0.4173782800009149,77.5,0,60,3.0,5,0.0
6.28,0.5818720934538056,77.5,0,60,3.0,5,0.0
6.285,0.7494718801585675,77.5,0,60,3.0,5,0.0
6.29,0.891813020752378,77.5,0,60,3.0,5,0.0
6.295,0.9800361632936612,77.5,0,60,3.0,5,0.0
6.3,0.993574479225126,77.50000249379623,1,60,3.0,5,5.8677558372972485e-08
6.305,0.9263438449375362,77.50000374914603,0,60,3.0,5,8.821520074942621e-08
6.31,0.7873015962290536,77.50000574205839,0,60,3.0,5,1.3510725626902592e-07
6.315,0.5959516244629897,77.50000904290425,0,60,3.0,5,2.1277421771682224e-07
6.32,0.376910120078773,77.50001477842311,0,60,3.0,5,3.477276025290955e-07
6.325,0.15739335672107918,77.50002521824138,0,60,3.0,5,5.93370385318207e-07
6.33,-0.033361226269301235,77.50004495906866,0,60,3.0,5,1.0578604390582981e-06
6.335,-0.1680180840843834,77.5000832626602,0,60,3.0,5,1.9591214164152276e-06
6.34,-0.23069703190837854,77.50015855775519,0,60,3.0,5,3.730770710235982e-06
6.345,-0.22587267821131068,77.50030687962926,0,60,3.0,5,7.220697159147997e-06
6.35,-0.17718181630665902,77.50059725115638,0,60,3.0,5,1.4052968385372237e-05
6.355,-0.11494332516451301,77.50115890175013,0,60,3.0,5,2.726827647366543e-05
6.36,-0.061810214049552864,77.502227982956,0,60,3.0,5,5.242312837648409e-05
6.365,-0.026546104631500547,77.50422523134473,0,60,3.0,5,9.941720811137683e-05
6.37,-0.00719600351942686,77.50788085207563,0,60,3.0,5,0.00018543181354422868
6.375,0.0022072757983807078,77.51442842473308,0,60,3.0,5,0.0003394923466607773
6.38,0.006917199873730717,77.52589499534879,0,60,3.0,5,0.0006092940082068895
6.385,0.01004859748264829,77.54551806446773,0,60,3.0,5,0.0010710132815936102
6.39,0.013037082251128167,77.57831931533336,0,60,3.0,5,0.001842807419608468
6.395,0.01645163937690478,77.63185613703956,0,60,3.0,5,0.0031024973421073594
6.4,0.020526639934696615,77.71715124028381,0,60,3.0,5,0.005109440947854396
6.405,0.02539629541761738,77.84976424958334,0,60,3.0,5,0.008229747049019874
6.41,0.031171612185577933,78.05091521223822,0,60,3.0,5,0.012962710876193488
6.415,0.03795853426638131,78.34850034697884,0,60,3.0,5,0.0199647140465609
6.42,0.0458588961882057,78.77776263344921,0,60,3.0,5,0.030065003139981505
6.425,0.054966995891435555,79.38130867176919,0,60,3.0,5,0.04426608639456918
6.43,0.06536491004445595,80.20812022232984,0,60,3.0,5,0.06372047581952563
6.435,0.07711726085088699,81.31122000278289,0,60,3.0,5,0.08967576477136209
6.44,0.09026570629555215,82.74374175486754,0,60,3.0,5,0.12338215893805983
6.445,0.10482339848670268,84.5533405253622,0,60,3.0,5,0.16596095353793416
6.45,0.12076968927580028,86.77515893010619,0,60,3.0,5,0.21823903364955735
6.455,0.13804539501007884,89.42391197979815,0,60,3.0,5,0.28056263481877997
6.46,0.15654895051787066,92.48601184868365,0,60,3.0,5,0.3526120434984387
6.465,0.17613378141900526,95.91294646423091,0,60,3.0,5,0.4332457991583744
6.47,0.19660720058055794,99.61726401786359,0,60,3.0,5,0.5204062121850257
6.475,0.21773108748496234,103.4724229370135,0,60,3.0,5,0.6111158338120825
6.48,0.23922453870058807,107.317402683545,0,60,3.0,5,0.7015859454951764
6.485,0.2607685857914563,110.96635024110174,0,60,3.0,5,0.7874435350847467
6.49,0.2820129681603682,114.22274096962201,0,60,3.0,5,0.8640644934028708
6.495,0.30258482867153996,116.8966991332729,0,60,3.0,5,0.9269811560770095
6.5,0.3220990771751686,118.82342375535035,0,60,3.0,5,0.972315853067067
6.505,0.3401700499968971,119.88026396726374,0,60,3.0,5,0.9971826815826763
6.51,0.3564239911198326,120.0,0,60,3.0,5,1.0
6.515,0.3705118017738417,119.1783433081767,0,60,3.0,5,0.9806669013688634
6.52,0.3821214567925213,117.47450566886323,0,60,3.0,5,0.9405766039732525
6.525,0.39098947374066967,115.00474839088832,0,60,3.0,5,0.8824646680209017
6.53,0.3969108472035567,111.92990155349591,0,60,3.0,5,0.810115330670492
6.535,0.3997469255491936,108.43872783044789,0,60,3.0,5,0.7279700665987738
6.54,0.3994308076379137,104.7295305019311,0,60,3.0,5,0.6406948353395552
6.545,0.3959699661768434,100.99248893952765,0,60,3.0,5,0.5527644456359446
6.55,0.38944595408114946,97.39486371458231,0,60,3.0,5,0.4681144403431133
6.555,0.38001120995358023,94.07055139237116,0,60,3.0,5,0.3898953268793214
6.56,0.3678831374098315,91.1146454134743,0,60,3.0,5,0.3203445979641013
6.565,0.35333577933796634,88.5828469468639,0,60,3.0,5,0.260772869337974
6.57,0.33668953221163944,86.49491404388809,0,60,3.0,5,0.21164503632677853
6.575,0.3182994390982644,84.84092970825792,0,60,3.0,5,0.17272775784136277
6.58,0.29854265738230645,83.58903512890866,0,60,3.0,5,0.14327141479785088
6.585,0.2778057157821067,82.69338027079178,0,60,3.0,5,0.12219718284215948
6.59,0.2564721553719815,82.10131785759242,0,60,3.0,5,0.10826630253158635
6.595,0.23491109433464996,81.75922079911874,0,60,3.0,5,0.10021695997926439
6.6,0.21346717185309805,81.61665631936843,0,60,3.0,5,0.09686250163219838
6.605,0.19245222055656455,81.62894315447333,0,60,3.0,5,0.09715160363466667
6.61,0.17213889801761392,81.75831982609262,0,60,3.0,5,0.10019576061394392
6.615,0.15275638501270183,81.9740569196691,0,60,3.0,5,0.10527192752162577
6.62,0.13448814019607322,82.25186848048502,0,60,3.0,5,0.11180867012905918
6.625,0.11747159495449566,82.57294133248891,0,60,3.0,5,0.11936332547032728
6.63,0.10179958433370105,82.92283264526998,0,60,3.0,5,0.12759606224164652
6.635,0.08752324394101413,83.29040798078412,0,60,3.0,5,0.1362448936655088
6.64,0.07465606047174059,83.66692017809487,0,60,3.0,5,0.1451040041904675
6.645,0.0631787448609295,84.04527242910562,0,60,3.0,5,0.1540064100966029
6.65,0.05304460019959574,84.41946941505594,0,60,3.0,5,0.16281104506013983
6.655,0.044185078305849994,84.78423701164296,0,60,3.0,5,0.17139381203865783
6.66,0.03651525513023255,85.13478033273678,0,60,3.0,5,0.1796418901820419
6.665,0.0299390014708757,85.466647720412,0,60,3.0,5,0.18745053459792937
6.67,0.024353677220580638,85.77567108148466,0,60,3.0,5,0.19472167250552141
6.675,0.01965423034339045,86.05795797916235,0,60,3.0,5,0.20136371715676124
6.68,0.015736632374757337,86.30991632969506,0,60,3.0,5,0.20729214893400133
6.685,0.012500627640593535,86.52829745546912,0,60,3.0,5,0.2124305283639792
6.69,0.009851811652115898,86.71024721641409,0,60,3.0,5,0.21671169920974329
6.695,0.007703084175428559,86.85335794517667,0,60,3.0,5,0.22007901047474515
6.7,0.005975544002062424,86.95571609025774,0,60,3.0,5,0.22248743741782911
6.705,0.004598905818663047,87.0159420257872,0,60,3.0,5,0.2239045182538164
6.71,0.0035115256454839104,87.03321960866413,0,60,3.0,5,0.2243110496156265
6.715,0.002660121266303676,87.0073139066997,0,60,3.0,5,0.2237015036870516
6.72,0.0019992692560877024,86.938576193165,0,60,3.0,5,0.22208414572152954
6.725,0.0014907520044639367,86.82793587151944,0,60,3.0,5,0.2194808440357516
6.73,0.0011028178277539807,86.67687949596854,0,60,3.0,5,0.21592657637573023
6.735,0.0008094059938923333,86.4874175045347,0,60,3.0,5,0.21146864716552247
6.74,0.0005893771793717645,86.26203968403271,0,60,3.0,5,0.20616563962429918
6.745,0.0004257792353490551,86.00366073614138,0,60,3.0,5,0.20008613496803257
6.75,0.0003051686392901525,85.71555760321358,0,60,3.0,5,0.19330723772267253
6.755,0.00021699992642659966,85.40130043404575,0,60,3.0,5,0.1859129513893118
6.76,0.00015308884054097838,85.06467921767266,0,60,3.0,5,0.17799245218053322
6.765,0.00010714989329311098,84.70962818415443,0,60,3.0,5,0.16963831021539824
6.77,7.440535854020571e-05,84.34015006520161,0,60,3.0,5,0.16094470741650854
6.775,5.1260276743925106e-05,83.9602422274949,0,60,3.0,5,0.1520056994704683
6.78,3.503659887882241e-05,83.57382654391216,0,60,3.0,5,0.14291356573910968
6.785,2.375894748103639e-05,83.18468466146989,0,60,3.0,5,0.13375728615223265
6.79,1.5984413869232557e-05,82.79640007066425,0,60,3.0,5,0.12462117813327642
6.795,1.0669166579899869e-05,82.41230809162077,0,60,3.0,5,0.11558371980284171
6.8,7.06526633560511e-06,82.03545458144112,0,60,3.0,5,0.10671657838684977
6.805,4.641847214699205e-06,81.66856384791926,0,60,3.0,5,0.09808385524515903
6.81,3.025641074479182e-06,81.31401594043791,0,60,3.0,5,0.08974155153971558
6.815,1.9566278676921314e-06,80.97383319129152,0,60,3.0,5,0.08173725155980044
6.82,1.2553456560008793e-06,80.64967561027302,0,60,3.0,5,0.07411001435936522
6.825,7.990660428214668e-07,80.34284450049499,0,60,3.0,5,0.06689045883517625
6.83,5.046221251618276e-07,80.0542934702713,0,60,3.0,5,0.06010102282991304
6.835,3.1616527078858815e-07,79.78464586832229,0,60,3.0,5,0.05375637337228909
6.84,1.9652884407760343e-07,79.53421756914149,0,60,3.0,5,0.04786394280332916
6.845,1.2120002189836396e-07,79.30304398146892,0,60,3.0,5,0.04242456426985688
6.85,7.415549848886236e-08,79.09091014291228,0,60,3.0,5,0.03743317983323008
6.855,4.501406988770349e-08,78.89738279368821,0,60,3.0,5,0.032879595145604915
6.86,0.0,78.72184338679693,0,60,3.0,5,0.028749256159927856
6.865,0.0,78.56352108441183,0,60,3.0,5,0.025024025515572517
6.87,0.0,78.42152490408645,0,60,3.0,5,0.021682938919681257
6.875,0.0,78.29487430668186,0,60,3.0,5,0.01870292486310264
6.88,0.0,78.18252765403497,0,60,3.0,5,0.016059474212587542
6.885,0.0,78.08340810217774,0,60,3.0,5,0.013727249463005698
6.89,0.0,77.99642662994414,0,60,3.0,5,0.01168062658692092
6.895,0.0,77.92050202852263,0,60,3.0,5,0.009894165377003153
6.9,0.0,77.85457779134715,0,60,3.0,5,0.008343006855227151
6.905,0.0,77.79763594309105,0,60,3.0,5,0.00700319866096593
6.91,0.0,77.7487079298358,0,60,3.0,5,0.0058519512902541785
6.915,0.0,77.70688275903142,0,60,3.0,5,0.004867829624268605
6.92,0.0,77.67131262775425,0,60,3.0,5,0.004030885358923463
6.925,0.0,77.64121631177731,0,60,3.0,5,0.0033227367477014894
6.93,0.0,77.61588060740796,0,60,3.0,5,0.0027266025272461
6.935,0.0,77.59466012461155,0,60,3.0,5,0.0022272970496835433
6.94,0.0,77.57697572556901,0,60,3.0,5,0.0018111935428003242
6.945,0.0,77.56231188956468,0,60,3.0,5,0.0014661621074042962
6.95,0.0,77.5502132650315,0,60,3.0,5,0.0011814885889765158
6.955,0.0,77.54028064465962,0,60,3.0,5,0.0009477798743439374
6.96,0.0,77.53216657151289,0,60,3.0,5,0.0007568605061856167
6.965,0.0,77.52557075468849,0,60,3.0,5,0.0006016648161997129
6.97,0.0,77.52023544355008,0,60,3.0,5,0.0004761280835312471
6.975,0.0,77.5159408810574,0,60,3.0,5,0.0003750795542918481
6.98,0.0,77.51250093004288,0,60,3.0,5,0.0002941395304206066
6.985,0.0,77.50975894204335,0,60,3.0,5,0.00022962216572583363
6.99,0.0,77.50758391686,0,60,3.0,5,0.000178445102588231
6.995,0.0,77.505866982575,0,60,3.0,5,0.00013804664882353362
7.0,0.0,77.50451821032726,0,60,3.0,5,0.00010631083122970107
7.005,0.0,77.50346376564148,0,60,3.0,5,8.150036803492773e-05
7.01,0.0,77.50264338831892,0,60,3.0,5,6.219737220977978e-05
7.015,0.0,77.50200818557703,0,60,3.0,5,4.72514253417825e-05
7.02,0.0,77.50151871796827,0,60,3.0,5,3.5734540429811044e-05
7.025,0.0,77.5011433542997,0,60,3.0,5,2.6902454110581055e-05
7.03,0.0,77.50085686999996,0,60,3.0,5,2.01616470579826e-05
7.035,0.0,77.50063926283588,0,60,3.0,5,1.5041478491184535e-05
7.04,0.0,77.50047476029029,0,60,3.0,5,1.1170830359721068e-05
7.045,0.0,77.50035099402773,0,60,3.0,5,8.258683005338111e-06
7.05,0.0,77.5002583184806,0,60,3.0,5,6.078081896569475e-06
7.055,0.0,77.5001892525059,0,60,3.0,5,4.453000138937569e-06
7.06,0.0,77.50013802514448,0,60,3.0,5,3.2476504583535324e-06
7.065,0.0,77.50010020864568,0,60,3.0,5,2.3578504865059477e-06
7.07,0.0,77.50007242401301,0,60,3.0,5,1.704094423824726e-06
7.075,0.0,77.50005210631836,0,60,3.0,5,1.2260310203306718e-06
7.08,0.0,77.50003731888009,0,60,3.0,5,8.780912962185325e-07
7.085,0.0,77.50002660708068,0,60,3.0,5,6.260489572816689e-07
7.09,0.0,77.5000188840987,0,60,3.0,5,4.443317339684975e-07
7.095,0.0,77.50001334214654,0,60,3.0,5,3.1393285988034384e-07
7.1,0.0,77.50000938394734,0,60,3.0,5,2.2079876102639794e-07
7.105,0.0,77.50000657015823,0,60,3.0,5,1.5459195845537846e-07
7.11,0.0,77.50000457927268,0,60,3.0,5,1.0774759255796466e-07
7.115,0.001684486749771458,77.50000317722223,0,60,3.0,5,7.475817001785104e-08
7.12,0.003097557930867117,77.50000219446719,0,60,3.0,5,5.163452201754005e-08
7.125,0.005475106668887023,77.5000015088324,0,60,3.0,5,3.5501938769170115e-08
7.13,0.00930222931468658,77.50000103272174,0,60,3.0,5,2.4299335082640242e-08
7.135,0.01519157517868857,77.50000070364895,0,60,3.0,5,1.6556445897924062e-08
7.14,0.023847336626128316,77.50000047726456,0,60,3.0,5,1.1229754443989162e-08
7.145,0.0359830743700859,77.50000032224986,0,60,3.0,5,7.58234966055812e-09
7.15,0.05218887796857759,77.50000021659912,0,60,3.0,5,5.0964498608236145e-09
7.155,0.0727577001223134,77.50000014492758,0,60,3.0,5,3.410060772319626e-09
7.16,0.0974992498694751,77.50000009653301,0,60,3.0,5,2.2713650463736165e-09
7.165,0.12558706050443358,77.50000006400752,0,60,3.0,5,1.5060593608830138e-09
7.17,0.15549263588878245,77.50000004224901,0,60,3.0,5,9.940944276904167e-10
7.175,0.1850529723539114,77.50000002776085,0,60,3.0,5,6.531964198289001e-10
7.18,0.21169159439317053,77.50000001815846,0,60,3.0,5,4.2725787352537734e-10
7.185,0.23277292922115492,77.50000001182377,0,60,3.0,5,2.782064043190878e-10
7.19,0.24602692519491282,77.50000000766414,0,60,3.0,5,1.8033273697844433e-10
7.195,0.24995056064839283,77.50000000494539,0,60,3.0,5,1.1636215651164735e-10
7.2,0.24408826520424054,77.50000000317665,0,60,3.0,5,7.474474895228495e-11
7.205,0.22911894216865275,77.50000000203127,0,60,3.0,5,4.779461532427162e-11
7.21,0.20672661788705934,77.50000000129299,0,60,3.0,5,3.0423266520408696e-11
7.215,0.17928878030241233,77.50000000081933,0,60,3.0,5,1.9278278320116976e-11
7.22,0.14946211903866036,77.50000000051682,0,60,3.0,5,1.2160479159587447e-11
7.225,0.1197651512573837,77.50000000032453,0,60,3.0,5,7.636077391319251e-12
7.23,0.09224675744988023,77.50000000020287,0,60,3.0,6,4.773509692099383e-12
7.235,0.06829565320281596,77.50000000012624,0,60,3.0,6,2.97023582200328e-12
7.24,0.04860224607515734,77.5000000000782,0,60,3.0,6,1.8400549058295675e-12
7.245,0.03324612389699793,77.50000000004822,0,60,3.0,6,1.1345277658513034e-12
7.25,0.021859876340472782,77.5000000000296,0,60,3.0,6,6.964990675709594e-13
7.255,0.01381595518554205,77.50000000001809,0,60,3.0,6,4.256568953518153e-13
7.26,0.008394095110402422,77.500000000011,0,60,3.0,6,2.5880474234273766e-13
7.265,0.0049052535271608,77.50000000000666,0,60,3.0,6,1.5682096144540564e-13
7.27,0.0027671663551903634,77.50000000000402,0,60,3.0,6,9.462757375063923e-14
7.275,0.0015425553464444616,77.50000000000242,0,60,3.0,6,5.684341886080802e-14
7.28,0.0009638206637011801,77.50000000000144,0,60,3.0,6,3.377167826436241e-14
7.285,0.0009804935156568228,77.50000000000085,0,60,3.0,6,2.0062383127344007e-14
7.29,0.0018793744894085216,77.50000000000051,0,60,3.0,6,1.2037429876406403e-14
7.295,0.004535525206900863,77.5000000000003,0,60,3.0,6,7.021834094570402e-15
7.3,0.010832767979632273,77.50000000000017,0,60,3.0,6,4.012476625468801e-15
7.305,0.024208003392322392,77.5000000000001,0,60,3.0,6,2.3406113648568006e-15
7.31,0.0500971897335304,77.50000000000006,0,60,3.0,6,1.3374922084896003e-15
7.315,0.09582894921774403,77.50000000000003,0,60,3.0,6,6.687461042448002e-16
7.32,0.16937896721820658,77.50000000000001,0,60,3.0,6,3.343730521224001e-16
7.325,0.27661303008991756,77.50000000000001,0,60,3.0,6,3.343730521224001e-16
7.33,0.4173782800009149,77.5,0,60,3.0,6,0.0
7.335,0.5818720934538056,77.5,0,60,3.0,6,0.0
7.34,0.7494718801585675,77.5,0,60,3.0,6,0.0
7.345,0.891813020752378,77.5,0,60,3.0,6,0.0
7.35,0.9800361632936612,77.5,0,60,3.0,6,0.0
7.355,0.993574479225126,77.50000248989905,1,60,3.0,6,5.858585990715844e-08
7.36,0.9263438449375362,77.50000369347886,0,60,3.0,6,8.690538493283384e-08
7.365,0.7873015962290536,77.50000557344883,0,60,3.0,6,1.3113997250216285e-07
7.37,0.5959516244629897,77.5000086277236,0,60,3.0,6,2.0300526122863468e-07
7.375,0.376910120078773,77.50001381674137,0,60,3.0,6,3.2509979699652295e-07
7.38,0.15739335672107918,77.5000230297001,0,60,3.0,6,5.41875296529029e-07
7.385,-0.033361226269301235,77.50004000696563,0,60,3.0,6,9.41340367850952e-07
7.39,-0.1680180840843834,77.50007212773693,0,60,3.0,6,1.6971232218352002e-06
7.395,-0.23069703190837854,77.500133795517,0,60,3.0,6,3.148129811801054e-06
7.4,-0.22587267821131068,77.50025269222103,0,60,3.0,6,5.945699318237316e-06
7.405,-0.17718181630665902,77.5004810332048,0,60,3.0,6,1.1318428348391427e-05
7.41,-0.11494332516451301,77.50091527659382,0,60,3.0,6,2.1535919854480146e-05
7.415,-0.061810214049552864,77.5017296721098,0,60,3.0,6,4.069816728949317e-05
7.42,-0.026546104631500547,77.50323170861597,0,60,3.0,6,7.60402027287241e-05
7.425,-0.00719600351942686,77.50595098331007,0,60,3.0,6,0.0001400231367075749
7.43,0.0022072757983807078,77.51077713042112,0,60,3.0,6,0.00025357953932043264
7.435,0.006917199873730717,77.51916675012615,0,60,3.0,6,0.0004509823559093253
7.44,0.01004859748264829,77.53344282153455,0,60,3.0,6,0.0007868899184599928
7.445,0.013037082251128167,77.55721129485161,0,60,3.0,6,0.0013461481141555797
7.45,0.01645163937690478,77.59591618933916,0,60,3.0,6,0.0022568515138626775
7.455,0.020526639934696615,77.657543784672,0,60,3.0,6,0.0037069125805176636
7.46,0.02539629541761738,77.75346547095405,0,60,3.0,6,0.005963893434213051
7.465,0.031171612185577933,77.89937526733806,0,60,3.0,6,0.009397065113836669
7.47,0.03795853426638131,78.11623148985416,0,60,3.0,6,0.014499564467156662
7.475,0.0458588961882057,78.43105527668516,0,60,3.0,6,0.02190718298082723
7.48,0.054966995891435555,78.87737882535453,0,60,3.0,6,0.03240891353775356
7.485,0.06536491004445595,79.49508551015256,0,60,3.0,6,0.04694318847417796
7.49,0.07711726085088699,80.32935933179266,0,60,3.0,6,0.06657316074806258
7.495,0.09026570629555215,81.4284815251271,0,60,3.0,6,0.09243485941475522
7.5,0.10482339848670268,82.84029492797717,0,60,3.0,6,0.12565399830534515
7.505,0.12076968927580028,84.60731176085159,0,60,3.0,6,0.1672308649612138
7.51,0.13804539501007884,86.76066413766326,0,60,3.0,6,0.21789797970972366
7.515,0.15654895051787066,89.31336701784153,0,60,3.0,6,0.2779615768903889
7.52,0.17613378141900526,92.25363888737695,0,60,3.0,6,0.34714444440886943
7.525,0.19660720058055794,95.53924881423087,0,60,3.0,6,0.4244529132760205
7.53,0.21773108748496234,99.09396597534285,0,60,3.0,6,0.5080933170668906
7.535,0.23922453870058807,102.80712379021509,0,60,3.0,6,0.595461736240355
7.54,0.2607685857914563,106.53704455075982,0,60,3.0,6,0.6832245776649368
7.545,0.2820129681603682,110.11860978233275,0,60,3.0,6,0.7674967007607707
7.55,0.30258482867153996,113.37466009643558,0,60,3.0,6,0.8441096493278959
7.555,0.3220990771751686,116.13026147256033,0,60,3.0,6,0.9089473287661255
7.56,0.3401700499968971,118.22830434348708,0,60,3.0,6,0.9583130433761666
7.565,0.3564239911198326,119.54453001557229,0,60,3.0,6,0.9892830591899363
7.57,0.3705118017738417,120.0,0,60,3.0,6,1.0
7.575,0.3821214567925213,119.56927829171647,0,60,3.0,6,0.9898653715697994
7.58,0.39098947374066967,118.28315730253448,0,60,3.0,6,0.9596037012361054
7.585,0.3969108472035567,116.22553207145418,0,60,3.0,6,0.911188989916569
7.59,0.3997469255491936,113.52487436578907,0,60,3.0,6,0.8476441027244488
7.595,0.3994308076379137,110.34152177989066,0,60,3.0,6,0.7727416889386036
7.6,0.3959699661768434,106.85253909603057,0,60,3.0,6,0.6906479787301311
7.605,0.38944595408114946,103.23614108868534,0,60,3.0,6,0.6055562609102434
7.61,0.38001120995358023,99.65756515886918,0,60,3.0,6,0.5213544743263335
7.615,0.3678831374098315,96.25789346229843,0,60,3.0,6,0.44136219911290414
7.62,0.35333577933796634,93.1467445224093,0,60,3.0,6,0.36815869464492484
7.625,0.33668953221163944,90.39910701590577,0,60,3.0,6,0.3035084003742534
7.63,0.3182994390982644,88.05599403043372,0,60,3.0,6,0.24837633012785232
7.635,0.29854265738230645,86.12814760981598,0,60,3.0,6,0.2030152378780231
7.64,0.2778057157821067,84.6017712852846,0,60,3.0,6,0.16710050083022585
7.645,0.2564721553719815,83.44521745006806,0,60,3.0,6,0.13988746941336605
7.65,0.23491109433464996,82.6156738200793,0,60,3.0,6,0.12036879576657163
7.655,0.21346717185309805,82.06512224585555,0,60,3.0,6,0.10741464107895407
7.66,0.19245222055656455,81.7451201208325,0,60,3.0,6,0.09988517931370579
7.665,0.17213889801761392,81.61022299791726,0,60,3.0,6,0.09671112936275911
7.67,0.15275638501270183,81.6200865234776,0,60,3.0,6,0.09694321231711991
7.675,0.13448814019607322,81.74043585223482,0,60,3.0,6,0.0997749612290547
7.68,0.11747159495449566,81.94316876489165,0,60,3.0,6,0.10454514740921535
7.685,0.10179958433370105,82.2058753394999,0,60,3.0,6,0.11072647857646817
7.69,0.08752324394101413,82.5110298296717,0,60,3.0,6,0.11790658422756939
7.695,0.07465606047174059,82.84505845203199,0,60,3.0,6,0.12576608122428218
7.7,0.0631787448609295,83.19742662716826,0,60,3.0,6,0.1340570971098413
7.705,0.05304460019959574,83.55983276094673,0,60,3.0,6,0.14258430025757018
7.71,0.044185078305849994,83.9255497323364,0,60,3.0,6,0.15118940546673898
7.715,0.03651525513023255,84.28892234932543,0,60,3.0,6,0.15973934939589252
7.72,0.0299390014708757,84.64500854876302,0,60,3.0,6,0.1681178482061886
7.725,0.024353677220580638,84.9893417310895,0,60,3.0,6,0.1762198054373999
7.73,0.01965423034339045,85.31778842171917,0,60,3.0,6,0.18394796286398052
7.735,0.015736632374757337,85.62647668364372,0,60,3.0,6,0.1912112160857345
7.74,0.012500627640593535,85.91177417632449,0,60,3.0,6,0.19792409826645846
7.745,0.009851811652115898,86.17029894574033,0,60,3.0,6,0.2040070340174195
7.75,0.007703084175428559,86.39895003652595,0,60,3.0,6,0.20938705968296342
7.755,0.005975544002062424,86.59494840815444,0,60,3.0,6,0.21399878607422204
7.76,0.004598905818663047,86.75588129405614,0,60,3.0,6,0.2177854422130856
7.765,0.0035115256454839104,86.87974512181765,0,60,3.0,6,0.2206998852192388
7.77,0.002660121266303676,86.96498354662036,0,60,3.0,6,0.2227054952145967
7.775,0.0019992692560877024,87.01051818530924,0,60,3.0,6,0.22377689847786442
7.78,0.0014907520044639367,87.01577040304835,0,60,3.0,6,0.2239004800717259
7.785,0.0011028178277539807,86.98067309602897,0,60,3.0,6,0.22307466108303448
7.79,0.0008094059938923333,86.90567189874692,0,60,3.0,6,0.22130992702933922
7.795,0.0005893771793717645,86.79171566355345,0,60,3.0,6,0.2186286038483164
7.8,0.0004257792353490551,86.64023643475305,0,60,3.0,6,0.21506438670007175
7.805,0.0003051686392901525,86.45311947765566,0,60,3.0,6,0.21066163476836852
7.81,0.00021699992642659966,86.23266422490615,0,60,3.0,6,0.20547445235073283
7.815,0.00015308884054097838,85.98153726414377,0,60,3.0,6,0.1995655826857357
7.82,0.00010714989329311098,85.70271870706542,0,60,3.0,6,0.193005146048598
7.825,7.440535854020571e-05,85.3994434449343,0,60,3.0,6,0.18586925752786604
7.83,5.1260276743925106e-05,85.07513890541706,0,60,3.0,6,0.17823856248040149
7.835,3.503659887882241e-05,84.73336097816738,0,60,3.0,6,0.17019672889805607
7.84,2.375894748103639e-05,84.37772977182186,0,60,3.0,6,0.1618289358075732
7.845,1.5984413869232557e-05,84.01186680530381,0,60,3.0,6,0.1532203954189132
7.85,1.0669166579899869e-05,83.63933512595486,0,60,3.0,6,0.1444549441401143
7.855,7.06526633560511e-06,83.26358369232372,0,60,3.0,6,0.13561373393702872
7.86,4.641847214699205e-06,82.8878971682628,0,60,3.0,6,0.12677405101794814
7.865,3.025641074479182e-06,82.51535205625248,0,60,3.0,6,0.11800828367652898
7.87,1.9566278676921314e-06,82.14877986118354,0,60,3.0,6,0.1093830555572598
7.875,1.2553456560008793e-06,81.79073773095782,0,60,3.0,6,0.10095853484606623
7.88,7.990660428214668e-07,81.44348677673555,0,60,3.0,6,0.09278792415848362
7.885,5.046221251618276e-07,81.1089780423065,0,60,3.0,6,0.08491713040721185
7.89,3.1616527078858815e-07,80.78884587671331,0,60,3.0,6,0.07738460886384259
7.895,1.9652884407760343e-07,80.48440827342908,0,60,3.0,6,0.07022137113950781
7.9,1.2120002189836396e-07,80.19667357811109,0,60,3.0,6,0.06345114301437856
7.905,7.415549848886236e-08,79.92635283864746,0,60,3.0,6,0.05709065502699907
7.91,4.501406988770349e-08,79.67387697768591,0,60,3.0,6,0.051150046533786055
7.915,0.0,79.43941790933113,0,60,3.0,6,0.045633362572497095
7.92,0.0,79.22291269703456,0,60,3.0,6,0.04053912228316609
7.925,0.0,79.0240898564496,0,60,3.0,6,0.03586093779881427
7.93,0.0,78.84249694174446,0,60,3.0,6,0.0315881633351637
7.935,0.0,78.67752861235239,0,60,3.0,6,0.027706555584762114
7.94,0.0,78.52845445469734,0,60,3.0,6,0.02419892834581975
7.945,0.0,78.39444592512721,0,60,3.0,6,0.02104578647358153
7.95,0.0,78.2746018811935,0,60,3.0,6,0.018225926616317754
7.955,0.0,78.1679722738245,0,60,3.0,6,0.015716994678223607
7.96,0.0,78.07357967854485,0,60,3.0,6,0.013495992436349311
7.965,0.0,77.99043844592175,0,60,3.0,6,0.011539728139335386
7.97,0.0,77.91757134672964,0,60,3.0,6,0.00982520815834458
7.975,0.0,77.85402367345773,0,60,3.0,6,0.008329968787240754
7.98,0.0,77.79887483498239,0,60,3.0,6,0.007032349058409061
7.985,0.0,77.75124754439972,0,60,3.0,6,0.005911706927052177
7.99,0.0,77.71031475070534,0,60,3.0,6,0.004948582369537329
7.995,0.0,77.67530450331304,0,60,3.0,6,0.004124811842659844
8.0,0.0,77.64550296488451,0,60,3.0,6,0.0034235991737532724
8.005,0.0,77.62025580352989,0,60,3.0,6,0.0028295483183502683
8.01,0.0,77.59896820134432,0,60,3.0,6,0.0023286635610428245
8.015,0.0,77.58110371384987,0,60,3.0,6,0.0019083226788204817
8.02,0.0,77.56618220569358,0,60,3.0,6,0.001557228369260683
8.025,0.0,77.5537770733974,0,60,3.0,6,0.0012653429034682015
8.03,0.0,77.5435119474997,0,60,3.0,6,0.0010238105294045935
8.035,0.0,77.53505704540301,0,60,3.0,6,0.0008248716565413574
8.04,0.0,77.52812532383865,0,60,3.0,6,0.000661772325615322
8.045,0.0,77.52246855710067,0,60,3.0,6,0.0005286719317803759
8.05,0.0,77.51787344493509,0,60,3.0,6,0.0004205516455315587
8.055,0.0,77.514157832864,0,60,3.0,6,0.0003331254791529612
8.06,0.0,77.51116710826899,0,60,3.0,6,0.0002627554886821733
8.065,0.0,77.50877081809212,0,60,3.0,6,0.0002063721904027502
8.07,0.0,77.50685953872225,0,60,3.0,6,0.0001614009111118348
8.075,0.0,77.50534201559582,0,60,3.0,6,0.00012569448460741274
8.08,0.0,77.50414257922081,0,60,3.0,6,9.747245225439121e-05
8.085,0.0,77.50319883562855,0,60,3.0,6,7.526672067182089e-05
8.09,0.0,77.50245962250408,0,60,3.0,6,5.7873470684158105e-05
8.095,0.0,77.5018832172457,0,60,3.0,6,4.431099401659487e-05
8.1,0.0,77.50143577973259,0,60,3.0,6,3.3783052531495794e-05
8.105,0.0,77.50109001041041,0,60,3.0,6,2.564730377430886e-05
8.11,0.0,77.50082400321146,0,60,3.0,6,1.9388310857948454e-05
8.115,0.0,77.50062027259587,0,60,3.0,6,1.459464931452417e-05
8.12,0.0,77.5004649344373,0,60,3.0,6,1.0939633818907169e-05
8.125,0.0,77.500347021408,0,60,3.0,6,8.165209600092032e-06
8.13,0.0,77.50025791479234,0,60,3.0,6,6.068583349240404e-06
8.135,0.0,77.50019087614979,0,60,3.0,6,4.491203524407063e-06
8.14,0.0,77.50014066385401,0,60,3.0,6,3.309737741453907e-06
8.145,0.0,77.50010322117295,0,60,3.0,6,2.4287334811641117e-06
8.15,0.0,77.50007542416286,0,60,3.0,6,1.7746861849044603e-06
8.155,0.0,77.50005487918317,0,60,3.0,6,1.2912748980611736e-06
8.16,0.0,77.50003976126656,0,60,3.0,6,9.35559213263225e-07
8.165,0.0,77.50002868588233,0,60,3.0,6,6.749619371128253e-07
8.17,0.0,77.50002060780075,0,60,3.0,6,4.84889429398048e-07
8.175,0.0,77.50001474179989,0,60,3.0,6,3.4686587970527935e-07
8.18,0.0,77.50001050085854,0,60,3.0,6,2.4707902438796525e-07
8.185,0.0,77.50000744825498,0,60,3.0,6,1.7525305826679602e-07
8.19,0.0,77.50000526065347,0,60,3.0,6,1.2378008156755481e-07
8.195,0.0,77.50000369981736,0,60,3.0,6,8.70545260140181e-08
8.2,0.0,77.50000259105306,0,60,3.0,6,6.09659543763829e-08
8.205,0.001684486749771458,77.50000180687354,0,60,3.0,6,4.25146715636348e-08
8.21,0.003097557930867117,77.50000125468482,0,60,3.0,6,2.9521995723852717e-08
8.215,0.005475106668887023,77.50000086755489,0,60,3.0,6,2.0413056197011268e-08
8.22,0.00930222931468658,77.50000059733053,0,60,3.0,6,1.405483591470864e-08
8.225,0.01519157517868857,77.50000040953203,0,60,3.0,6,9.636047881191617e-09
8.23,0.023847336626128316,77.50000027958669,0,60,3.0,6,6.578510264636647e-09
8.235,0.0359830743700859,77.5000001900643,0,60,3.0,6,4.472101141693523e-09
8.24,0.05218887796857759,77.50000012865895,0,60,3.0,6,3.0272694991307455e-09
8.245,0.0727577001223134,77.50000008672312,0,60,3.0,6,2.0405439847630023e-09
8.25,0.0974992498694751,77.50000005820834,0,60,3.0,6,1.3696080713998527e-09
8.255,0.12558706050443358,77.5000000389037,0,60,3.0,6,9.153813393555431e-10
8.26,0.15549263588878245,77.5000000258912,0,60,3.0,6,6.092046292264165e-10
8.265,0.1850529723539114,77.50000001715809,0,60,3.0,6,4.03719682521221e-10
8.27,0.21169159439317053,77.50000001132246,0,60,3.0,6,2.664107261593659e-10
8.275,0.23277292922115492,77.50000000743992,0,60,3.0,6,1.750569989620571e-10
8.28,0.24602692519491282,77.50000000486801,0,60,3.0,6,1.1454149524284088e-10
8.285,0.24995056064839283,77.50000000317168,0,60,3.0,6,7.46277183840421e-11
8.29,0.24408826520424054,77.5000000020577,0,60,3.0,6,4.841654920121929e-11
8.295,0.22911894216865275,77.50000000132933,0,60,3.0,6,3.127825841468567e-11
8.3,0.20672661788705934,77.50000000085514,0,60,3.0,6,2.0120898411465427e-11
8.305,0.17928878030241233,77.50000000054777,0,60,3.0,6,1.2888743667110034e-11
8.31,0.14946211903866036,77.50000000034939,0,60,3.0,6,8.220895859481329e-12
8.315,0.1197651512573837,77.50000000022192,0,60,3.0,6,5.2215695819434e-12
8.32,0.09224675744988023,77.50000000014035,0,60,3.0,6,3.3022682627608232e-12
8.325,0.06829565320281596,77.50000000008839,0,60,3.0,6,2.0798003842013284e-12
8.33,0.04860224607515734,77.50000000005542,0,60,3.0,6,1.3040549032773604e-12
8.335,0.03324612389699793,77.50000000003462,0,60,3.0,6,8.145327549701666e-13
8.34,0.021859876340472782,77.50000000002152,0,60,3.0,6,5.062408009133138e-13
8.345,0.01381595518554205,77.50000000001333,0,60,3.0,6,3.136419228908113e-13
8.35,0.008394095110402422,77.50000000000821,0,60,3.0,6,1.9326762412674725e-13
8.355,0.0049052535271608,77.50000000000504,0,60,3.0,6,1.1870243350345204e-13
8.36,0.0027671663551903634,77.50000000000308,0,60,3.0,6,7.255895231056081e-14
8.365,0.0015425553464444616,77.50000000000188,0,60,3.0,6,4.413724288015681e-14
8.37,0.0009638206637011801,77.50000000000114,0,60,3.0,6,2.6749844169792007e-14
8.375,0.0009804935156568228,77.50000000000068,0,60,3.0,6,1.6049906501875204e-14
8.38,0.0018793744894085216,77.50000000000041,0,60,3.0,6,9.696818511549603e-15
8.385,0.004535525206900863,77.50000000000024,0,60,3.0,6,5.684341886080802e-15
8.39,0.010832767979632273,77.50000000000014,0,60,3.0,6,3.343730521224001e-15
8.395,0.024208003392322392,77.50000000000009,0,60,3.0,6,2.0062383127344005e-15
8.4,0.0500971897335304,77.50000000000006,0,60,3.0,6,1.3374922084896003e-15
8.405,0.09582894921774403,77.50000000000003,0,60,3.0,6,6.687461042448002e-16
8.41,0.16937896721820658,77.50000000000001,0,60,3.0,6,3.343730521224001e-16
8.415,0.27661303008991756,77.50000000000001,0,60,3.0,6,3.343730521224001e-16
8.42,0.4173782800009149,77.5,0,60,3.0,6,0.0
8.425,0.5818720934538056,77.5,0,60,3.0,6,0.0
8.43,0.7494718801585675,77.5,0,60,3.0,6,0.0
8.435,0.891813020752378,77.5,0,60,3.0,7,0.0
8.44,0.9800361632936612,77.5,0,60,3.0,7,0.0
8.445,0.993574479225126,77.50000249606323,1,60,3.0,7,5.8730899568485364e-08
8.45,0.9263438449375362,77.5000038398575,0,60,3.0,7,9.034958820313264e-08
8.455,0.7873015962290536,77.500006033868,0,60,3.0,7,1.4197336480826967e-07
8.46,0.5959516244629897,77.50000979196264,0,60,3.0,7,2.303991209373635e-07
8.465,0.376910120078773,77.50001658325932,0,60,3.0,7,3.9019433703448587e-07
8.47,0.15739335672107918,77.50002948944842,0,60,3.0,7,6.938693746526362e-07
8.475,-0.033361226269301235,77.50005499618474,0,60,3.0,7,1.2940278763300524e-06
8.48,-0.1680180840843834,77.50010664152244,0,60,3.0,7,2.509212292606582e-06
8.485,-0.23069703190837854,77.50021223841208,0,60,3.0,7,4.993844990006919e-06
8.49,-0.22587267821131068,77.50042774487464,0,60,3.0,7,1.006458528569751e-05
8.495,-0.17718181630665902,77.50086306382961,0,60,3.0,7,2.0307384226177473e-05
8.5,-0.11494332516451301,77.50172846110615,0,60,3.0,7,4.0669673085978825e-05
8.505,-0.061810214049552864,77.5034152292072,0,60,3.0,7,8.035833428721162e-05
8.51,-0.026546104631500547,77.5066308676186,0,60,3.0,7,0.00015602041455522073
8.515,-0.00719600351942686,77.51261714788687,0,60,3.0,7,0.0002968740679263834
8.52,0.0022072757983807078,77.5234879390857,0,60,3.0,7,0.000552657390251705
8.525,0.006917199873730717,77.5427303078502,0,60,3.0,7,0.00100541900824015
8.53,0.01004859748264829,77.57591328443115,0,60,3.0,7,0.001786194927791819
8.535,0.013037082251128167,77.63163821024733,0,60,3.0,7,0.0030973696528783824
8.54,0.01645163937690478,77.7227359889992,0,60,3.0,7,0.005240846799981281
8.545,0.020526639934696615,77.86766338596527,0,60,3.0,7,0.008650903199182882
8.55,0.02539629541761738,78.09196918540792,0,60,3.0,7,0.013928686715480447
8.555,0.031171612185577933,78.42959438652437,0,60,3.0,7,0.021872809094691092
8.56,0.03795853426638131,78.9236517302522,0,60,3.0,7,0.03349768777064007
8.565,0.0458588961882057,79.62622444184039,0,60,3.0,7,0.05002881039624453
8.57,0.054966995891435555,80.5966700411891,0,60,3.0,7,0.07286282449856706
8.575,0.06536491004445595,81.89795705296187,0,60,3.0,7,0.10348134242263227
8.58,0.07711726085088699,83.590740736457,0,60,3.0,7,0.14331154674016455
8.585,0.09026570629555215,85.72521884287897,0,60,3.0,7,0.19353456100891703
8.59,0.10482339848670268,88.3312835786459,0,60,3.0,7,0.25485373126225636
8.595,0.12076968927580028,91.40803681418913,0,60,3.0,7,0.32724792503974426
8.6,0.13804539501007884,94.91424919828907,0,60,3.0,7,0.4097470399597428
8.605,0.15654895051787066,98.7616754538298,0,60,3.0,7,0.5002747165607011
8.61,0.17613378141900526,102.81314459839467,0,60,3.0,7,0.5956034023151687
8.615,0.19660720058055794,106.88692793605124,0,60,3.0,7,0.6914571279070879
8.62,0.21773108748496234,110.76804090701927,0,60,3.0,7,0.7827774331063357
8.625,0.23922453870058807,114.22596317855158,0,60,3.0,7,0.8641403100835666
8.63,0.2607685857914563,117.0369802382121,0,60,3.0,7,0.9302818879579317
8.635,0.2820129681603682,119.00824368351186,0,60,3.0,7,0.9766645572591027
8.64,0.30258482867153996,120.0,0,60,3.0,7,1.0
8.645,0.3220990771751686,119.94245116636986,0,60,3.0,7,0.998645909796938
8.65,0.3401700499968971,118.84443995887491,0,60,3.0,7,0.9728103519735274
8.655,0.3564239911198326,116.79247804582917,0,60,3.0,7,0.9245288951959805
8.66,0.3705118017738417,113.94028233815197,0,60,3.0,7,0.857418407956517
8.665,0.3821214567925213,110.4905961503334,0,60,3.0,7,0.7762493211843153
8.67,0.39098947374066967,106.67229771772733,0,60,3.0,7,0.686407005122996
8.675,0.3969108472035567,102.71639188641603,0,60,3.0,7,0.5933268679156714
8.68,0.3997469255491936,98.83435529010902,0,60,3.0,7,0.5019848303555062
8.685,0.3994308076379137,95.20154861737079,0,60,3.0,7,0.4165070262910774
8.69,0.3959699661768434,91.94724589020063,0,60,3.0,7,0.3399351974164855
8.695,0.38944595408114946,89.1515501373611,0,60,3.0,7,0.2741541208790847
8.7,0.38001120995358023,86.84834318674413,0,60,3.0,7,0.21996101615868544
8.705,0.3678831374098315,85.03265064487029,0,60,3.0,7,0.17723883870283028
8.71,0.35333577933796634,83.67047424017679,0,60,3.0,7,0.1451876291806303
8.715,0.33668953221163944,82.70922389874646,0,60,3.0,7,0.12256997408815196
8.72,0.3182994390982644,82.08726133343396,0,60,3.0,7,0.10793556078668136
8.725,0.29854265738230645,81.74159879534122,0,60,3.0,7,0.09980232459626397
8.73,0.2778057157821067,81.61334027722147,0,60,3.0,7,0.09678447711109336
8.735,0.2564721553719815,81.6509036668351,0,60,3.0,7,0.09766832157259073
8.74,0.23491109433464996,81.81136644357802,0,60,3.0,7,0.10144391631948291
8.745,0.21346717185309805,82.06042651697676,0,60,3.0,7,0.10730415334062968
8.75,0.19245222055656455,82.37148928088116,0,60,3.0,7,0.11462327719720386
8.755,0.17213889801761392,82.72432417484066,0,60,3.0,7,0.12292527470213319
8.76,0.15275638501270183,83.10362302191093,0,60,3.0,7,0.13184995345672787
8.765,0.13448814019607322,83.49767392349987,0,60,3.0,7,0.14112173937646763
8.77,0.11747159495449566,83.89726171789964,0,60,3.0,7,0.15052380512705033
8.775,0.10179958433370105,84.29482974674242,0,60,3.0,7,0.15987834698217465
8.78,0.08752324394101413,84.68388923933297,0,60,3.0,7,0.16903268798430518
8.785,0.07465606047174059,85.05863764443257,0,60,3.0,7,0.17785029751606035
8.79,0.0631787448609295,85.41373904216793,0,60,3.0,7,0.18620562452159842
8.795,0.05304460019959574,85.74422176195922,0,60,3.0,7,0.19398168851668762
8.8,0.044185078305849994,86.0454552613927,0,60,3.0,7,0.20106953556218127
8.805,0.03651525513023255,86.31317664893982,0,60,3.0,7,0.20736886232799567
8.81,0.0299390014708757,86.54354497329876,0,60,3.0,7,0.2127892934893827
8.815,0.024353677220580638,86.73320770957436,0,60,3.0,7,0.21725194610763196
8.82,0.01965423034339045,86.87936861096367,0,60,3.0,7,0.22069102614032157
8.825,0.015736632374757337,86.97984948291244,0,60,3.0,7,0.223055281950881
8.83,0.012500627640593535,87.03314081261668,0,60,3.0,7,0.2243091955909807
8.835,0.009851811652115898,87.03843787511315,0,60,3.0,7,0.22443383235560344
8.84,0.007703084175428559,86.99566019345913,0,60,3.0,7,0.2234272986696266
8.845,0.005975544002062424,86.90545322943116,0,60,3.0,7,0.22130478186896846
8.85,0.004598905818663047,86.76917202771214,0,60,3.0,7,0.2180981653579328
8.855,0.0035115256454839104,86.58884728386485,0,60,3.0,7,0.21385523020858474
8.86,0.002660121266303676,86.36713497361453,0,60,3.0,7,0.2086384699674006
8.865,0.0019992692560877024,86.10725126733229,0,60,3.0,7,0.20252355923134793
8.87,0.0014907520044639367,85.81289494876535,0,60,3.0,7,0.19559752820624346
8.875,0.0011028178277539807,85.48815994788507,0,60,3.0,7,0.1879567046561192
