Time,ECG,Pressure,R_Peaks,mean_hr,hrv_scale,Phase_Bin,Normalized_Pressure
0.0,0.001684486749771458,77.5,0,60,3.0,0,0.0
0.005,0.003097557930867117,77.5,0,60,3.0,0,0.0
0.01,0.005475106668887023,77.5,0,60,3.0,0,0.0
0.015,0.00930222931468658,77.5,0,60,3.0,0,0.0
0.02,0.01519157517868857,77.5,0,60,3.0,0,0.0
0.025,0.023847336626128316,77.5,0,60,3.0,0,0.0
0.03,0.0359830743700859,77.5,0,60,3.0,0,0.0
0.035,0.05218887796857759,77.5,0,60,3.0,0,0.0
0.04,0.0727577001223134,77.5,0,60,3.0,0,0.0
0.045,0.0974992498694751,77.5,0,60,3.0,0,0.0
0.05,0.12558706050443358,77.5,0,60,3.0,0,0.0
0.055,0.15549263588878245,77.5,0,60,3.0,0,0.0
0.06,0.1850529723539114,77.5,0,60,3.0,0,0.0
0.065,0.21169159439317053,77.5,0,60,3.0,0,0.0
0.07,0.23277292922115492,77.5,0,60,3.0,0,0.0
0.075,0.24602692519491282,77.5,0,60,3.0,0,0.0
0.08,0.24995056064839283,77.5,0,60,3.0,0,0.0
0.085,0.24408826520424054,77.5,0,60,3.0,0,0.0
0.09,0.22911894216865275,77.5,0,60,3.0,0,0.0
0.095,0.20672661788705934,77.5,0,60,3.0,0,0.0
0.1,0.17928878030241233,77.5,0,60,3.0,0,0.0
0.105,0.14946211903866036,77.5,0,60,3.0,0,0.0
0.11,0.1197651512573837,77.5,0,60,3.0,0,0.0
0.115,0.09224675744988023,77.5,0,60,3.0,0,0.0
0.12,0.06829565320281596,77.5,0,60,3.0,0,0.0
0.125,0.04860224607515734,77.5,0,60,3.0,0,0.0
0.13,0.03324612389699793,77.5,0,60,3.0,0,0.0
0.135,0.021859876340472782,77.5,0,60,3.0,0,0.0
0.14,0.01381595518554205,77.5,0,60,3.0,0,0.0
0.145,0.008394095110402422,77.5,0,60,3.0,0,0.0
0.15,0.0049052535271608,77.5,0,60,3.0,0,0.0
0.155,0.0027671663551903634,77.5,0,60,3.0,0,0.0
0.16,0.0015425553464444616,77.5,0,60,3.0,0,0.0
0.165,0.0009638206637011801,77.5,0,60,3.0,0,0.0
0.17,0.0009804935156568228,77.5,0,60,3.0,0,0.0
0.175,0.0018793744894085216,77.5,0,60,3.0,0,0.0
0.18,0.004535525206900863,77.5,0,60,3.0,0,0.0
0.185,0.010832767979632273,77.5,0,60,3.0,0,0.0
0.19,0.024208003392322392,77.5,0,60,3.0,0,0.0
0.195,0.0500971897335304,77.5,0,60,3.0,0,0.0
0.2,0.09582894921774403,77.5,0,60,3.0,0,0.0
0.205,0.16937896721820658,77.5,0,60,3.0,0,0.0
0.21,0.27661303008991756,77.5,0,60,3.0,0,0.0
0.215,0.4173782800009149,77.5,0,60,3.0,0,0.0
0.22,0.5818720934538056,77.5,0,60,3.0,0,0.0
0.225,0.7494718801585675,77.5,0,60,3.0,0,0.0
0.23,0.891813020752378,77.5,0,60,3.0,0,0.0
0.235,0.9800361632936612,77.5,0,60,3.0,0,0.0
0.24,0.993574479225126,77.5,0,60,3.0,0,0.0
0.245,0.9263438449375362,77.5,0,60,3.0,0,0.0
0.25,0.7873015962290536,77.5,0,60,3.0,0,0.0
0.255,0.5959516244629897,77.5,0,60,3.0,0,0.0
0.26,0.376910120078773,77.5,0,60,3.0,0,0.0
0.265,0.15739335672107918,77.5,0,60,3.0,0,0.0
0.27,-0.033361226269301235,77.5,0,60,3.0,0,0.0
0.275,-0.1680180840843834,77.5,0,60,3.0,0,0.0
0.28,-0.23069703190837854,77.5,0,60,3.0,0,0.0
0.285,-0.22587267821131068,77.5,0,60,3.0,0,0.0
0.29,-0.17718181630665902,77.5,0,60,3.0,0,0.0
0.295,-0.11494332516451301,77.5,0,60,3.0,0,0.0
0.3,-0.061810214049552864,77.5,0,60,3.0,0,0.0
0.305,-0.026546104631500547,77.5,0,60,3.0,0,0.0
0.31,-0.00719600351942686,77.5,0,60,3.0,0,0.0
0.315,0.0022072757983807078,77.5,0,60,3.0,0,0.0
0.32,0.006917199873730717,77.5,0,60,3.0,0,0.0
0.325,0.01004859748264829,77.5,0,60,3.0,0,0.0
0.33,0.013037082251128167,77.5,0,60,3.0,0,0.0
0.335,0.01645163937690478,77.5,0,60,3.0,0,0.0
0.34,0.020526639934696615,77.5,0,60,3.0,0,0.0
0.345,0.02539629541761738,77.5,0,60,3.0,0,0.0
0.35,0.031171612185577933,77.5,0,60,3.0,0,0.0
0.355,0.03795853426638131,77.5,0,60,3.0,0,0.0
0.36,0.0458588961882057,77.5,0,60,3.0,0,0.0
0.365,0.054966995891435555,77.5,0,60,3.0,0,0.0
0.37,0.06536491004445595,77.5,0,60,3.0,0,0.0
0.375,0.07711726085088699,77.5,0,60,3.0,0,0.0
0.38,0.09026570629555215,77.5,0,60,3.0,0,0.0
0.385,0.10482339848670268,77.5,0,60,3.0,0,0.0
0.39,0.12076968927580028,77.5,0,60,3.0,0,0.0
0.395,0.13804539501007884,77.5,0,60,3.0,0,0.0
0.4,0.15654895051787066,77.5,0,60,3.0,0,0.0
0.405,0.17613378141900526,77.5,0,60,3.0,0,0.0
0.41,0.19660720058055794,77.5,0,60,3.0,0,0.0
0.415,0.21773108748496234,77.5,0,60,3.0,0,0.0
0.42,0.23922453870058807,77.5,0,60,3.0,0,0.0
0.425,0.2607685857914563,77.5,0,60,3.0,0,0.0
0.43,0.2820129681603682,77.5,0,60,3.0,0,0.0
0.435,0.30258482867153996,77.5,0,60,3.0,0,0.0
0.44,0.3220990771751686,77.5,0,60,3.0,0,0.0
0.445,0.3401700499968971,77.5,0,60,3.0,0,0.0
0.45,0.3564239911198326,77.5,0,60,3.0,0,0.0
0.455,0.3705118017738417,77.5,0,60,3.0,0,0.0
0.46,0.3821214567925213,77.5,0,60,3.0,0,0.0
0.465,0.39098947374066967,77.5,0,60,3.0,0,0.0
0.47,0.3969108472035567,77.5,0,60,3.0,0,0.0
0.475,0.3997469255491936,77.5,0,60,3.0,0,0.0
0.48,0.3994308076379137,77.5,0,60,3.0,0,0.0
0.485,0.3959699661768434,77.5,0,60,3.0,0,0.0
0.49,0.38944595408114946,77.5,0,60,3.0,0,0.0
0.495,0.38001120995358023,77.5,0,60,3.0,0,0.0
0.5,0.3678831374098315,77.5,0,60,3.0,0,0.0
0.505,0.35333577933796634,77.5,0,60,3.0,0,0.0
0.51,0.33668953221163944,77.5,0,60,3.0,0,0.0
0.515,0.3182994390982644,77.5,0,60,3.0,0,0.0
0.52,0.29854265738230645,77.5,0,60,3.0,0,0.0
0.525,0.2778057157821067,77.5,0,60,3.0,0,0.0
0.53,0.2564721553719815,77.5,0,60,3.0,0,0.0
0.535,0.23491109433464996,77.5,0,60,3.0,0,0.0
0.54,0.21346717185309805,77.5,0,60,3.0,0,0.0
0.545,0.19245222055656455,77.5,0,60,3.0,0,0.0
0.55,0.17213889801761392,77.5,0,60,3.0,0,0.0
0.555,0.15275638501270183,77.5,0,60,3.0,0,0.0
0.56,0.13448814019607322,77.5,0,60,3.0,0,0.0
0.565,0.11747159495449566,77.5,0,60,3.0,0,0.0
0.57,0.10179958433370105,77.5,0,60,3.0,0,0.0
0.575,0.08752324394101413,77.5,0,60,3.0,0,0.0
0.58,0.07465606047174059,77.5,0,60,3.0,0,0.0
0.585,0.0631787448609295,77.5,0,60,3.0,0,0.0
0.59,0.05304460019959574,77.5,0,60,3.0,0,0.0
0.595,0.044185078305849994,77.5,0,60,3.0,0,0.0
0.6,0.03651525513023255,77.5,0,60,3.0,0,0.0
0.605,0.0299390014708757,77.5,0,60,3.0,0,0.0
0.61,0.024353677220580638,77.5,0,60,3.0,0,0.0
0.615,0.01965423034339045,77.5,0,60,3.0,0,0.0
0.62,0.015736632374757337,77.5,0,60,3.0,0,0.0
0.625,0.012500627640593535,77.5,0,60,3.0,0,0.0
0.63,0.009851811652115898,77.5,0,60,3.0,0,0.0
0.635,0.007703084175428559,77.5,0,60,3.0,0,0.0
0.64,0.005975544002062424,77.5,0,60,3.0,0,0.0
0.645,0.004598905818663047,77.5,0,60,3.0,0,0.0
0.65,0.0035115256454839104,77.5,0,60,3.0,0,0.0
0.655,0.002660121266303676,77.5,0,60,3.0,0,0.0
0.66,0.0019992692560877024,77.5,0,60,3.0,0,0.0
0.665,0.0014907520044639367,77.5,0,60,3.0,0,0.0
0.67,0.0011028178277539807,77.5,0,60,3.0,0,0.0
0.675,0.0008094059938923333,77.5,0,60,3.0,0,0.0
0.68,0.0005893771793717645,77.5,0,60,3.0,0,0.0
0.685,0.0004257792353490551,77.5,0,60,3.0,0,0.0
0.69,0.0003051686392901525,77.5,0,60,3.0,0,0.0
0.695,0.00021699992642659966,77.5,0,60,3.0,0,0.0
0.7,0.00015308884054097838,77.5,0,60,3.0,0,0.0
0.705,0.00010714989329311098,77.5,0,60,3.0,0,0.0
0.71,7.440535854020571e-05,77.5,0,60,3.0,0,0.0
0.715,5.1260276743925106e-05,77.5,0,60,3.0,0,0.0
0.72,3.503659887882241e-05,77.5,0,60,3.0,0,0.0
0.725,2.375894748103639e-05,77.5,0,60,3.0,0,0.0
0.73,1.5984413869232557e-05,77.5,0,60,3.0,0,0.0
0.735,1.0669166579899869e-05,77.5,0,60,3.0,0,0.0
0.74,7.06526633560511e-06,77.5,0,60,3.0,0,0.0
0.745,4.641847214699205e-06,77.5,0,60,3.0,0,0.0
0.75,3.025641074479182e-06,77.5,0,60,3.0,0,0.0
0.755,1.9566278676921314e-06,77.5,0,60,3.0,0,0.0
0.76,1.2553456560008793e-06,77.5,0,60,3.0,0,0.0
0.765,7.990660428214668e-07,77.5,0,60,3.0,0,0.0
0.77,5.046221251618276e-07,77.5,0,60,3.0,0,0.0
0.775,3.1616527078858815e-07,77.5,0,60,3.0,0,0.0
0.78,1.9652884407760343e-07,77.5,0,60,3.0,0,0.0
0.785,1.2120002189836396e-07,77.5,0,60,3.0,0,0.0
0.79,7.415549848886236e-08,77.5,0,60,3.0,0,0.0
0.795,4.501406988770349e-08,77.5,0,60,3.0,0,0.0
0.8,0.0,77.5,0,60,3.0,0,0.0
0.805,0.0,77.5,0,60,3.0,0,0.0
0.81,0.0,77.5,0,60,3.0,0,0.0
0.815,0.0,77.5,0,60,3.0,0,0.0
0.82,0.0,77.5,0,60,3.0,0,0.0
0.825,0.0,77.5,0,60,3.0,0,0.0
0.83,0.0,77.5,0,60,3.0,0,0.0
0.835,0.0,77.5,0,60,3.0,0,0.0
0.84,0.0,77.5,0,60,3.0,0,0.0
0.845,0.0,77.5,0,60,3.0,0,0.0
0.85,0.0,77.5,0,60,3.0,0,0.0
0.855,0.0,77.5,0,60,3.0,0,0.0
0.86,0.0,77.5,0,60,3.0,0,0.0
0.865,0.0,77.5,0,60,3.0,0,0.0
0.87,0.0,77.5,0,60,3.0,0,0.0
0.875,0.0,77.5,0,60,3.0,0,0.0
0.88,0.0,77.5,0,60,3.0,0,0.0
0.885,0.0,77.5,0,60,3.0,0,0.0
0.89,0.0,77.5,0,60,3.0,0,0.0
0.895,0.0,77.5,0,60,3.0,0,0.0
0.9,0.0,77.5,0,60,3.0,0,0.0
0.905,0.0,77.5,0,60,3.0,0,0.0
0.91,0.0,77.5,0,60,3.0,0,0.0
0.915,0.0,77.5,0,60,3.0,0,0.0
0.92,0.0,77.5,0,60,3.0,0,0.0
0.925,0.0,77.5,0,60,3.0,0,0.0
0.93,0.0,77.5,0,60,3.0,0,0.0
0.935,0.0,77.5,0,60,3.0,0,0.0
0.94,0.0,77.5,0,60,3.0,0,0.0
0.945,0.0,77.5,0,60,3.0,0,0.0
0.95,0.0,77.5,0,60,3.0,0,0.0
0.955,0.0,77.5,0,60,3.0,0,0.0
0.96,0.0,77.5,0,60,3.0,0,0.0
0.965,0.0,77.5,0,60,3.0,0,0.0
0.97,0.0,77.5,0,60,3.0,0,0.0
0.975,0.0,77.5,0,60,3.0,0,0.0
0.98,0.0,77.5,0,60,3.0,0,0.0
0.985,0.0,77.5,0,60,3.0,0,0.0
0.99,0.0,77.5,0,60,3.0,0,0.0
0.995,0.0,77.5,0,60,3.0,0,0.0
1.0,0.0,77.5,0,60,3.0,0,0.0
1.005,0.0,77.5,0,60,3.0,0,0.0
1.01,0.001684486749771458,77.5,0,60,3.0,0,0.0
1.015,0.003097557930867117,77.5,0,60,3.0,0,0.0
1.02,0.005475106668887023,77.5,0,60,3.0,0,0.0
1.025,0.00930222931468658,77.5,0,60,3.0,0,0.0
1.03,0.01519157517868857,77.5,0,60,3.0,0,0.0
1.035,0.023847336626128316,77.5,0,60,3.0,0,0.0
1.04,0.0359830743700859,77.5,0,60,3.0,0,0.0
1.045,0.05218887796857759,77.5,0,60,3.0,0,0.0
1.05,0.0727577001223134,77.5,0,60,3.0,0,0.0
1.055,0.0974992498694751,77.5,0,60,3.0,0,0.0
1.06,0.12558706050443358,77.5,0,60,3.0,0,0.0
1.065,0.15549263588878245,77.5,0,60,3.0,0,0.0
1.07,0.1850529723539114,77.5,0,60,3.0,0,0.0
1.075,0.21169159439317053,77.5,0,60,3.0,0,0.0
1.08,0.23277292922115492,77.5,0,60,3.0,0,0.0
1.085,0.24602692519491282,77.5,0,60,3.0,0,0.0
1.09,0.24995056064839283,77.5,0,60,3.0,0,0.0
1.095,0.24408826520424054,77.5,0,60,3.0,0,0.0
1.1,0.22911894216865275,77.5,0,60,3.0,0,0.0
1.105,0.20672661788705934,77.5,0,60,3.0,0,0.0
1.11,0.17928878030241233,77.5,0,60,3.0,0,0.0
1.115,0.14946211903866036,77.5,0,60,3.0,0,0.0
1.12,0.1197651512573837,77.5,0,60,3.0,0,0.0
1.125,0.09224675744988023,77.5,0,60,3.0,0,0.0
1.13,0.06829565320281596,77.5,0,60,3.0,0,0.0
1.135,0.04860224607515734,77.5,0,60,3.0,0,0.0
1.14,0.03324612389699793,77.5,0,60,3.0,0,0.0
1.145,0.021859876340472782,77.5,0,60,3.0,0,0.0
1.15,0.01381595518554205,77.5,0,60,3.0,0,0.0
1.155,0.008394095110402422,77.5,0,60,3.0,0,0.0
1.16,0.0049052535271608,77.5,0,60,3.0,0,0.0
1.165,0.0027671663551903634,77.5,0,60,3.0,0,0.0
1.17,0.0015425553464444616,77.5,0,60,3.0,0,0.0
1.175,0.0009638206637011801,77.5,0,60,3.0,0,0.0
1.18,0.0009804935156568228,77.5,0,60,3.0,0,0.0
1.185,0.0018793744894085216,77.5,0,60,3.0,0,0.0
1.19,0.004535525206900863,77.5,0,60,3.0,0,0.0
1.195,0.010832767979632273,77.5,0,60,3.0,0,0.0
1.2,0.024208003392322392,77.5,0,60,3.0,0,0.0
1.205,0.0500971897335304,77.5,0,60,3.0,1,0.0
1.21,0.09582894921774403,77.5,0,60,3.0,1,0.0
1.215,0.16937896721820658,77.5,0,60,3.0,1,0.0
1.22,0.27661303008991756,77.5,0,60,3.0,1,0.0
1.225,0.4173782800009149,77.5,0,60,3.0,1,0.0
1.23,0.5818720934538056,77.5,0,60,3.0,1,0.0
1.235,0.7494718801585675,77.5,0,60,3.0,1,0.0
1.24,0.891813020752378,77.5,0,60,3.0,1,0.0
1.245,0.9800361632936612,77.5,0,60,3.0,1,0.0
1.25,0.993574479225126,77.50000249379623,1,60,3.0,1,5.8677558372972485e-08
1.255,0.9263438449375362,77.50000391718795,0,60,3.0,1,9.216912831909533e-08
1.26,0.7873015962290536,77.50000630150961,0,60,3.0,1,1.4827081446021431e-07
1.265,0.5959516244629897,77.5000105140369,0,60,3.0,1,2.473891035659857e-07
1.27,0.376910120078773,77.50001840698704,0,60,3.0,1,4.331055773785492e-07
1.275,0.15739335672107918,77.50003400964872,0,60,3.0,1,8.002270285888859e-07
1.28,-0.033361226269301235,77.50006609644886,0,60,3.0,1,1.5552105614514243e-06
1.285,-0.1680180840843834,77.50013356232397,0,60,3.0,1,3.1426429168678785e-06
1.29,-0.23069703190837854,77.50027632336332,0,60,3.0,1,6.501726195839343e-06
1.295,-0.22587267821131068,77.50057668790406,0,60,3.0,1,1.3569127154302324e-05
1.3,-0.17718181630665902,77.50119979487688,0,60,3.0,1,2.8230467691347417e-05
1.305,-0.11494332516451301,77.50246734685948,0,60,3.0,1,5.80552202229549e-05
1.31,-0.061810214049552864,77.50498694254254,0,60,3.0,1,0.00011733982453045107
1.315,-0.026546104631500547,77.50986989510379,0,60,3.0,1,0.00023223282597153712
1.32,-0.00719600351942686,77.51908262989394,0,60,3.0,1,0.00044900305632809785
1.325,0.0022072757983807078,77.53598806050526,0,60,3.0,1,0.0008467778942414337
1.33,0.006917199873730717,77.5661388335815,0,60,3.0,1,0.0015562078489765822
1.335,0.01004859748264829,77.61837627811394,0,60,3.0,1,0.0027853241909162854
1.34,0.013037082251128167,77.70625715723415,0,60,3.0,1,0.004853109581979959
1.345,0.01645163937690478,77.84976424958334,0,60,3.0,1,0.008229747049019874
1.35,0.020526639934696615,78.07714907313756,0,60,3.0,1,0.01357997819147205
1.355,0.02539629541761738,78.42660746482035,0,60,3.0,1,0.021802528584008236
1.36,0.031171612185577933,78.94731857168912,0,60,3.0,1,0.034054554627979385
1.365,0.03795853426638131,79.69922288771569,0,60,3.0,1,0.05174642088742804
1.37,0.0458588961882057,80.75083343091529,0,60,3.0,1,0.07649019837447749
1.375,0.054966995891435555,82.17443594424168,0,60,3.0,1,0.10998672809980423
1.38,0.06536491004445595,84.03830214667643,0,60,3.0,1,0.15384240345121009
1.385,0.07711726085088699,86.39604373737505,0,60,3.0,1,0.20931867617353064
1.39,0.09026570629555215,89.2739411348602,0,60,3.0,1,0.277033909055534
1.395,0.10482339848670268,92.6578763804036,0,60,3.0,1,0.3566559148330257
1.4,0.12076968927580028,96.48219417074539,0,60,3.0,1,0.44663986284106794
1.405,0.13804539501007884,100.62317626104648,0,60,3.0,1,0.5440747355540348
1.41,0.15654895051787066,104.89963122754831,0,60,3.0,1,0.6446972053540779
1.415,0.17613378141900526,109.08226138097591,0,60,3.0,1,0.7431120324935507
1.42,0.19660720058055794,112.91202435562403,0,60,3.0,1,0.8332241024852712
1.425,0.21773108748496234,116.12590285572924,0,60,3.0,1,0.908844773075982
1.43,0.23922453870058807,118.48673321912287,0,60,3.0,1,0.964393722802891
1.435,0.2607685857914563,119.81248326881075,0,60,3.0,1,0.9955878416190765
1.44,0.2820129681603682,120.0,0,60,3.0,1,1.0
1.445,0.30258482867153996,119.03895265764984,0,60,3.0,1,0.9773871213564669
1.45,0.3220990771751686,117.01338144972989,0,60,3.0,1,0.9297266223465857
1.455,0.3401700499968971,114.09055937282247,0,60,3.0,1,0.8609543381840581
1.46,0.3564239911198326,110.49924173293033,0,60,3.0,1,0.7764527466571842
1.465,0.3705118017738417,106.501252019056,0,60,3.0,1,0.6823824004483764
1.47,0.3821214567925213,102.3613128393379,0,60,3.0,1,0.5849720668079506
1.475,0.39098947374066967,98.31991189297068,0,60,3.0,1,0.48988027983460425
1.48,0.3969108472035567,94.57291708101874,0,60,3.0,1,0.40171569602397045
1.485,0.3997469255491936,91.2599713216292,0,60,3.0,1,0.3237640310971575
1.49,0.3994308076379137,88.46186297981151,0,60,3.0,1,0.25792618776027093
1.495,0.3959699661768434,86.2055083156022,0,60,3.0,1,0.20483548977887533
1.5,0.38944595408114946,84.47418553637537,0,60,3.0,1,0.1640984832088323
1.505,0.38001120995358023,83.22032439628626,0,60,3.0,1,0.13459586814791197
1.51,0.3678831374098315,82.3784030507939,0,60,3.0,1,0.11478595413632721
1.515,0.35333577933796634,81.87614033165356,0,60,3.0,1,0.10296800780361316
1.52,0.33668953221163944,81.6429627878982,0,60,3.0,1,0.09748147736231057
1.525,0.3182994390982644,81.61546715457652,0,60,3.0,1,0.09683452128415344
1.53,0.29854265738230645,81.74015709851017,0,60,3.0,1,0.09976840231788628
1.535,0.2778057157821067,81.9740569196691,0,60,3.0,1,0.10527192752162577
1.54,0.2564721553719815,82.28391103867587,0,60,3.0,1,0.1125626126747263
1.545,0.23491109433464996,82.64462413530069,0,60,3.0,1,0.12104997965413385
1.55,0.21346717185309805,83.03745309290495,0,60,3.0,1,0.1302930139507048
1.555,0.19245222055656455,83.4482905955028,0,60,3.0,1,0.13995977871771287
1.56,0.17213889801761392,83.86622429212309,0,60,3.0,1,0.14979351275583747
1.565,0.15275638501270183,84.28243683268946,0,60,3.0,1,0.1595867490044578
1.57,0.13448814019607322,84.68943573432038,0,60,3.0,1,0.1691631937487149
1.575,0.11747159495449566,85.08056227854561,0,60,3.0,1,0.1783661712598968
1.58,0.10179958433370105,85.44971522709557,0,60,3.0,1,0.18705212299048393
1.585,0.08752324394101413,85.79122761200028,0,60,3.0,1,0.19508770851765375
1.59,0.07465606047174059,86.09984484761954,0,60,3.0,1,0.2023492905322244
1.595,0.0631787448609295,86.37076438636134,0,60,3.0,1,0.20872386791438458
1.6,0.05304460019959574,86.59970808382359,0,60,3.0,1,0.2141107784429079
1.605,0.044185078305849994,86.7830071632666,0,60,3.0,1,0.2184236979592142
1.61,0.03651525513023255,86.91768606859858,0,60,3.0,1,0.22159261337879022
1.615,0.0299390014708757,87.00153597091433,0,60,3.0,1,0.22356555225680783
1.62,0.024353677220580638,87.03317178450779,0,60,3.0,1,0.22430992434135968
1.625,0.01965423034339045,87.01206873798577,0,60,3.0,1,0.22381338207025345
1.63,0.015736632374757337,86.938576193165,0,60,3.0,1,0.22208414572152954
1.635,0.012500627640593535,86.81390773863106,0,60,3.0,1,0.2191507703207308
1.64,0.009851811652115898,86.64010773261553,0,60,3.0,1,0.21506135841448312
1.645,0.007703084175428559,86.41999548610957,0,60,3.0,1,0.2098822467319899
1.65,0.005975544002062424,86.15708917317427,0,60,3.0,1,0.2036962158393946
1.655,0.004598905818663047,85.85551231983004,0,60,3.0,1,0.1966002898783539
1.66,0.0035115256454839104,85.5198863357969,0,60,3.0,1,0.18870320790110348
1.665,0.002660121266303676,85.15521299527994,0,60,3.0,1,0.18012265871246916
1.67,0.0019992692560877024,84.76675103026113,0,60,3.0,1,0.17098237718261491
1.675,0.0014907520044639367,84.35989106720938,0,60,3.0,1,0.16140920158139707
1.68,0.0011028178277539807,83.94003302017312,0,60,3.0,1,0.15153018870995572
1.685,0.0008094059938923333,83.51246976372725,0,60,3.0,1,0.14146987679358242
1.69,0.0005893771793717645,83.082280470485,0,60,3.0,1,0.13134777577611773
1.695,0.0004257792353490551,82.65423643892917,0,60,3.0,1,0.12127615150421588
1.7,0.0003051686392901525,82.23272159200907,0,60,3.0,1,0.11135815510609579
1.705,0.00021699992642659966,81.8216691316493,0,60,3.0,1,0.10168633250939532
1.71,0.00015308884054097838,81.4245151256355,0,60,3.0,1,0.09234153236789398
1.715,0.00010714989329311098,81.0441691159847,0,60,3.0,1,0.08339221449375767
1.72,7.440535854020571e-05,80.683001202808,0,60,3.0,1,0.07489414594842354
1.725,5.1260276743925106e-05,80.34284450049499,0,60,3.0,1,0.06689045883517625
1.73,3.503659887882241e-05,80.02501140315086,0,60,3.0,1,0.05941203301531426
1.735,2.375894748103639e-05,79.73032174609531,0,60,3.0,1,0.052478158731654435
1.74,1.5984413869232557e-05,79.4591407154507,0,60,3.0,1,0.04609742859884002
1.745,1.0669166579899869e-05,79.21142423740287,0,60,3.0,1,0.04026880558594979
1.75,7.06526633560511e-06,78.9867695657814,0,60,3.0,1,0.03498281331250355
1.755,4.641847214699205e-06,78.78446886954399,0,60,3.0,1,0.030222796930446723
1.76,3.025641074479182e-06,78.60356378533176,0,60,3.0,1,0.025966206713688426
1.765,1.9566278676921314e-06,78.44289912695085,0,60,3.0,1,0.022185861810608203
1.77,1.2553456560008793e-06,78.30117421486159,0,60,3.0,1,0.018851157996743282
1.775,7.990660428214668e-07,78.17699058609722,0,60,3.0,1,0.015929190261111028
1.78,5.046221251618276e-07,78.0688951512295,0,60,3.0,1,0.013385768264223476
1.785,3.1616527078858815e-07,77.97541816475811,0,60,3.0,1,0.011186309759014367
1.79,1.9652884407760343e-07,77.89510565587798,0,60,3.0,1,0.00929660366771727
1.795,1.2120002189836396e-07,77.82654621810562,0,60,3.0,1,0.007683440426014573
1.8,7.415549848886236e-08,77.7683922718456,0,60,3.0,1,0.006315112278719974
1.805,4.501406988770349e-08,77.71937608967772,0,60,3.0,1,0.0051617903453582
1.81,0.0,77.67832100862636,0,60,3.0,1,0.00419578843826718
1.815,0.0,77.64414834790306,0,60,3.0,1,0.0033917258330130634
1.82,0.0,77.61588060740796,0,60,3.0,1,0.0027266025272461
1.825,0.0,77.59264154581128,0,60,3.0,1,0.0021798010779123696
1.83,0.0,77.57365373238999,0,60,3.0,1,0.0017330289974114186
1.835,0.0,77.55823413948939,0,60,3.0,1,0.0013702150468090808
1.84,0.0,77.54578829810711,0,60,3.0,1,0.0010773717201673476
1.845,0.0,77.53580348299825,0,60,3.0,1,0.0008424348940764048
1.85,0.0,77.52784133072689,0,60,3.0,1,0.0006550901347502665
1.855,0.0,77.5215302284374,0,60,3.0,1,0.0005065936102917422
1.86,0.0,77.51655774624525,0,60,3.0,1,0.00038959402930010905
1.865,0.0,77.51266332472912,0,60,3.0,1,0.00029796058186160306
1.87,0.0,77.50963137297701,0,60,3.0,1,0.0002266205406355686
1.875,0.0,77.50728488323819,0,60,3.0,1,0.00017140901736906124
1.88,0.0,77.50547962610095,0,60,3.0,1,0.00012893237884588202
1.885,0.0,77.5040989553958,0,60,3.0,1,9.644600931303959e-05
1.89,0.0,77.50304922446462,0,60,3.0,1,7.174645799101894e-05
1.895,0.0,77.50225579450853,0,60,3.0,1,5.3077517847722284e-05
1.9,0.0,77.50165960070633,0,60,3.0,1,3.904942838430008e-05
1.905,0.0,77.50121423185787,0,60,3.0,1,2.8570161361706006e-05
1.91,0.0,77.50088347359097,0,60,3.0,1,2.0787613905280096e-05
1.915,0.0,77.50063926283588,0,60,3.0,1,1.5041478491184535e-05
1.92,0.0,77.5004600015325,0,60,3.0,1,1.0823565470646452e-05
1.925,0.0,77.5003291796934,0,60,3.0,1,7.745404550472385e-06
1.93,0.0,77.50023426139796,0,60,3.0,1,5.512032893260339e-06
1.935,0.0,77.50016579153834,0,60,3.0,1,3.900977372615992e-06
1.94,0.0,77.50011668577856,0,60,3.0,1,2.7455477309371525e-06
1.945,0.0,77.50008167091697,0,60,3.0,1,1.921668634582495e-06
1.95,0.0,77.5000568474347,0,60,3.0,1,1.3375866989703996e-06
1.955,0.0,77.50003935031812,0,60,3.0,1,9.258898380855552e-07
1.96,0.0,77.50002708816338,0,60,3.0,1,6.373685500741832e-07
1.965,0.001684486749771458,77.50001854405937,0,60,3.0,1,4.3633080876508543e-07
1.97,0.003097557930867117,77.50001262478511,0,60,3.0,1,2.970537673932353e-07
1.975,0.005475106668887023,77.50000854746077,0,60,3.0,1,2.0111672390211263e-07
1.98,0.00930222931468658,77.50000575498471,0,60,3.0,1,1.3541140500659395e-07
1.985,0.01519157517868857,77.50000385340955,0,60,3.0,1,9.066846005493169e-08
1.99,0.023847336626128316,77.50000256590221,0,60,3.0,1,6.037416958005291e-08
1.995,0.0359830743700859,77.50000169913923,0,60,3.0,1,3.997974665574421e-08
2.0,0.05218887796857759,77.50000111895281,0,60,3.0,1,2.6328301400473507e-08
2.005,0.0727577001223134,77.50000073280515,0,60,3.0,1,1.724247407336781e-08
2.01,0.0974992498694751,77.50000047726456,0,60,3.0,1,1.1229754443989162e-08
2.015,0.12558706050443358,77.50000030911765,0,60,3.0,1,7.273356526210966e-09
2.02,0.15549263588878245,77.50000019910509,0,60,3.0,1,4.68482559935022e-09
2.025,0.1850529723539114,77.5000001275366,0,60,3.0,1,3.0008610498471708e-09
2.03,0.21169159439317053,77.50000008124212,0,60,3.0,1,1.9115793079168616e-09
2.035,0.23277292922115492,77.50000005146615,0,60,3.0,1,1.2109681205509012e-09
2.04,0.24602692519491282,77.5000000324232,0,60,3.0,1,7.628988682614256e-10
2.045,0.24995056064839283,77.50000002031346,0,60,3.0,1,4.779638750144787e-10
2.05,0.24408826520424054,77.50000001265629,0,60,3.0,1,2.9779498083157436e-10
2.055,0.22911894216865275,77.50000000784192,0,60,3.0,1,1.8451574386049555e-10
2.06,0.20672661788705934,77.50000000483206,0,60,3.0,1,1.1369553142097122e-10
2.065,0.17928878030241233,77.50000000296099,0,60,3.0,1,6.967030351327541e-11
2.07,0.14946211903866036,77.50000000180441,0,60,3.0,1,4.245668392018963e-11
2.075,0.1197651512573837,77.50000000109351,0,60,3.0,1,2.5729671987766563e-11
2.08,0.09224675744988023,77.50000000065904,0,60,3.0,1,1.5506884665228427e-11
2.085,0.06829565320281596,77.50000000039499,0,60,3.0,1,9.29389898374211e-12
2.09,0.04860224607515734,77.50000000023543,0,60,3.0,1,5.539558354511802e-12
2.095,0.03324612389699793,77.50000000013955,0,60,3.0,1,3.283543371841969e-12
2.1,0.021859876340472782,77.50000000008227,0,60,3.0,1,1.935685598736574e-12
2.105,0.01381595518554205,77.50000000004822,0,60,3.0,1,1.1345277658513034e-12
2.11,0.008394095110402422,77.50000000002811,0,60,3.0,1,6.613898970981073e-13
2.115,0.0049052535271608,77.5000000000163,0,60,3.0,1,3.835258907843929e-13
2.12,0.0027671663551903634,77.5000000000094,0,60,3.0,1,2.2102058745290646e-13
2.125,0.0015425553464444616,77.50000000000539,0,60,3.0,1,1.2672738675438964e-13
2.13,0.0009638206637011801,77.50000000000307,0,60,3.0,1,7.222457925843841e-14
2.135,0.0009804935156568228,77.50000000000175,0,60,3.0,1,4.112788541105521e-14
2.14,0.0018793744894085216,77.50000000000098,0,60,3.0,1,2.3071740596445606e-14
2.145,0.004535525206900863,77.50000000000055,0,60,3.0,1,1.3040549032773603e-14
2.15,0.010832767979632273,77.50000000000031,0,60,3.0,1,7.356207146692803e-15
2.155,0.024208003392322392,77.50000000000017,0,60,3.0,1,4.012476625468801e-15
2.16,0.0500971897335304,77.5000000000001,0,60,3.0,1,2.3406113648568006e-15
2.165,0.09582894921774403,77.50000000000006,0,60,3.0,1,1.3374922084896003e-15
2.17,0.16937896721820658,77.50000000000003,0,60,3.0,1,6.687461042448002e-16
2.175,0.27661303008991756,77.50000000000001,0,60,3.0,1,3.343730521224001e-16
2.18,0.4173782800009149,77.50000000000001,0,60,3.0,1,3.343730521224001e-16
2.185,0.5818720934538056,77.5,0,60,3.0,1,0.0
2.19,0.7494718801585675,77.5,0,60,3.0,1,0.0
2.195,0.891813020752378,77.5,0,60,3.0,1,0.0
2.2,0.9800361632936612,77.5,0,60,3.0,1,0.0
2.205,0.993574479225126,77.5000024903571,1,60,3.0,1,5.85966377537475e-08
2.21,0.9263438449375362,77.50000416944162,0,60,3.0,1,9.810450879901027e-08
2.215,0.7873015962290536,77.5000072154645,0,60,3.0,1,1.6977563545344095e-07
2.22,0.5959516244629897,77.50001314933436,0,60,3.0,1,3.0939610269342665e-07
2.225,0.376910120078773,77.50002560727312,0,60,3.0,1,6.025240733218679e-07
2.23,0.15739335672107918,77.50005340949218,0,60,3.0,1,1.256693933689402e-06
2.235,-0.033361226269301235,77.50011778914693,0,60,3.0,1,2.7715093394550313e-06
2.24,-0.1680180840843834,77.50026876554193,0,60,3.0,1,6.323895104287658e-06
2.245,-0.23069703190837854,77.50062067574127,0,60,3.0,1,1.460413508880265e-05
2.25,-0.22587267821131068,77.50142586093827,0,60,3.0,1,3.354966913574946e-05
2.255,-0.17718181630665902,77.50322035828925,0,60,3.0,1,7.577313621776311e-05
2.26,-0.11494332516451301,77.50709786340886,0,60,3.0,1,0.00016700855079668198
2.265,-0.061810214049552864,77.51519826380009,0,60,3.0,1,0.0003576062070608794
2.27,-0.026546104631500547,77.53153070087102,0,60,3.0,1,0.0007418988440239152
2.275,-0.00719600351942686,77.56327706306806,0,60,3.0,1,0.0014888720721895718
2.28,0.0022072757983807078,77.62271833184506,0,60,3.0,1,0.0028874901610603343
2.285,0.006917199873730717,77.72986074774201,0,60,3.0,1,0.0054084881821649215
2.29,0.01004859748264829,77.91567352809375,0,60,3.0,1,0.009780553602205842
2.295,0.013037082251128167,78.22555667070115,0,60,3.0,1,0.01707192166355653
2.3,0.01645163937690478,78.72224238239411,0,60,3.0,1,0.028758644291626216
2.305,0.020526639934696615,79.4868663781772,0,60,3.0,1,0.04674979713358111
2.31,0.02539629541761738,80.61657811729214,0,60,3.0,1,0.07333124981863849
2.315,0.031171612185577933,82.2170175972725,0,60,3.0,1,0.11098864934758829
2.32,0.03795853426638131,84.38851268549169,0,60,3.0,1,0.1620826514233339
2.325,0.0458588961882057,87.20609766712286,0,60,3.0,1,0.228378768638185
2.33,0.054966995891435555,90.69535487262505,0,60,3.0,1,0.31047893817941286
2.335,0.06536491004445595,94.80825810793363,0,60,3.0,1,0.4072531319513794
2.34,0.07711726085088699,99.4049681395633,0,60,3.0,1,0.5154110150485481
2.345,0.09026570629555215,104.24807816802186,0,60,3.0,1,0.6293665451299262
2.35,0.10482339848670268,109.01447879914846,0,60,3.0,1,0.7415171482152579
2.355,0.12076968927580028,113.32666561005014,0,60,3.0,1,0.8429803672952975
2.36,0.13804539501007884,116.80054170644286,0,60,3.0,1,0.9247186283868908
2.365,0.15654895051787066,119.10185827304973,0,60,3.0,1,0.978867253483523
2.37,0.17613378141900526,120.0,0,60,3.0,1,1.0
2.375,0.19660720058055794,119.4072107072499,0,60,3.0,1,0.9860520166411741
2.38,0.21773108748496234,117.39408349124403,0,60,3.0,1,0.9386843174410361
2.385,0.23922453870058807,114.17759551601486,0,60,3.0,1,0.8630022474356438
2.39,0.2607685857914563,110.08455727627481,0,60,3.0,1,0.7666954653241131
2.395,0.2820129681603682,105.49905917548612,0,60,3.0,1,0.6588013923643794
2.4,0.30258482867153996,100.80564749053053,0,60,3.0,1,0.5483681762477772
2.405,0.3220990771751686,96.33978539338344,0,60,3.0,1,0.44328906807961027
2.41,0.3401700499968971,92.35402770480265,0,60,3.0,2,0.34950653423065053
2.415,0.3564239911198326,89.0035308612286,0,60,3.0,2,0.2706713143818493
2.42,0.3705118017738417,86.3496458428234,0,60,3.0,2,0.20822696100760957
2.425,0.3821214567925213,84.37675760150022,0,60,3.0,2,0.1618060612117698
2.43,0.39098947374066967,83.01593434174235,0,60,3.0,2,0.12978669039393767
2.435,0.3969108472035567,82.16928063169652,0,60,3.0,2,0.10986542662815349
2.44,0.3997469255491936,81.73054591123991,0,60,3.0,2,0.09954225673505682
2.445,0.3994308076379137,81.59970825176937,0,60,3.0,2,0.09646372357104403
2.45,0.3959699661768434,81.69122004553117,0,60,3.0,2,0.09861694224779217
2.455,0.38944595408114946,81.93694526078366,0,60,3.0,2,0.10439871201843905
2.46,0.38001120995358023,82.28543363967856,0,60,3.0,2,0.11259843858067196
2.465,0.3678831374098315,82.69919676482843,0,60,3.0,2,0.12233404152537479
2.47,0.35333577933796634,83.15131151352294,0,60,3.0,2,0.1329720356123045
2.475,0.33668953221163944,83.62221027868166,0,60,3.0,2,0.14405200655721562
2.48,0.3182994390982644,84.09708803287764,0,60,3.0,2,0.15522560077359143
2.485,0.29854265738230645,84.56404367873319,0,60,3.0,2,0.16621279244078083
2.49,0.2778057157821067,85.01289017069989,0,60,3.0,2,0.1767738863694092
2.495,0.2564721553719815,85.43448949274016,0,60,3.0,2,0.18669387041741542
2.5,0.23491109433464996,85.8204572508399,0,60,3.0,2,0.19577546472564455
2.505,0.21346717185309805,86.16310378255938,0,60,3.0,2,0.2038377360602206
2.51,0.19245222055656455,86.45551120255469,0,60,3.0,2,0.21071791064834564
2.515,0.17213889801761392,86.69167622571658,0,60,3.0,2,0.216274734722743
2.52,0.15275638501270183,86.86667222599849,0,60,3.0,2,0.22039228767055258
2.525,0.13448814019607322,86.97680050238533,0,60,3.0,2,0.222983541232596
2.53,0.11747159495449566,87.01971168144442,0,60,3.0,2,0.22399321603398636
2.535,0.10179958433370105,86.99448545751416,0,60,3.0,2,0.22339965782386256
2.54,0.08752324394101413,86.90166196793054,0,60,3.0,2,0.22121557571601264
2.545,0.07465606047174059,86.74322200858629,0,60,3.0,2,0.2174875766726185
2.55,0.0631787448609295,86.5225165485919,0,60,3.0,2,0.21229450702569164
2.555,0.05304460019959574,86.24414882365753,0,60,3.0,2,0.20574467820370648
2.56,0.044185078305849994,85.91381471593182,0,60,3.0,2,0.19797211096310166
2.565,0.03651525513023255,85.53810911696125,0,60,3.0,2,0.18913197922261768
2.57,0.0299390014708757,85.12430744888499,0,60,3.0,2,0.17939546938552922
2.575,0.024353677220580638,84.68013242689159,0,60,3.0,2,0.16894429239744915
2.58,0.01965423034339045,84.21351645347437,0,60,3.0,2,0.15796509302292633
2.585,0.015736632374757337,83.73236975040956,0,60,3.0,2,0.14664399412728377
2.59,0.012500627640593535,83.24436350472396,0,60,3.0,2,0.13516149422879914
2.595,0.009851811652115898,82.75673601181047,0,60,3.0,2,0.12368790616024646
2.6,0.007703084175428559,82.27612815078558,0,60,3.0,2,0.11237948590083721
2.605,0.005975544002062424,81.80845264988295,0,60,3.0,2,0.10137535646783416
2.61,0.004598905818663047,81.35879962552896,0,60,3.0,2,0.09079528530656375
2.615,0.0035115256454839104,80.9313789364086,0,60,3.0,2,0.08073832791549662
2.62,0.002660121266303676,80.52949809894774,0,60,3.0,2,0.07128230821053508
2.625,0.0019992692560877024,80.15557295837586,0,60,3.0,2,0.06248406960884368
2.63,0.0014907520044639367,79.81116706946402,0,60,3.0,2,0.05438040163444752
2.635,0.0011028178277539807,79.49705485456235,0,60,3.0,2,0.04698952598970235
2.64,0.0008094059938923333,79.21330308690149,0,60,3.0,2,0.04031301380944683
2.645,0.0005893771793717645,78.95936508151084,0,60,3.0,2,0.034338001917902095
2.65,0.0004257792353490551,78.7341821298453,0,60,3.0,2,0.029039579525771627
2.655,0.0003051686392901525,78.53628713595396,0,60,3.0,2,0.02438322672832836
2.66,0.00021699992642659966,78.36390603969522,0,60,3.0,2,0.020327200934005252
2.665,0.00015308884054097838,78.21505337927073,0,60,3.0,2,0.01682478539460536
2.67,0.00010714989329311098,78.08761918513157,0,60,3.0,2,0.013826333767801704
2.675,7.440535854020571e-05,77.97944524939552,0,60,3.0,2,0.011281064691659407
2.68,5.1260276743925106e-05,77.88838962747735,0,60,3.0,2,0.00913857947005534
2.685,3.503659887882241e-05,77.81237896098483,0,60,3.0,2,0.007350093199643064
2.69,2.375894748103639e-05,77.74944883453063,0,60,3.0,2,0.005869384341897063
2.695,1.5984413869232557e-05,77.69777287747108,0,60,3.0,2,0.004653479469907793
2.7,1.0669166579899869e-05,77.65568168927338,0,60,3.0,2,0.0036630985711383346
2.705,7.06526633560511e-06,77.62167290817216,0,60,3.0,2,0.0028628919569919564
2.71,4.641847214699205e-06,77.59441386825145,0,60,3.0,2,0.002221502782387073
2.715,3.025641074479182e-06,77.57273831639665,0,60,3.0,2,0.0017114897975682867
2.72,1.9566278676921314e-06,77.55563860693432,0,60,3.0,2,0.0013091436925723133
2.725,1.2553456560008793e-06,77.54225467840982,0,60,3.0,2,0.0009942277272898536
2.73,7.990660428214668e-07,77.53186096340568,0,60,3.0,2,0.0007496697271924003
2.735,5.046221251618276e-07,77.52385220629196,0,60,3.0,2,0.0005612283833403019
2.74,3.1616527078858815e-07,77.51772898039671,0,60,3.0,2,0.00041715247992261966
2.745,1.9652884407760343e-07,77.51308351729422,0,60,3.0,2,0.0003078474657463496
2.75,1.2120002189836396e-07,77.50958629558147,0,60,3.0,2,0.00022555989603461056
2.755,7.415549848886236e-08,77.50697369049615,0,60,3.0,2,0.00016408683520360094
2.76,4.501406988770349e-08,77.50503686222629,0,60,3.0,2,0.00011851440532449059
2.765,0.0,77.50361196076952,0,60,3.0,2,8.49873122239628e-05
2.77,0.0,77.50257164802554,0,60,3.0,2,6.05093653067503e-05
2.775,0.0,77.50181788154417,0,60,3.0,2,4.277368339223679e-05
2.78,0.0,77.50127586635017,0,60,3.0,2,3.0020384709881482e-05
2.785,0.0,77.50088905849569,0,60,3.0,2,2.0919023427937003e-05
2.79,0.0,77.50061509336065,0,60,3.0,2,1.447278495648414e-05
2.795,0.0,77.50042251029167,0,60,3.0,2,9.94141862754398e-06
2.8,0.0,77.50028815031256,0,60,3.0,2,6.780007354269829e-06
2.805,0.001684486749771458,77.5001951131084,0,60,3.0,2,4.590896668332789e-06
2.81,0.003097557930867117,77.50013117145946,0,60,3.0,2,3.0863872813610856e-06
2.815,0.005475106668887023,77.50008755436518,0,60,3.0,2,2.0601027101212607e-06
2.82,0.00930222931468658,77.50005802321733,0,60,3.0,2,1.3652521725843517e-06
2.825,0.01519157517868857,77.5000381778405,0,60,3.0,2,8.98302129277962e-07
2.83,0.023847336626128316,77.500024940575,0,60,3.0,2,5.868370588841037e-07
2.835,0.0359830743700859,77.50001617659508,0,60,3.0,2,3.806257666383317e-07
2.84,0.05218887796857759,77.50001041725554,0,60,3.0,2,2.451118950161532e-07
2.845,0.0727577001223134,77.50000666047298,0,60,3.0,2,1.5671701121658879e-07
2.85,0.0974992498694751,77.50000422807199,0,60,3.0,2,9.948404674693901e-08
2.855,0.12558706050443358,77.50000266480372,0,60,3.0,2,6.270126391427766e-08
2.86,0.15549263588878245,77.5000016675299,0,60,3.0,2,3.923599766655089e-08
2.865,0.1850529723539114,77.50000103601867,0,60,3.0,2,2.4376909965105692e-08
2.87,0.21169159439317053,77.50000063906802,0,60,3.0,2,1.503689458438791e-08
2.875,0.23277292922115492,77.50000039139218,0,60,3.0,2,9.209227701991468e-09
2.88,0.24602692519491282,77.50000023799221,0,60,3.0,2,5.599816725353936e-09
2.885,0.24995056064839283,77.50000014368085,0,60,3.0,2,3.380725890083875e-09
2.89,0.24408826520424054,77.50000008612328,0,60,3.0,2,2.026430098232916e-09
2.895,0.22911894216865275,77.500000051254,0,60,3.0,2,1.205976599628818e-09
2.9,0.20672661788705934,77.50000003028451,0,60,3.0,2,7.125767270361607e-10
2.905,0.17928878030241233,77.50000001776638,0,60,3.0,2,4.1803252101732034e-10
2.91,0.14946211903866036,77.50000001034816,0,60,3.0,2,2.4348610970585415e-10
2.915,0.1197651512573837,77.50000000598429,0,60,3.0,2,1.4080683286010753e-10
2.92,0.09224675744988023,77.50000000343596,0,60,3.0,2,8.084605403436238e-11
2.925,0.06829565320281596,77.5000000019587,0,60,3.0,2,4.6086972147082525e-11
2.93,0.04860224607515734,77.5000000011086,0,60,3.0,2,2.6084776169120553e-11
2.935,0.03324612389699793,77.50000000062296,0,60,3.0,2,1.4657911485889653e-11
2.94,0.021859876340472782,77.50000000034757,0,60,3.0,2,8.178096108809662e-12
2.945,0.01381595518554205,77.50000000019253,0,60,3.0,2,4.530086110154276e-12
2.95,0.008394095110402422,77.50000000010589,0,60,3.0,2,2.491413611364003e-12
2.955,0.0049052535271608,77.50000000005782,0,60,3.0,2,1.3605639490860459e-12
2.96,0.0027671663551903634,77.50000000003135,0,60,3.0,2,7.376269529820146e-13
2.965,0.0015425553464444616,77.50000000001687,0,60,3.0,2,3.969008128692889e-13
2.97,0.0009638206637011801,77.50000000000902,0,60,3.0,2,2.1232688809772406e-13
2.975,0.0009804935156568228,77.50000000000479,0,60,3.0,2,1.1268371856524883e-13
2.98,0.0018793744894085216,77.50000000000252,0,60,3.0,2,5.918403022566482e-14
2.985,0.004535525206900863,77.50000000000132,0,60,3.0,2,3.109669384738321e-14
2.99,0.010832767979632273,77.50000000000068,0,60,3.0,2,1.6049906501875204e-14
2.995,0.024208003392322392,77.50000000000036,0,60,3.0,2,8.359326303060002e-15
3.0,0.0500971897335304,77.50000000000018,0,60,3.0,2,4.3468496775912015e-15
3.005,0.09582894921774403,77.50000000000009,0,60,3.0,2,2.0062383127344005e-15
3.01,0.16937896721820658,77.50000000000004,0,60,3.0,2,1.0031191563672002e-15
3.015,0.27661303008991756,77.50000000000003,0,60,3.0,2,6.687461042448002e-16
3.02,0.4173782800009149,77.50000000000001,0,60,3.0,2,3.343730521224001e-16
3.025,0.5818720934538056,77.5,0,60,3.0,2,0.0
3.03,0.7494718801585675,77.5,0,60,3.0,2,0.0
3.035,0.891813020752378,77.5,0,60,3.0,2,0.0
3.04,0.9800361632936612,77.5,0,60,3.0,2,0.0
3.045,0.993574479225126,77.50000249379623,1,60,3.0,2,5.8677558372972485e-08
3.05,0.9263438449375362,77.50000374914603,0,60,3.0,2,8.821520074942621e-08
3.055,0.7873015962290536,77.50000574205839,0,60,3.0,2,1.3510725626902592e-07
3.06,0.5959516244629897,77.50000904290425,0,60,3.0,2,2.1277421771682224e-07
3.065,0.376910120078773,77.50001477842311,0,60,3.0,2,3.477276025290955e-07
3.07,0.15739335672107918,77.50002521824138,0,60,3.0,2,5.93370385318207e-07
3.075,-0.033361226269301235,77.50004495906866,0,60,3.0,2,1.0578604390582981e-06
3.08,-0.1680180840843834,77.5000832626602,0,60,3.0,2,1.9591214164152276e-06
3.085,-0.23069703190837854,77.50015855775519,0,60,3.0,2,3.730770710235982e-06
3.09,-0.22587267821131068,77.50030687962926,0,60,3.0,2,7.220697159147997e-06
3.095,-0.17718181630665902,77.50059725115638,0,60,3.0,2,1.4052968385372237e-05
3.1,-0.11494332516451301,77.50115890175013,0,60,3.0,2,2.726827647366543e-05
3.105,-0.061810214049552864,77.502227982956,0,60,3.0,2,5.242312837648409e-05
3.11,-0.026546104631500547,77.50422523134473,0,60,3.0,2,9.941720811137683e-05
3.115,-0.00719600351942686,77.50788085207563,0,60,3.0,2,0.00018543181354422868
3.12,0.0022072757983807078,77.51442842473308,0,60,3.0,2,0.0003394923466607773
3.125,0.006917199873730717,77.52589499534879,0,60,3.0,2,0.0006092940082068895
3.13,0.01004859748264829,77.54551806446773,0,60,3.0,2,0.0010710132815936102
3.135,0.013037082251128167,77.57831931533336,0,60,3.0,2,0.001842807419608468
3.14,0.01645163937690478,77.63185613703956,0,60,3.0,2,0.0031024973421073594
3.145,0.020526639934696615,77.71715124028381,0,60,3.0,2,0.005109440947854396
3.15,0.02539629541761738,77.84976424958334,0,60,3.0,2,0.008229747049019874
3.155,0.031171612185577933,78.05091521223822,0,60,3.0,2,0.012962710876193488
3.16,0.03795853426638131,78.34850034697884,0,60,3.0,2,0.0199647140465609
3.165,0.0458588961882057,78.77776263344921,0,60,3.0,2,0.030065003139981505
3.17,0.054966995891435555,79.38130867176919,0,60,3.0,2,0.04426608639456918
3.175,0.06536491004445595,80.20812022232984,0,60,3.0,2,0.06372047581952563
3.18,0.07711726085088699,81.31122000278289,0,60,3.0,2,0.08967576477136209
3.185,0.09026570629555215,82.74374175486754,0,60,3.0,2,0.12338215893805983
3.19,0.10482339848670268,84.5533405253622,0,60,3.0,2,0.16596095353793416
3.195,0.12076968927580028,86.77515893010619,0,60,3.0,2,0.21823903364955735
3.2,0.13804539501007884,89.42391197979815,0,60,3.0,2,0.28056263481877997
3.205,0.15654895051787066,92.48601184868365,0,60,3.0,2,0.3526120434984387
3.21,0.17613378141900526,95.91294646423091,0,60,3.0,2,0.4332457991583744
3.215,0.19660720058055794,99.61726401786359,0,60,3.0,2,0.5204062121850257
3.22,0.21773108748496234,103.4724229370135,0,60,3.0,2,0.6111158338120825
3.225,0.23922453870058807,107.317402683545,0,60,3.0,2,0.7015859454951764
3.23,0.2607685857914563,110.96635024110174,0,60,3.0,2,0.7874435350847467
3.235,0.2820129681603682,114.22274096962201,0,60,3.0,2,0.8640644934028708
3.24,0.30258482867153996,116.8966991332729,0,60,3.0,2,0.9269811560770095
3.245,0.3220990771751686,118.82342375535035,0,60,3.0,2,0.972315853067067
3.25,0.3401700499968971,119.88026396726374,0,60,3.0,2,0.9971826815826763
3.255,0.3564239911198326,120.0,0,60,3.0,2,1.0
3.26,0.3705118017738417,119.1783433081767,0,60,3.0,2,0.9806669013688634
3.265,0.3821214567925213,117.47450566886323,0,60,3.0,2,0.9405766039732525
3.27,0.39098947374066967,115.00474839088832,0,60,3.0,2,0.8824646680209017
3.275,0.3969108472035567,111.92990155349591,0,60,3.0,2,0.810115330670492
3.28,0.3997469255491936,108.43872783044789,0,60,3.0,2,0.7279700665987738
3.285,0.3994308076379137,104.7295305019311,0,60,3.0,2,0.6406948353395552
3.29,0.3959699661768434,100.99248893952765,0,60,3.0,2,0.5527644456359446
3.295,0.38944595408114946,97.39486371458231,0,60,3.0,2,0.4681144403431133
3.3,0.38001120995358023,94.07055139237116,0,60,3.0,2,0.3898953268793214
3.305,0.3678831374098315,91.1146454134743,0,60,3.0,2,0.3203445979641013
3.31,0.35333577933796634,88.5828469468639,0,60,3.0,2,0.260772869337974
3.315,0.33668953221163944,86.49491404388809,0,60,3.0,2,0.21164503632677853
3.32,0.3182994390982644,84.84092970825792,0,60,3.0,2,0.17272775784136277
3.325,0.29854265738230645,83.58903512890866,0,60,3.0,2,0.14327141479785088
3.33,0.2778057157821067,82.69338027079178,0,60,3.0,2,0.12219718284215948
3.335,0.2564721553719815,82.10131785759242,0,60,3.0,2,0.10826630253158635
3.34,0.23491109433464996,81.75922079911874,0,60,3.0,2,0.10021695997926439
3.345,0.21346717185309805,81.61665631936843,0,60,3.0,2,0.09686250163219838
3.35,0.19245222055656455,81.62894315447333,0,60,3.0,2,0.09715160363466667
3.355,0.17213889801761392,81.75831982609262,0,60,3.0,2,0.10019576061394392
3.36,0.15275638501270183,81.9740569196691,0,60,3.0,2,0.10527192752162577
3.365,0.13448814019607322,82.25186848048502,0,60,3.0,2,0.11180867012905918
3.37,0.11747159495449566,82.57294133248891,0,60,3.0,2,0.11936332547032728
3.375,0.10179958433370105,82.92283264526998,0,60,3.0,2,0.12759606224164652
3.38,0.08752324394101413,83.29040798078412,0,60,3.0,2,0.1362448936655088
3.385,0.07465606047174059,83.66692017809487,0,60,3.0,2,0.1451040041904675
3.39,0.0631787448609295,84.04527242910562,0,60,3.0,2,0.1540064100966029
3.395,0.05304460019959574,84.41946941505594,0,60,3.0,2,0.16281104506013983
3.4,0.044185078305849994,84.78423701164296,0,60,3.0,2,0.17139381203865783
3.405,0.03651525513023255,85.13478033273678,0,60,3.0,2,0.1796418901820419
3.41,0.0299390014708757,85.466647720412,0,60,3.0,2,0.18745053459792937
3.415,0.024353677220580638,85.77567108148466,0,60,3.0,2,0.19472167250552141
3.42,0.01965423034339045,86.05795797916235,0,60,3.0,2,0.20136371715676124
3.425,0.015736632374757337,86.30991632969506,0,60,3.0,2,0.20729214893400133
3.43,0.012500627640593535,86.52829745546912,0,60,3.0,2,0.2124305283639792
3.435,0.009851811652115898,86.71024721641409,0,60,3.0,2,0.21671169920974329
3.44,0.007703084175428559,86.85335794517667,0,60,3.0,2,0.22007901047474515
3.445,0.005975544002062424,86.95571609025774,0,60,3.0,2,0.22248743741782911
3.45,0.004598905818663047,87.0159420257872,0,60,3.0,2,0.2239045182538164
3.455,0.0035115256454839104,87.03321960866413,0,60,3.0,2,0.2243110496156265
3.46,0.002660121266303676,87.0073139066997,0,60,3.0,2,0.2237015036870516
3.465,0.0019992692560877024,86.938576193165,0,60,3.0,2,0.22208414572152954
3.47,0.0014907520044639367,86.82793587151944,0,60,3.0,2,0.2194808440357516
3.475,0.0011028178277539807,86.67687949596854,0,60,3.0,2,0.21592657637573023
3.48,0.0008094059938923333,86.4874175045347,0,60,3.0,2,0.21146864716552247
3.485,0.0005893771793717645,86.26203968403271,0,60,3.0,2,0.20616563962429918
3.49,0.0004257792353490551,86.00366073614138,0,60,3.0,2,0.20008613496803257
3.495,0.0003051686392901525,85.71555760321358,0,60,3.0,2,0.19330723772267253
3.5,0.00021699992642659966,85.40130043404575,0,60,3.0,2,0.1859129513893118
3.505,0.00015308884054097838,85.06467921767266,0,60,3.0,2,0.17799245218053322
3.51,0.00010714989329311098,84.70962818415443,0,60,3.0,2,0.16963831021539824
3.515,7.440535854020571e-05,84.34015006520161,0,60,3.0,2,0.16094470741650854
3.52,5.1260276743925106e-05,83.9602422274949,0,60,3.0,2,0.1520056994704683
3.525,3.503659887882241e-05,83.57382654391216,0,60,3.0,2,0.14291356573910968
3.53,2.375894748103639e-05,83.18468466146989,0,60,3.0,2,0.13375728615223265
3.535,1.5984413869232557e-05,82.79640007066425,0,60,3.0,2,0.12462117813327642
3.54,1.0669166579899869e-05,82.41230809162077,0,60,3.0,2,0.11558371980284171
3.545,7.06526633560511e-06,82.03545458144112,0,60,3.0,2,0.10671657838684977
3.55,4.641847214699205e-06,81.66856384791926,0,60,3.0,2,0.09808385524515903
3.555,3.025641074479182e-06,81.31401594043791,0,60,3.0,2,0.08974155153971558
3.56,1.9566278676921314e-06,80.97383319129152,0,60,3.0,2,0.08173725155980044
3.565,1.2553456560008793e-06,80.64967561027302,0,60,3.0,2,0.07411001435936522
3.57,7.990660428214668e-07,80.34284450049499,0,60,3.0,2,0.06689045883517625
3.575,5.046221251618276e-07,80.0542934702713,0,60,3.0,2,0.06010102282991304
3.58,3.1616527078858815e-07,79.78464586832229,0,60,3.0,2,0.05375637337228909
3.585,1.9652884407760343e-07,79.53421756914149,0,60,3.0,2,0.04786394280332916
3.59,1.2120002189836396e-07,79.30304398146892,0,60,3.0,2,0.04242456426985688
3.595,7.415549848886236e-08,79.09091014291228,0,60,3.0,2,0.03743317983323008
3.6,4.501406988770349e-08,78.89738279368821,0,60,3.0,2,0.032879595145604915
3.605,0.0,78.72184338679693,0,60,3.0,2,0.028749256159927856
3.61,0.0,78.56352108441183,0,60,3.0,2,0.025024025515572517
3.615,0.0,78.42152490408645,0,60,3.0,3,0.021682938919681257
3.62,0.0,78.29487430668186,0,60,3.0,3,0.01870292486310264
3.625,0.0,78.18252765403497,0,60,3.0,3,0.016059474212587542
3.63,0.0,78.08340810217774,0,60,3.0,3,0.013727249463005698
3.635,0.0,77.99642662994414,0,60,3.0,3,0.01168062658692092
3.64,0.0,77.92050202852263,0,60,3.0,3,0.009894165377003153
3.645,0.0,77.85457779134715,0,60,3.0,3,0.008343006855227151
3.65,0.0,77.79763594309105,0,60,3.0,3,0.00700319866096593
3.655,0.0,77.7487079298358,0,60,3.0,3,0.0058519512902541785
3.66,0.0,77.70688275903142,0,60,3.0,3,0.004867829624268605
3.665,0.0,77.67131262775425,0,60,3.0,3,0.004030885358923463
3.67,0.0,77.64121631177731,0,60,3.0,3,0.0033227367477014894
3.675,0.0,77.61588060740796,0,60,3.0,3,0.0027266025272461
3.68,0.0,77.59466012461155,0,60,3.0,3,0.0022272970496835433
3.685,0.0,77.57697572556901,0,60,3.0,3,0.0018111935428003242
3.69,0.0,77.56231188956468,0,60,3.0,3,0.0014661621074042962
3.695,0.0,77.5502132650315,0,60,3.0,3,0.0011814885889765158
3.7,0.0,77.54028064465962,0,60,3.0,3,0.0009477798743439374
3.705,0.0,77.53216657151289,0,60,3.0,3,0.0007568605061856167
3.71,0.0,77.52557075468849,0,60,3.0,3,0.0006016648161997129
3.715,0.0,77.52023544355008,0,60,3.0,3,0.0004761280835312471
3.72,0.0,77.5159408810574,0,60,3.0,3,0.0003750795542918481
3.725,0.0,77.51250093004288,0,60,3.0,3,0.0002941395304206066
3.73,0.0,77.50975894204335,0,60,3.0,3,0.00022962216572583363
3.735,0.0,77.50758391686,0,60,3.0,3,0.000178445102588231
3.74,0.0,77.505866982575,0,60,3.0,3,0.00013804664882353362
3.745,0.0,77.50451821032726,0,60,3.0,3,0.00010631083122970107
3.75,0.0,77.50346376564148,0,60,3.0,3,8.150036803492773e-05
3.755,0.0,77.50264338831892,0,60,3.0,3,6.219737220977978e-05
3.76,0.0,77.50200818557703,0,60,3.0,3,4.72514253417825e-05
3.765,0.0,77.50151871796827,0,60,3.0,3,3.5734540429811044e-05
3.77,0.0,77.5011433542997,0,60,3.0,3,2.6902454110581055e-05
3.775,0.0,77.50085686999996,0,60,3.0,3,2.01616470579826e-05
3.78,0.0,77.50063926283588,0,60,3.0,3,1.5041478491184535e-05
3.785,0.0,77.50047476029029,0,60,3.0,3,1.1170830359721068e-05
3.79,0.0,77.50035099402773,0,60,3.0,3,8.258683005338111e-06
3.795,0.0,77.5002583184806,0,60,3.0,3,6.078081896569475e-06
3.8,0.0,77.5001892525059,0,60,3.0,3,4.453000138937569e-06
3.805,0.0,77.50013802514448,0,60,3.0,3,3.2476504583535324e-06
3.81,0.0,77.50010020864568,0,60,3.0,3,2.3578504865059477e-06
3.815,0.0,77.50007242401301,0,60,3.0,3,1.704094423824726e-06
3.82,0.0,77.50005210631836,0,60,3.0,3,1.2260310203306718e-06
3.825,0.0,77.50003731888009,0,60,3.0,3,8.780912962185325e-07
3.83,0.0,77.50002660708068,0,60,3.0,3,6.260489572816689e-07
3.835,0.0,77.5000188840987,0,60,3.0,3,4.443317339684975e-07
3.84,0.0,77.50001334214654,0,60,3.0,3,3.1393285988034384e-07
3.845,0.0,77.50000938394734,0,60,3.0,3,2.2079876102639794e-07
3.85,0.0,77.50000657015823,0,60,3.0,3,1.5459195845537846e-07
3.855,0.0,77.50000457927268,0,60,3.0,3,1.0774759255796466e-07
3.86,0.001684486749771458,77.50000317722223,0,60,3.0,3,7.475817001785104e-08
3.865,0.003097557930867117,77.50000219446719,0,60,3.0,3,5.163452201754005e-08
3.87,0.005475106668887023,77.5000015088324,0,60,3.0,3,3.5501938769170115e-08
3.875,0.00930222931468658,77.50000103272174,0,60,3.0,3,2.4299335082640242e-08
3.88,0.01519157517868857,77.50000070364895,0,60,3.0,3,1.6556445897924062e-08
3.885,0.023847336626128316,77.50000047726456,0,60,3.0,3,1.1229754443989162e-08
3.89,0.0359830743700859,77.50000032224986,0,60,3.0,3,7.58234966055812e-09
3.895,0.05218887796857759,77.50000021659912,0,60,3.0,3,5.0964498608236145e-09
3.9,0.0727577001223134,77.50000014492758,0,60,3.0,3,3.410060772319626e-09
3.905,0.0974992498694751,77.50000009653301,0,60,3.0,3,2.2713650463736165e-09
3.91,0.12558706050443358,77.50000006400752,0,60,3.0,3,1.5060593608830138e-09
3.915,0.15549263588878245,77.50000004224901,0,60,3.0,3,9.940944276904167e-10
3.92,0.1850529723539114,77.50000002776085,0,60,3.0,3,6.531964198289001e-10
3.925,0.21169159439317053,77.50000001815846,0,60,3.0,3,4.2725787352537734e-10
3.93,0.23277292922115492,77.50000001182377,0,60,3.0,3,2.782064043190878e-10
3.935,0.24602692519491282,77.50000000766414,0,60,3.0,3,1.8033273697844433e-10
3.94,0.24995056064839283,77.50000000494539,0,60,3.0,3,1.1636215651164735e-10
3.945,0.24408826520424054,77.50000000317665,0,60,3.0,3,7.474474895228495e-11
3.95,0.22911894216865275,77.50000000203127,0,60,3.0,3,4.779461532427162e-11
3.955,0.20672661788705934,77.50000000129299,0,60,3.0,3,3.0423266520408696e-11
3.96,0.17928878030241233,77.50000000081933,0,60,3.0,3,1.9278278320116976e-11
3.965,0.14946211903866036,77.50000000051682,0,60,3.0,3,1.2160479159587447e-11
3.97,0.1197651512573837,77.50000000032453,0,60,3.0,3,7.636077391319251e-12
3.975,0.09224675744988023,77.50000000020287,0,60,3.0,3,4.773509692099383e-12
3.98,0.06829565320281596,77.50000000012624,0,60,3.0,3,2.97023582200328e-12
3.985,0.04860224607515734,77.5000000000782,0,60,3.0,3,1.8400549058295675e-12
3.99,0.03324612389699793,77.50000000004822,0,60,3.0,3,1.1345277658513034e-12
3.995,0.021859876340472782,77.5000000000296,0,60,3.0,3,6.964990675709594e-13
4.0,0.01381595518554205,77.50000000001809,0,60,3.0,3,4.256568953518153e-13
4.005,0.008394095110402422,77.500000000011,0,60,3.0,3,2.5880474234273766e-13
4.01,0.0049052535271608,77.50000000000666,0,60,3.0,3,1.5682096144540564e-13
4.015,0.0027671663551903634,77.50000000000402,0,60,3.0,3,9.462757375063923e-14
4.02,0.0015425553464444616,77.50000000000242,0,60,3.0,3,5.684341886080802e-14
4.025,0.0009638206637011801,77.50000000000144,0,60,3.0,3,3.377167826436241e-14
4.03,0.0009804935156568228,77.50000000000085,0,60,3.0,3,2.0062383127344007e-14
4.035,0.0018793744894085216,77.50000000000051,0,60,3.0,3,1.2037429876406403e-14
4.04,0.004535525206900863,77.5000000000003,0,60,3.0,3,7.021834094570402e-15
4.045,0.010832767979632273,77.50000000000017,0,60,3.0,3,4.012476625468801e-15
4.05,0.024208003392322392,77.5000000000001,0,60,3.0,3,2.3406113648568006e-15
4.055,0.0500971897335304,77.50000000000006,0,60,3.0,3,1.3374922084896003e-15
4.06,0.09582894921774403,77.50000000000003,0,60,3.0,3,6.687461042448002e-16
4.065,0.16937896721820658,77.50000000000001,0,60,3.0,3,3.343730521224001e-16
4.07,0.27661303008991756,77.50000000000001,0,60,3.0,3,3.343730521224001e-16
4.075,0.4173782800009149,77.5,0,60,3.0,3,0.0
4.08,0.5818720934538056,77.5,0,60,3.0,3,0.0
4.085,0.7494718801585675,77.5,0,60,3.0,3,0.0
4.09,0.891813020752378,77.5,0,60,3.0,3,0.0
4.095,0.9800361632936612,77.5,0,60,3.0,3,0.0
4.1,0.993574479225126,77.5000024899223,1,60,3.0,3,5.858640694147171e-08
4.105,0.9263438449375362,77.50000376594136,0,60,3.0,3,8.86103848910459e-08
4.11,0.7873015962290536,77.50000580655897,0,60,3.0,3,1.366249170373254e-07
4.115,0.5959516244629897,77.50000921610113,0,60,3.0,3,2.1684943844240265e-07
4.12,0.376910120078773,77.50001520125163,0,60,3.0,3,3.5767650889711684e-07
4.125,0.15739335672107918,77.50002621870189,0,60,3.0,3,6.169106327166339e-07
4.13,-0.033361226269301235,77.5000472946736,0,60,3.0,3,1.1128158495707526e-06
4.135,-0.1680180840843834,77.50008865159667,0,60,3.0,3,2.085919921642819e-06
4.14,-0.23069703190837854,77.50017080335597,0,60,3.0,3,4.018902493432024e-06
4.145,-0.22587267821131068,77.50033416889595,0,60,3.0,3,7.862797551685136e-06
4.15,-0.17718181630665902,77.50065668969144,0,60,3.0,3,1.5451522151512537e-05
4.155,-0.11494332516451301,77.50128514742521,0,60,3.0,3,3.023876294605543e-05
4.16,-0.061810214049552864,77.50248910111931,0,60,3.0,3,5.8567085160214394e-05
4.165,-0.026546104631500547,77.50475076687931,0,60,3.0,3,0.00011178275010145038
4.17,-0.00719600351942686,77.50890971075603,0,60,3.0,3,0.00020964025308303996
4.175,0.0022072757983807078,77.51638746319077,0,60,3.0,3,0.0003855873691945282
4.18,0.006917199873730717,77.52952295821818,0,60,3.0,3,0.0006946578404277742
4.185,0.01004859748264829,77.55205296713095,0,60,3.0,3,0.0012247756971987655
4.19,0.013037082251128167,77.58976923193298,0,60,3.0,3,0.0021122172219523853
4.195,0.01645163937690478,77.65137158913011,0,60,3.0,3,0.0035616844501201767
4.2,0.020526639934696615,77.74950933960535,0,60,3.0,3,0.005870807990714197
4.205,0.02539629541761738,77.90195754734947,0,60,3.0,3,0.009457824643516901
4.21,0.031171612185577933,78.13280954845649,0,60,3.0,3,0.014889636434270414
4.215,0.03795853426638131,78.47348539969117,0,60,3.0,3,0.022905538816262845
4.22,0.0458588961882057,78.96326918151414,0,60,3.0,3,0.03442986309445025
4.225,0.054966995891435555,79.64901532307513,0,60,3.0,3,0.050565066425297255
4.23,0.06536491004445595,80.58363230643764,0,60,3.0,3,0.07255605426912085
4.235,0.07711726085088699,81.82299164268099,0,60,3.0,3,0.10171745041602327
4.24,0.09026570629555215,83.42104740979093,0,60,3.0,3,0.139318762583316
4.245,0.10482339848670268,85.42319949161549,0,60,3.0,3,0.18642822333212922
4.25,0.12076968927580028,87.85828024175694,0,60,3.0,3,0.24372424098251633
4.255,0.13804539501007884,90.72994635140763,0,60,3.0,3,0.31129285532723844
4.26,0.15654895051787066,94.00864020707704,0,60,3.0,3,0.38843859310769496
4.265,0.17613378141900526,97.62555096793857,0,60,3.0,3,0.47354237571620156
4.27,0.19660720058055794,101.4700561076917,0,60,3.0,3,0.5640013201809813
4.275,0.21773108748496234,105.39188588857056,0,60,3.0,3,0.656279667966366
4.28,0.23922453870058807,109.20870606171526,0,60,3.0,3,0.7460872014521238
4.285,0.2607685857914563,112.7190103692385,0,60,3.0,3,0.828682596923259
4.29,0.2820129681603682,115.71928120045192,0,60,3.0,3,0.8992772047165157
4.295,0.30258482867153996,118.02349647615935,0,60,3.0,3,0.9534940347331612
4.3,0.3220990771751686,119.48243235510543,0,60,3.0,3,0.9878219377671866
4.305,0.3401700499968971,120.0,0,60,3.0,3,1.0
4.31,0.3564239911198326,119.54414514623332,0,60,3.0,3,0.989274003440784
4.315,0.3705118017738417,118.15060626577718,0,60,3.0,3,0.9564848533124044
4.32,0.3821214567925213,115.9189340023266,0,60,3.0,3,0.9039749177018022
4.325,0.39098947374066967,113.0014023537604,0,60,3.0,3,0.835327114206127
4.33,0.3969108472035567,109.58654217728734,0,60,3.0,3,0.7549774629949962
4.335,0.3997469255491936,105.87978274020551,0,60,3.0,3,0.6677595938871885
4.34,0.3994308076379137,102.08396338043309,0,60,3.0,3,0.5784461971866609
4.345,0.3959699661768434,98.38225280045256,0,60,3.0,3,0.49134712471653086
4.35,0.38944595408114946,94.92537560220612,0,60,3.0,3,0.41000883769896745
4.355,0.38001120995358023,91.82416132737285,0,60,3.0,3,0.3370390900558317
4.36,0.3678831374098315,89.14749954500232,0,60,3.0,3,0.27405881282358396
4.365,0.35333577933796634,86.92498677093954,0,60,3.0,3,0.2217643946103421
4.37,0.33668953221163944,85.15301231421464,0,60,3.0,3,0.18007087798152083
4.375,0.3182994390982644,83.802800714477,0,60,3.0,3,0.1483011932818118
4.38,0.29854265738230645,82.82898633651617,0,60,3.0,3,0.1253879138003804
4.385,0.2778057157821067,82.17756644157681,0,60,3.0,3,0.11006038686063094
4.39,0.2564721553719815,81.79246348760998,0,60,3.0,3,0.10099914088494068
4.395,0.23491109433464996,81.6203288855974,0,60,3.0,3,0.096948914955233
4.4,0.21346717185309805,81.61356473758555,0,60,3.0,3,0.09678975853142467
4.405,0.19245222055656455,81.73178486073043,0,60,3.0,3,0.09957140848777479
4.41,0.17213889801761392,81.9420707420853,0,60,3.0,3,0.1045193115784778
4.415,0.15275638501270183,82.21841509548847,0,60,3.0,3,0.11102153165855216
4.42,0.13448814019607322,82.54071215799348,0,60,3.0,3,0.11860499195278781
4.425,0.11747159495449566,82.89358016634176,0,60,3.0,3,0.1269077686198062
4.43,0.10179958433370105,83.26521429635454,0,60,3.0,3,0.13565210109069512
4.435,0.08752324394101413,83.64638683025535,0,60,3.0,3,0.14462086659424359
4.44,0.07465606047174059,84.02964611158836,0,60,3.0,3,0.15363873203737324
4.445,0.0631787448609295,84.40872047275327,0,60,3.0,3,0.16255812877066525
4.45,0.05304460019959574,84.77810639599608,0,60,3.0,3,0.1712495622587312
4.455,0.044185078305849994,85.13280774851903,0,60,3.0,3,0.17959547643574184
4.46,0.03651525513023255,85.46819036181611,0,60,3.0,3,0.18748683204273206
4.465,0.0299390014708757,85.77991932370172,0,60,3.0,3,0.1948216311459228
4.47,0.024353677220580638,86.06395196190566,0,60,3.0,3,0.20150475204483903
4.475,0.01965423034339045,86.31656557761202,0,60,3.0,3,0.20744860182616529
4.48,0.015736632374757337,86.53440443454016,0,60,3.0,3,0.21257422198918033
4.485,0.012500627640593535,86.71453489258448,0,60,3.0,3,0.21681258570787015
4.49,0.009851811652115898,86.85450086784542,0,60,3.0,3,0.22010590277283335
4.495,0.007703084175428559,86.95237417392687,0,60,3.0,3,0.22240880409239694
4.5,0.005975544002062424,87.0067959844984,0,60,3.0,3,0.2236893172823152
4.505,0.004598905818663047,87.01700687163441,0,60,3.0,3,0.22392957345022135
4.51,0.0035115256454839104,86.98286378900848,0,60,3.0,3,0.22312620680019946
4.515,0.002660121266303676,86.90484310169278,0,60,3.0,3,0.22129042592218298
4.52,0.0019992692560877024,86.78402938747664,0,60,3.0,3,0.21844775029356792
4.525,0.0014907520044639367,86.62209028632776,0,60,3.0,3,0.21463741850182969
4.53,0.0011028178277539807,86.42123816980182,0,60,3.0,3,0.20991148634827822
4.535,0.0008094059938923333,86.18417984182693,0,60,3.0,3,0.20433364333710427
4.54,0.0005893771793717645,85.91405586012334,0,60,3.0,3,0.1979777849440786
4.545,0.0004257792353490551,85.61437137477117,0,60,3.0,3,0.19092638528873335
4.55,0.0003051686392901525,85.28892060876314,0,60,3.0,3,0.18326872020619142
4.555,0.00021699992642659966,84.94170724870098,0,60,3.0,3,0.17509899408708185
4.56,0.00015308884054097838,84.57686306932412,0,60,3.0,3,0.16651442516056753
4.565,0.00010714989329311098,84.19856708424052,0,60,3.0,3,0.15761334315860054
4.57,7.440535854020571e-05,83.81096740174658,0,60,3.0,3,0.1484933506293313
4.575,5.1260276743925106e-05,83.41810777713161,0,60,3.0,3,0.13924959475603788
4.58,3.503659887882241e-05,83.02386060247123,0,60,3.0,3,0.1299731906463819
4.585,2.375894748103639e-05,82.63186777501524,0,60,3.0,3,0.12074983000035854
4.59,1.5984413869232557e-05,82.24549055077581,0,60,3.0,3,0.11165860119472501
4.595,1.0669166579899869e-05,81.86776913642002,0,60,3.0,3,0.10277103850400053
4.6,7.06526633560511e-06,81.50139241554777,0,60,3.0,3,0.09415040977759458
4.605,4.641847214699205e-06,81.14867785950845,0,60,3.0,3,0.08585124375314007
4.61,3.025641074479182e-06,80.81156135115772,0,60,3.0,3,0.07791909061547579
4.615,1.9566278676921314e-06,80.49159636340788,0,60,3.0,3,0.07039050266842069
4.62,1.2553456560008793e-06,80.18996169166836,0,60,3.0,3,0.0632932162745496
4.625,7.990660428214668e-07,79.90747674623394,0,60,3.0,3,0.05664651167609269
4.63,5.046221251618276e-07,79.64462327056756,0,60,3.0,3,0.05046172401335445
4.635,3.1616527078858815e-07,79.40157226481837,0,60,3.0,3,0.04474287681925576
4.64,1.9652884407760343e-07,79.17821485897923,0,60,3.0,3,0.03948740844657015
4.645,1.2120002189836396e-07,78.97419589290332,0,60,3.0,3,0.034686962185960575
4.65,7.415549848886236e-08,78.78894901536232,0,60,3.0,3,0.030328212126172236
4.655,4.501406988770349e-08,78.62173220460336,0,60,3.0,3,0.0263936989318438
4.66,0.0,78.4716627308444,0,60,3.0,3,0.022862652490456478
4.665,0.0,78.33775071891439,0,60,3.0,3,0.019711781621515122
4.67,0.0,78.21893061897777,0,60,3.0,3,0.016916014564182714
4.675,0.0,78.11409004761917,0,60,3.0,3,0.014449177591039334
4.68,0.0,78.02209561389758,0,60,3.0,3,0.012284602679942977
4.685,0.0,77.94181548966863,0,60,3.0,3,0.010395658580438293
4.69,0.0,77.87213861598158,0,60,3.0,3,0.008756202728978438
4.695,0.0,77.81199055431146,0,60,3.0,3,0.0073409542190932715
4.7,0.0,77.76034609057041,0,60,3.0,3,0.006125790366362547
4.705,0.0,77.7162387801301,0,60,3.0,3,0.0050879712971787765
4.71,0.0,77.67876768333062,0,60,3.0,3,0.00420629843130869
4.715,0.0,77.64710158383804,0,60,3.0,3,0.00346121373736557
4.72,0.0,77.62048100809753,0,60,3.0,3,0.0028348472493535956
4.725,0.0,77.59821837486274,0,60,3.0,3,0.0023110205850056286
4.73,0.0,77.57969660154583,0,60,3.0,3,0.001875214154019619
4.735,0.0,77.56436648127566,0,60,3.0,3,0.0015145054417801287
4.74,0.0,77.55174312345649,0,60,3.0,3,0.0012174852577997546
4.745,0.0,77.54140172358554,0,60,3.0,3,0.0009741582020126316
4.75,0.0,77.53297289723739,0,60,3.0,3,0.0007758328761737817
4.755,0.0,77.52613778034294,0,60,3.0,3,0.0006150065963043637
4.76,0.0,77.52062306478282,0,60,3.0,3,0.0004852485831252927
4.765,0.0,77.51619610618371,0,60,3.0,3,0.0003810848513814883
4.77,0.0,77.51266021065541,0,60,3.0,3,0.0002978873095390982
4.775,0.0,77.50985017975476,0,60,3.0,3,0.00023176893540621408
4.78,0.0,77.50762816866609,0,60,3.0,3,0.00017948632155500544
4.785,0.0,77.50587989168099,0,60,3.0,3,0.0001383503924938957
4.79,0.0,77.50451119158359,0,60,3.0,3,0.0001061456843197394
4.795,0.0,77.50344497539443,0,60,3.0,3,8.105824457482627e-05
4.8,0.0,77.50261850787646,0,60,3.0,3,6.161195003441582e-05
4.805,0.0,77.50198104596413,0,60,3.0,3,4.6612846214804236e-05
4.81,0.0,77.5014917914954,0,60,3.0,3,3.510097636228024e-05
4.815,0.0,77.50111813594486,0,60,3.0,3,2.63090810556284e-05
4.82,0.0,77.50083416890804,0,60,3.0,4,1.962750371864572e-05
4.825,0.0,77.5006194215277,0,60,3.0,4,1.4574624181223578e-05
4.83,0.0,77.50045781656114,0,60,3.0,4,1.0772154379711698e-05
4.835,0.0,77.50033679808233,0,60,3.0,4,7.924660760703345e-06
4.84,0.0,77.50024661564738,0,60,3.0,4,5.802721114926445e-06
4.845,0.0,77.50017973992418,0,60,3.0,4,4.229174686543047e-06
4.85,0.0,77.50013038912986,0,60,3.0,4,3.0679795262291437e-06
4.855,0.0,77.50009414800623,0,60,3.0,4,2.2152472053328573e-06
4.86,0.0,77.50006766339348,0,60,3.0,4,1.5920798465926697e-06
4.865,0.0,77.5000484026712,0,60,3.0,4,1.1388863811134798e-06
4.87,0.0,77.5000344633739,0,60,3.0,4,8.109029151375366e-07
4.875,0.0,77.50002442413327,0,60,3.0,4,5.74685488760117e-07
4.88,0.0,77.50001722873685,0,60,3.0,4,4.053820435621995e-07
4.885,0.0,77.50001209652484,0,60,3.0,4,2.8462411391421267e-07
4.89,0.0,77.50000845358089,0,60,3.0,4,1.9890778563582418e-07
4.895,0.0,77.50000588022185,0,60,3.0,4,1.383581611528772e-07
4.9,0.001684486749771458,77.50000407117355,0,60,3.0,4,9.579231880921083e-08
4.905,0.003097557930867117,77.5000028055527,0,60,3.0,4,6.601300463123206e-08
4.91,0.005475106668887023,77.50000192437696,0,60,3.0,4,4.527945788247641e-08
4.915,0.00930222931468658,77.5000013138167,0,60,3.0,4,3.09133340311639e-08
4.92,0.01519157517868857,77.50000089279615,0,60,3.0,4,2.1006968274698867e-08
4.925,0.023847336626128316,77.50000060386903,0,60,3.0,4,1.4208682962228468e-08
4.93,0.0359830743700859,77.50000040654264,0,60,3.0,4,9.565709165947149e-09
4.935,0.05218887796857759,77.50000027242211,0,60,3.0,4,6.4099320779325135e-09
4.94,0.0727577001223134,77.50000018169858,0,60,3.0,4,4.2752607415048475e-09
4.945,0.0974992498694751,77.50000012062397,0,60,3.0,4,2.8382109629841153e-09
4.95,0.12558706050443358,77.50000007970556,0,60,3.0,4,1.875424887283075e-09
4.955,0.15549263588878245,77.50000005242235,0,60,3.0,4,1.233467080109061e-09
4.96,0.1850529723539114,77.50000003431762,0,60,3.0,4,8.074734710937585e-10
4.965,0.21169159439317053,77.50000002236098,0,60,3.0,4,5.261406787373262e-10
4.97,0.23277292922115492,77.50000001450232,0,60,3.0,4,3.412310434214305e-10
4.975,0.24602692519491282,77.50000000936176,0,60,3.0,4,2.202766074119341e-10
4.98,0.24995056064839283,77.50000000601518,0,60,3.0,4,1.4153375987542164e-10
4.985,0.24408826520424054,77.50000000384694,0,60,3.0,4,9.05161227017422e-11
4.99,0.22911894216865275,77.5000000024488,0,60,3.0,4,5.761882996867986e-11
4.995,0.20672661788705934,77.50000000155154,0,60,3.0,4,3.650684983072364e-11
5.0,0.17928878030241233,77.50000000097847,0,60,3.0,4,2.3022922130835734e-11
5.005,0.14946211903866036,77.5000000006142,0,60,3.0,4,1.4451603312730133e-11
5.01,0.1197651512573837,77.50000000038374,0,60,3.0,4,9.02907552646117e-12
5.015,0.09224675744988023,77.50000000023864,0,60,3.0,4,5.615126664291465e-12
5.02,0.06829565320281596,77.50000000014771,0,60,3.0,4,3.4754735037602265e-12
5.025,0.04860224607515734,77.500000000091,0,60,3.0,4,2.1413250257918502e-12
5.03,0.03324612389699793,77.5000000000558,0,60,3.0,4,1.3130829756846652e-12
5.035,0.021859876340472782,77.50000000003406,0,60,3.0,4,8.01492205937393e-13
5.04,0.01381595518554205,77.50000000002069,0,60,3.0,4,4.868471638902145e-13
5.045,0.008394095110402422,77.50000000001252,0,60,3.0,4,2.945826589198345e-13
5.05,0.0049052535271608,77.50000000000753,0,60,3.0,4,1.7721771762487205e-13
5.055,0.0027671663551903634,77.5000000000045,0,60,3.0,4,1.0599625752280083e-13
5.06,0.0015425553464444616,77.50000000000269,0,60,3.0,4,6.319650685113362e-14
5.065,0.0009638206637011801,77.50000000000159,0,60,3.0,4,3.744978183770881e-14
5.07,0.0009804935156568228,77.50000000000094,0,60,3.0,4,2.2068621440078406e-14
5.075,0.0018793744894085216,77.50000000000055,0,60,3.0,4,1.3040549032773603e-14
5.08,0.004535525206900863,77.50000000000033,0,60,3.0,4,7.690580198815202e-15
5.085,0.010832767979632273,77.50000000000018,0,60,3.0,4,4.3468496775912015e-15
5.09,0.024208003392322392,77.50000000000011,0,60,3.0,4,2.6749844169792007e-15
5.095,0.0500971897335304,77.50000000000006,0,60,3.0,4,1.3374922084896003e-15
5.1,0.09582894921774403,77.50000000000004,0,60,3.0,4,1.0031191563672002e-15
5.105,0.16937896721820658,77.50000000000001,0,60,3.0,4,3.343730521224001e-16
5.11,0.27661303008991756,77.50000000000001,0,60,3.0,4,3.343730521224001e-16
5.115,0.4173782800009149,77.5,0,60,3.0,4,0.0
5.12,0.5818720934538056,77.5,0,60,3.0,4,0.0
5.125,0.7494718801585675,77.5,0,60,3.0,4,0.0
5.13,0.891813020752378,77.5,0,60,3.0,4,0.0
5.135,0.9800361632936612,77.5,0,60,3.0,4,0.0
5.14,0.993574479225126,77.50000249065474,1,60,3.0,4,5.860364086295115e-08
5.145,0.9263438449375362,77.50000381481783,0,60,3.0,4,8.976041954156244e-08
5.15,0.7873015962290536,77.50000596523532,0,60,3.0,4,1.4035847805323155e-07
5.155,0.5959516244629897,77.50000962503476,0,60,3.0,4,2.2647140620874244e-07
5.16,0.376910120078773,77.50001618917643,0,60,3.0,4,3.809217984700594e-07
5.165,0.15739335672107918,77.5000285614158,0,60,3.0,4,6.720333130140395e-07
5.17,-0.033361226269301235,77.50005280883279,0,60,3.0,4,1.2425607715559796e-06
5.175,-0.1680180840843834,77.50010151190543,0,60,3.0,4,2.388515421818524e-06
5.18,-0.23069703190837854,77.50020036214238,0,60,3.0,4,4.714403350108649e-06
5.185,-0.22587267821131068,77.50040077561245,0,60,3.0,4,9.430014410541202e-06
5.19,-0.17718181630665902,77.50080326727193,0,60,3.0,4,1.8900406398442475e-05
5.195,-0.11494332516451301,77.50159937912407,0,60,3.0,4,3.763244997819182e-05
5.2,-0.061810214049552864,77.50314438198903,0,60,3.0,4,7.398545856544308e-05
5.205,-0.026546104631500547,77.5060789517361,0,60,3.0,4,0.00014303415849647481
5.21,-0.00719600351942686,77.5115253796782,0,60,3.0,4,0.00027118540419304043
5.215,0.0022072757983807078,77.5213917627598,0,60,3.0,4,0.0005033355943483537
5.22,0.006917199873730717,77.53882411894206,0,60,3.0,4,0.0009135086809896406
5.225,0.01004859748264829,77.56884815932884,0,60,3.0,4,0.0016199566900902884
5.23,0.013037082251128167,77.6192346558676,0,60,3.0,4,0.002805521314531782
5.235,0.01645163937690478,77.70159894500465,0,60,3.0,4,0.004743504588344649
5.24,0.020526639934696615,77.83270008287926,0,60,3.0,4,0.007828237244217797
5.245,0.02539629541761738,78.03583465142736,0,60,3.0,4,0.012607874151232115
5.25,0.031171612185577933,78.34212553437393,0,60,3.0,4,0.019814718455857288
5.255,0.03795853426638131,78.79139701937089,0,60,3.0,4,0.030385812220491543
5.26,0.0458588961882057,79.43222533468237,0,60,3.0,4,0.045464125521938153
5.265,0.054966995891435555,80.32069048739088,0,60,3.0,4,0.06636918793860887
5.27,0.06536491004445595,81.5173707975343,0,60,3.0,4,0.09452637170668936
5.275,0.07711726085088699,83.08225427174436,0,60,3.0,4,0.13134715933516145
5.28,0.09026570629555215,85.06751487992965,0,60,3.0,4,0.17805917364540344
5.285,0.10482339848670268,87.50851138218808,0,60,3.0,4,0.23549438546324883
5.29,0.12076968927580028,90.41386466435996,0,60,3.0,4,0.3038556391614109
5.295,0.13804539501007884,93.75596504105044,0,60,3.0,4,0.38249329508353985
5.3,0.15654895051787066,97.4636280918179,0,60,3.0,4,0.4697324256898328
5.305,0.17613378141900526,101.41872257270964,0,60,3.0,4,0.5627934722990504
5.31,0.19660720058055794,105.45833242352343,0,60,3.0,4,0.6578431158476101
5.315,0.21773108748496234,109.38335163215552,0,60,3.0,4,0.7501965089918947
5.32,0.23922453870058807,112.9734084393601,0,60,3.0,4,0.8346684338672965
5.325,0.2607685857914563,116.00683982528938,0,60,3.0,4,0.9060432900068088
5.33,0.2820129681603682,118.28333120453613,0,60,3.0,4,0.9596077930479089
5.335,0.30258482867153996,119.646064803065,0,60,3.0,4,0.9916721130132942
5.34,0.3220990771751686,120.0,0,60,3.0,4,1.0
5.345,0.3401700499968971,119.32334270778719,0,60,3.0,4,0.9840786519479339
5.35,0.3564239911198326,117.6702984466819,0,60,3.0,4,0.9451834928631034
5.355,0.3705118017738417,115.1646448291192,0,60,3.0,4,0.8862269371557459
5.36,0.3821214567925213,111.9851997850634,0,60,3.0,4,0.8114164655309035
5.365,0.39098947374066967,108.34557221481842,0,60,3.0,4,0.7257781697604334
5.37,0.3969108472035567,104.47139174943496,0,60,3.0,4,0.634620982339646
5.375,0.3997469255491936,100.57838099842344,0,60,3.0,4,0.5430207293746692
5.38,0.3994308076379137,96.85417087272945,0,60,3.0,4,0.45539225582892834
5.385,0.3959699661768434,93.44582268957237,0,60,3.0,4,0.37519582798993806
5.39,0.38944595408114946,90.45385471397468,0,60,3.0,4,0.30479658150528655
5.395,0.38001120995358023,87.93243962502166,0,60,3.0,4,0.24546916764756843
5.4,0.3678831374098315,85.89455992933536,0,60,3.0,4,0.19751905716083196
5.405,0.35333577933796634,84.32040601189054,0,60,3.0,4,0.160480141456248
5.41,0.33668953221163944,83.16719725117376,0,60,3.0,4,0.13334581767467674
5.415,0.3182994390982644,82.37883285219493,0,60,3.0,4,0.114796067110469
5.42,0.29854265738230645,81.89421459224894,0,60,3.0,4,0.10339328452350455
5.425,0.2778057157821067,81.65359406235096,0,60,3.0,4,0.09773162499649321
5.43,0.2564721553719815,81.60276811068044,0,60,3.0,4,0.09653572025130455
5.435,0.23491109433464996,81.6953041114732,0,60,3.0,4,0.0987130379170166
5.44,0.21346717185309805,81.89319219750705,0,60,3.0,4,0.10336922817663642
5.445,0.19245222055656455,82.16640283127366,0,60,3.0,4,0.10979771367702724
5.45,0.17213889801761392,82.49180664386697,0,60,3.0,4,0.11745427397334036
5.455,0.15275638501270183,82.85182970057085,0,60,3.0,4,0.12592540471931402
5.46,0.13448814019607322,83.23310877819486,0,60,3.0,4,0.13489667713399672
5.465,0.11747159495449566,83.62530580186197,0,60,3.0,4,0.14412484239675222
5.47,0.10179958433370105,84.02015461343919,0,60,3.0,4,0.15341540266915737
5.475,0.08752324394101413,84.41075278688982,0,60,3.0,4,0.1626059479268192
5.48,0.07465606047174059,84.79107511020709,0,60,3.0,4,0.17155470847546092
5.485,0.0631787448609295,85.15566858139451,0,60,3.0,4,0.18013337838575313
5.49,0.05304460019959574,85.49948511358731,0,60,3.0,4,0.18822317914323086
5.495,0.044185078305849994,85.81781198508382,0,60,3.0,4,0.19571322317844286
5.5,0.03651525513023255,86.1062671685372,0,60,3.0,4,0.2025004039655812
5.505,0.0299390014708757,86.36083432317702,0,60,3.0,4,0.20849021936887097
5.51,0.024353677220580638,86.57791901100559,0,60,3.0,4,0.21359809437660213
5.515,0.01965423034339045,86.75441307651025,0,60,3.0,4,0.21775089591788815
5.52,0.015736632374757337,86.88775811124916,0,60,3.0,4,0.22088842614703896
5.525,0.012500627640593535,86.97600175641713,0,60,3.0,4,0.2229647472098149
5.53,0.009851811652115898,87.017842589161,0,60,3.0,4,0.2239492373920237
5.535,0.007703084175428559,87.012660771883,0,60,3.0,4,0.22382731227960015
5.54,0.005975544002062424,86.96053273007563,0,60,3.0,4,0.22260077011942653
5.545,0.004598905818663047,86.86222900437889,0,60,3.0,4,0.2202877412795033
5.55,0.0035115256454839104,86.719195178689,0,60,3.0,4,0.21692223949856484
5.555,0.002660121266303676,86.53351645798008,0,60,3.0,4,0.21255332842306082
5.56,0.0019992692560877024,86.30786706938648,0,60,3.0,4,0.20724393104438765
5.565,0.0014907520044639367,86.04544618487417,0,60,3.0,4,0.2010693219970392
5.57,0.0011028178277539807,85.74990250322291,0,60,3.0,4,0.19411535301700972
5.575,0.0008094059938923333,85.42524997119911,0,60,3.0,4,0.18647646991056724
5.58,0.0005893771793717645,85.0757773587906,0,60,3.0,4,0.17825358491272006
5.585,0.0004257792353490551,84.70595452519278,0,60,3.0,4,0.1695518711810066
5.59,0.0003051686392901525,84.32033821979824,0,60,3.0,4,0.160478546348194
5.595,0.00021699992642659966,83.92348015988665,0,60,3.0,4,0.1511407096443918
5.6,0.00015308884054097838,83.51983992315786,0,60,3.0,4,0.1416432923095967
5.605,0.00010714989329311098,83.11370490220835,0,60,3.0,4,0.13208717416960833
5.61,7.440535854020571e-05,82.70911920653026,0,60,3.0,4,0.12256751074188849
5.615,5.1260276743925106e-05,82.30982298507394,0,60,3.0,4,0.11317230553115143
5.62,3.503659887882241e-05,81.91920319962112,0,60,3.0,4,0.10398125175579112
5.625,2.375894748103639e-05,81.5402564270607,0,60,3.0,4,0.09506485710731052
5.63,1.5984413869232557e-05,81.1755638270808,0,60,3.0,4,0.0864838547548422
5.635,1.0669166579899869e-05,80.82727799879292,0,60,3.0,4,0.07828889408924523
5.64,7.06526633560511e-06,80.49712108066727,0,60,3.0,4,0.07052049601570047
5.645,4.641847214699205e-06,80.18639313486506,0,60,3.0,4,0.06320925023211899
5.65,3.025641074479182e-06,79.89598960793784,0,60,3.0,4,0.05637622606912554
5.655,1.9566278676921314e-06,79.6264264795071,0,60,3.0,4,0.050033564223696536
5.66,1.2553456560008793e-06,79.37787159987418,0,60,3.0,4,0.04418521411468666
5.665,7.990660428214668e-07,79.15018067413585,0,60,3.0,4,0.03882778056790244
5.67,5.046221251618276e-07,78.94293636900822,0,60,3.0,4,0.03395144397666406
5.675,3.1616527078858815e-07,78.75548909159917,0,60,3.0,4,0.029540919802333494
5.68,1.9652884407760343e-07,78.58699810755667,0,60,3.0,4,0.025576426060156872
5.685,1.2120002189836396e-07,78.43647181909245,0,60,3.0,4,0.022034631037469325
5.69,7.415549848886236e-08,78.30280620070539,0,60,3.0,4,0.018889557663656246
5.695,4.501406988770349e-08,78.18482058158935,0,60,3.0,4,0.01611342544916116
5.7,0.0,78.08129015900583,0,60,3.0,4,0.01367741550601957
5.705,0.0,77.99097481773615,0,60,3.0,4,0.011552348652615178
5.71,0.0,77.91264400989799,0,60,3.0,4,0.00970927082112914
5.715,0.0,77.84509761126496,0,60,3.0,4,0.008119943794469679
5.72,0.0,77.7871828107303,0,60,3.0,4,0.00675724260541883
5.725,0.0,77.73780720624384,0,60,3.0,4,0.005595463676325728
5.73,0.0,77.69594837242065,0,60,3.0,4,0.004610549939309294
5.735,0.0,77.66066023234221,0,60,3.0,4,0.0037802407609931646
5.74,0.0,77.63107661018051,0,60,3.0,4,0.00308415553365916
5.745,0.0,77.60641236432045,0,60,3.0,4,0.0025038203369517225
5.75,0.0,77.58596250536276,0,60,3.0,4,0.002022647185006075
5.755,0.0,77.56909969282334,0,60,3.0,4,0.0016258751252551332
5.76,0.0,77.55527048169948,0,60,3.0,4,0.0013004819223407166
5.765,0.0,77.54399065849753,0,60,3.0,4,0.0010350743175890516
5.77,0.0,77.53483996875943,0,60,3.0,4,0.0008197639708100724
5.775,0.0,77.52745649724005,0,60,3.0,4,0.0006460352291777086
5.78,0.0,77.52153091995265,0,60,3.0,4,0.000506609881238894
5.785,0.0,77.51680080618708,0,60,3.0,4,0.00039531308675477437
5.79,0.0,77.51304510977057,0,60,3.0,4,0.0003069437593076012
5.795,0.0,77.51007895333593,0,60,3.0,4,0.00023715184319846283
5.8,0.0,77.50774877787383,0,60,3.0,4,0.00018232418526655932
5.805,0.0,77.50592790273667,0,60,3.0,4,0.00013948006439230032
5.81,0.0,77.50451251862505,0,60,3.0,4,0.00010617690882467662
5.815,0.0,77.50341811780184,0,60,3.0,4,8.042630121983219e-05
5.82,0.0,77.50257635156204,0,60,3.0,4,6.062003675390984e-05
5.825,0.0,77.50193229444417,0,60,3.0,4,4.5465751627622974e-05
5.83,0.0,77.50144208734422,0,60,3.0,4,3.3931466922735235e-05
5.835,0.0,77.5010709270944,0,60,3.0,4,2.519828457419702e-05
5.84,0.0,77.50079136771336,0,60,3.0,4,1.862041678497703e-05
5.845,0.0,77.50058189795325,0,60,3.0,4,1.3691716547140567e-05
5.85,0.0,77.50042576054396,0,60,3.0,4,1.0017895152045373e-05
5.855,0.0,77.5003099802863,0,60,3.0,4,7.293653795373115e-06
5.86,0.0,77.50022457055825,0,60,3.0,4,5.284013135183962e-06
5.865,0.0,77.5001618906037,0,60,3.0,4,3.809190675450308e-06
5.87,0.0,77.5001161289628,0,60,3.0,4,2.7324461835659724e-06
5.875,0.0,77.50008289141098,0,60,3.0,4,1.950386140780371e-06
5.88,0.0,77.5000588746852,0,60,3.0,4,1.3852867104614074e-06
5.885,0.0,77.50004161000271,0,60,3.0,4,9.7905888731689e-07
5.89,0.0,77.50002926287357,0,60,3.0,4,6.885382015966838e-07
5.895,0.0,77.50002047794057,0,60,3.0,4,4.818338956791943e-07
5.9,0.0,77.50001425954493,0,60,3.0,4,3.3551870414532246e-07
5.905,0.0,77.50000988041381,0,60,3.0,4,2.3248032501963763e-07
5.91,0.001684486749771458,77.5000068123144,0,60,3.0,4,1.6028975049748088e-07
5.915,0.003097557930867117,77.50000467373745,0,60,3.0,4,1.0997029295033237e-07
5.92,0.005475106668887023,77.50000319068567,0,60,3.0,4,7.507495705367012e-08
5.925,0.00930222931468658,77.50000216747358,0,60,3.0,4,5.099937839879524e-08
5.93,0.01519157517868857,77.50000146512164,0,60,3.0,4,3.447345039496534e-08
5.935,0.023847336626128316,77.50000098547052,0,60,3.0,4,2.318754167497579e-08
5.94,0.0359830743700859,77.50000065957421,0,60,3.0,4,1.5519393226735273e-08
5.945,0.05218887796857759,77.50000043927226,0,60,3.0,4,1.0335817785958438e-08
5.95,0.0727577001223134,77.50000029110788,0,60,3.0,4,6.849597197929945e-09
5.955,0.0974992498694751,77.50000019196597,0,60,3.0,4,4.516846274782438e-09
5.96,0.12558706050443358,77.50000012596347,0,60,3.0,4,2.963846287350273e-09
5.965,0.15549263588878245,77.50000008224605,0,60,3.0,4,1.9352010921840486e-09
5.97,0.1850529723539114,77.5000000534362,0,60,3.0,4,1.2573222567666295e-09
5.975,0.21169159439317053,77.50000003454666,0,60,3.0,4,8.128625615748152e-10
5.98,0.23277292922115492,77.50000002222423,0,60,3.0,4,5.229230068567524e-10
5.985,0.24602692519491282,77.50000001422649,0,60,3.0,4,3.3474086247973474e-10
5.99,0.24995056064839283,77.50000000906188,0,60,3.0,4,2.1322066726604723e-10
5.995,0.24408826520424054,77.50000000574367,0,60,3.0,4,1.3514522834157106e-10
6.0,0.22911894216865275,77.50000000362252,0,60,3.0,4,8.523570346262525e-11
6.005,0.20672661788705934,77.50000000227342,0,60,3.0,4,5.349233213243732e-11
6.01,0.17928878030241233,77.50000000141972,0,60,3.0,4,3.3405205399236256e-11
6.015,0.14946211903866036,77.50000000088221,0,60,3.0,4,2.0757879075758598e-11
6.02,0.1197651512573837,77.5000000005455,0,60,3.0,4,1.283524397877045e-11
6.025,0.09224675744988023,77.50000000033563,0,60,3.0,5,7.897222745026846e-12
6.03,0.06829565320281596,77.50000000020549,0,60,3.0,5,4.8350343336899055e-12
6.035,0.04860224607515734,77.50000000012518,0,60,3.0,5,2.9454922161462225e-12
6.04,0.03324612389699793,77.50000000007589,0,60,3.0,5,1.7855520983336164e-12
6.045,0.021859876340472782,77.50000000004577,0,60,3.0,5,1.0770156008862506e-12
6.05,0.01381595518554205,77.50000000002747,0,60,3.0,5,6.463431097525994e-13
6.055,0.008394095110402422,77.50000000001641,0,60,3.0,5,3.862008752013721e-13
6.06,0.0049052535271608,77.50000000000975,0,60,3.0,5,2.2937991375596645e-13
6.065,0.0027671663551903634,77.50000000000577,0,60,3.0,5,1.3575545916169443e-13
6.07,0.0015425553464444616,77.5000000000034,0,60,3.0,5,7.991515945725361e-14
6.075,0.0009638206637011801,77.50000000000199,0,60,3.0,5,4.681222729713601e-14
6.08,0.0009804935156568228,77.50000000000115,0,60,3.0,5,2.7084217221914406e-14
6.085,0.0018793744894085216,77.50000000000067,0,60,3.0,5,1.5715533449752805e-14
6.09,0.004535525206900863,77.50000000000038,0,60,3.0,5,9.028072407304802e-15
6.095,0.010832767979632273,77.50000000000023,0,60,3.0,5,5.349968833958401e-15
6.1,0.024208003392322392,77.50000000000013,0,60,3.0,5,3.0093574691016007e-15
6.105,0.0500971897335304,77.50000000000007,0,60,3.0,5,1.6718652606120004e-15
6.11,0.09582894921774403,77.50000000000004,0,60,3.0,5,1.0031191563672002e-15
6.115,0.16937896721820658,77.50000000000003,0,60,3.0,5,6.687461042448002e-16
6.12,0.27661303008991756,77.50000000000001,0,60,3.0,5,3.343730521224001e-16
6.125,0.4173782800009149,77.5,0,60,3.0,5,0.0
6.13,0.5818720934538056,77.5,0,60,3.0,5,0.0
6.135,0.7494718801585675,77.5,0,60,3.0,5,0.0
6.14,0.891813020752378,77.5,0,60,3.0,5,0.0
6.145,0.9800361632936612,77.5,0,60,3.0,5,0.0
6.15,0.993574479225126,77.50000249074864,1,60,3.0,5,5.8605850400079576e-08
6.155,0.9263438449375362,77.50000373719767,0,60,3.0,5,8.793406289655917e-08
6.16,0.7873015962290536,77.50000571125484,0,60,3.0,5,1.3438246690063405e-07
6.165,0.5959516244629897,77.50000897156823,0,60,3.0,5,2.1109572317607885e-07
6.17,0.376910120078773,77.50001461785887,0,60,3.0,5,3.43949620387588e-07
6.175,0.15739335672107918,77.50002485761756,0,60,3.0,5,5.848851190769304e-07
6.18,-0.033361226269301235,77.5000441468857,0,60,3.0,5,1.0387502517433485e-06
6.185,-0.1680180840843834,77.50008143641718,0,60,3.0,5,1.9161509923753115e-06
6.19,-0.23069703190837854,77.50015448638096,0,60,3.0,5,3.6349736697449024e-06
6.195,-0.22587267821131068,77.50029793771368,0,60,3.0,5,7.0102991454699375e-06
6.2,-0.17718181630665902,77.50057799534659,0,60,3.0,5,1.3599890507975942e-05
6.205,-0.11494332516451301,77.50111837318384,0,60,3.0,5,2.6314663149244498e-05
6.21,-0.061810214049552864,77.5021447712547,0,60,3.0,5,5.046520599307769e-05
6.215,-0.026546104631500547,77.50405875758024,0,60,3.0,5,9.550017835856712e-05
6.22,-0.00719600351942686,77.50755652220829,0,60,3.0,5,0.00017780052254800146
6.225,0.0022072757983807078,77.5138132687215,0,60,3.0,5,0.00032501808756485256
6.23,0.006917199873730717,77.52475921295319,0,60,3.0,5,0.000582569716545536
6.235,0.01004859748264829,77.54347674592255,0,60,3.0,5,0.0010229822570011037
6.24,0.013037082251128167,77.57474787349175,0,60,3.0,5,0.001758773493923413
6.245,0.01645163937690478,77.62577327415069,0,60,3.0,5,0.0029593711564867885
6.25,0.020526639934696615,77.70706537776042,0,60,3.0,5,0.0048721265355391764
6.255,0.02539629541761738,77.83348417583925,0,60,3.0,5,0.007846686490335193
6.26,0.031171612185577933,78.02533403405856,0,60,3.0,5,0.01236080080137787
6.265,0.03795853426638131,78.30937397061481,0,60,3.0,5,0.019044093426230924
6.27,0.0458588961882057,78.71951933566189,0,60,3.0,5,0.02869457260380908
6.275,0.054966995891435555,79.29694287055824,0,60,3.0,5,0.04228100871901742
6.28,0.06536491004445595,80.08923773111762,0,60,3.0,5,0.06092324073217931
6.285,0.07711726085088699,81.14830879222492,0,60,3.0,5,0.08584255981705703
6.29,0.09026570629555215,82.52673576022178,0,60,3.0,5,0.11827613553463018
6.295,0.10482339848670268,84.27251918352495,0,60,3.0,5,0.1593533925535282
6.3,0.12076968927580028,86.42237931349577,0,60,3.0,5,0.2099383367881357
6.305,0.13804539501007884,88.99410554557689,0,60,3.0,5,0.2704495422488679
6.31,0.15654895051787066,91.9788018156371,0,60,3.0,5,0.3406776897796964
6.315,0.17613378141900526,95.334168598068,0,60,3.0,5,0.41962749642512953
6.32,0.19660720058055794,98.98012138918452,0,60,3.0,5,0.5054146209219886
6.325,0.21773108748496234,102.79799284778882,0,60,3.0,5,0.5952468905362075
6.33,0.23922453870058807,106.63425574998296,0,60,3.0,5,0.6855118999995989
6.335,0.2607685857914563,110.3091421021212,0,60,3.0,5,0.7719798141675577
6.34,0.2820129681603682,113.62978726267669,0,60,3.0,5,0.8501126414747455
6.345,0.30258482867153996,116.40672107938641,0,60,3.0,5,0.915452260691445
6.35,0.3220990771751686,118.47182096137549,0,60,3.0,5,0.9640428461500115
6.355,0.3401700499968971,119.6953952366045,0,60,3.0,5,0.9928328290965764
6.36,0.3564239911198326,120.0,0,60,3.0,5,1.0
6.365,0.3705118017738417,119.36895538564825,0,60,3.0,5,0.9851518914270176
6.37,0.3821214567925213,117.8482718652806,0,60,3.0,5,0.9493711027124846
6.375,0.39098947374066967,115.54169086462247,0,60,3.0,5,0.8950986085793522
6.38,0.3969108472035567,112.59959541754621,0,60,3.0,5,0.8258728333540285
6.385,0.3997469255491936,109.20345077779993,0,60,3.0,5,0.7459635477129395
6.39,0.3994308076379137,105.54802170749046,0,60,3.0,5,0.6599534519409521
6.395,0.3959699661768434,101.8237860184662,0,60,3.0,5,0.572324376905087
6.4,0.38944595408114946,98.20171874166881,0,60,3.0,5,0.4870992645098544
6.405,0.38001120995358023,94.82204096605442,0,60,3.0,5,0.407577434495398
6.41,0.3678831374098315,91.78775541635707,0,60,3.0,5,0.3361824803848723
6.415,0.35333577933796634,89.16299261618758,0,60,3.0,5,0.27442335567500187
6.42,0.33668953221163944,86.97551489147115,0,60,3.0,5,0.22295329156402705
6.425,0.3182994390982644,85.22227107932854,0,60,3.0,5,0.18170049598420085
6.43,0.29854265738230645,83.87670192276543,0,60,3.0,5,0.15004004524153963
6.435,0.2778057157821067,82.89654561652101,0,60,3.0,5,0.12697754391814142
6.44,0.2564721553719815,82.23112307730574,0,60,3.0,5,0.11132054299542915
6.445,0.23491109433464996,81.82741116257147,0,60,3.0,5,0.10182143911932859
6.45,0.21346717185309805,81.63455867864775,0,60,3.0,5,0.09728373361524117
6.455,0.19245222055656455,81.60680170223023,0,60,3.0,5,0.09663062828777008
6.46,0.17213889801761392,81.70495430565997,0,60,3.0,5,0.0989401013096463
6.465,0.15275638501270183,81.89677692135083,0,60,3.0,5,0.10345357462001964
6.47,0.13448814019607322,82.15656636018309,0,60,3.0,5,0.1095662672984257
6.475,0.11747159495449566,82.46429012245926,0,60,3.0,5,0.11680682641080613
6.48,0.10179958433370105,82.8045283196595,0,60,3.0,5,0.12481243105081169
6.485,0.08752324394101413,83.16541222644258,0,60,3.0,5,0.13330381709276667
6.49,0.07465606047174059,83.53767634330968,0,60,3.0,5,0.14206297278375726
6.495,0.0631787448609295,83.91388111514495,0,60,3.0,5,0.15091484976811637
6.5,0.05304460019959574,84.28782021906059,0,60,3.0,5,0.15971341691907276
6.505,0.044185078305849994,84.65409926224211,0,60,3.0,5,0.16833174734687326
6.51,0.03651525513023255,85.0078589300795,0,60,3.0,5,0.17665550423716456
6.515,0.0299390014708757,85.34461127744662,0,60,3.0,5,0.18457908888109686
6.52,0.024353677220580638,85.66015930774962,0,60,3.0,5,0.1920037484176382
6.525,0.01965423034339045,85.95057432507056,0,60,3.0,5,0.19883704294283674
6.53,0.015736632374757337,86.21221077831807,0,60,3.0,5,0.2049931947839545
6.535,0.012500627640593535,86.44174327657818,0,60,3.0,5,0.21039395944889835
6.54,0.009851811652115898,86.63621460417082,0,60,3.0,5,0.21496975539225452
6.545,0.007703084175428559,86.79308677227421,0,60,3.0,5,0.21866086522998135
6.55,0.005975544002062424,86.91028950286497,0,60,3.0,5,0.2214185765379993
6.555,0.004598905818663047,86.98626223109395,0,60,3.0,5,0.22320617014338695
6.56,0.0035115256454839104,87.01998692484162,0,60,3.0,5,0.22399969234921455
6.565,0.002660121266303676,87.01100991632812,0,60,3.0,5,0.22378846861948518
6.57,0.0019992692560877024,86.95945163913956,0,60,3.0,5,0.22257533268563667
6.575,0.0014907520044639367,86.86600374296489,0,60,3.0,5,0.22037655865799746
6.58,0.0011028178277539807,86.73191356296712,0,60,3.0,5,0.2172214955992264
6.585,0.0008094059938923333,86.55895637276944,0,60,3.0,5,0.2131519146533987
6.59,0.0005893771793717645,86.34939625601568,0,60,3.0,5,0.20822108837683953
6.595,0.0004257792353490551,86.1059367891027,0,60,3.0,5,0.2024926303318282
6.6,0.0003051686392901525,85.83166303058954,0,60,3.0,5,0.19603913013151855
6.605,0.00021699992642659966,85.52997655357439,0,60,3.0,5,0.18894062478998555
6.61,0.00015308884054097838,85.20452542960692,0,60,3.0,5,0.18128295128486865
6.615,0.00010714989329311098,84.8591311722773,0,60,3.0,5,0.17315602758299534
6.62,7.440535854020571e-05,84.49771467412947,0,60,3.0,5,0.1646521099795169
6.625,5.1260276743925106e-05,84.12422312368471,0,60,3.0,5,0.15586407349846387
6.63,3.503659887882241e-05,83.74255977482709,0,60,3.0,5,0.14688375940769613
6.635,2.375894748103639e-05,83.3565182660101,0,60,3.0,5,0.1378004297884729
6.64,1.5984413869232557e-05,82.9697229613804,0,60,3.0,5,0.12869936379718586
6.645,1.0669166579899869e-05,82.58557652138303,0,60,3.0,5,0.11966062403254193
6.65,7.06526633560511e-06,82.20721561920514,0,60,3.0,5,0.1107580145695328
6.655,4.641847214699205e-06,81.83747541445932,0,60,3.0,5,0.10205824504610164
6.66,3.025641074479182e-06,81.47886308952788,0,60,3.0,5,0.09362030798889123
6.665,1.9566278676921314e-06,81.13354045891697,0,60,3.0,5,0.08549506962157573
6.67,1.2553456560008793e-06,80.80331538843093,0,60,3.0,5,0.07772506796308074
6.675,7.990660428214668e-07,80.48964151788857,0,60,3.0,5,0.07034450630326052
6.68,5.046221251618276e-07,80.1936255753785,0,60,3.0,5,0.06337942530302364
6.685,3.1616527078858815e-07,79.91604140743877,0,60,3.0,5,0.05684803311620633
6.69,1.9652884407760343e-07,79.65734973059041,0,60,3.0,5,0.050761170131539086
6.695,1.2120002189836396e-07,79.41772253577084,0,60,3.0,5,0.04512288319460789
6.7,7.415549848886236e-08,79.19707104686094,0,60,3.0,5,0.039931083455551554
6.705,4.501406988770349e-08,78.99507614445564,0,60,3.0,5,0.035178262222485594
6.71,0.0,78.81122021168667,0,60,3.0,5,0.030852240274980566
6.715,0.0,78.64481943465971,0,60,3.0,5,0.0269369278743461
6.72,0.0,78.49505568965337,0,60,3.0,5,0.023413075050667524
6.725,0.0,78.36100726610847,0,60,3.0,5,0.02025899449666995
6.73,0.0,78.24167780211948,0,60,3.0,5,0.017451242402811363
6.735,0.0,78.13602294148403,0,60,3.0,5,0.014965245681977154
6.74,0.0,78.04297435280705,0,60,3.0,5,0.012775867124871772
6.745,0.0,77.96146087689337,0,60,3.0,5,0.010857902985726335
6.75,0.0,77.89042668477981,0,60,3.0,5,0.009186510230113206
6.755,0.0,77.82884643227335,0,60,3.0,5,0.007737563112314159
6.76,0.0,77.77573748574355,0,60,3.0,5,0.006487940841024657
6.765,0.0,77.73016936702706,0,60,3.0,5,0.0054157498124014
6.77,0.0,77.69127062232624,0,60,3.0,5,0.004500485231205724
6.775,0.0,77.6582333613129,0,60,3.0,5,0.0037231379132445937
6.78,0.0,77.63031573925792,0,60,3.0,5,0.0030662526884217348
6.785,0.0,77.60684266831569,0,60,3.0,5,0.0025139451368398325
6.79,0.0,77.58720504582733,0,60,3.0,5,0.002051883431231344
6.795,0.0,77.57085777957612,0,60,3.0,5,0.001667241872379196
6.8,0.0,77.55731687430486,0,60,3.0,5,0.0013486323365849357
6.805,0.0,77.54615582242496,0,60,3.0,5,0.0010860193511756306
6.81,0.0,77.53700151653213,0,60,3.0,5,0.0008706239184030384
6.815,0.0,77.52952987374293,0,60,3.0,5,0.0006948205586571904
6.82,0.0,77.52346133340869,0,60,3.0,5,0.0005520313743221215
6.825,0.0,77.51855636164399,0,60,3.0,5,0.0004366202739761855
6.83,0.0,77.51461106927293,0,60,3.0,5,0.0003437898652454324
6.835,0.0,77.51145302495763,0,60,3.0,5,0.00026948294017957404
6.84,0.0,77.50893732291566,0,60,3.0,5,0.0002102899509566214
6.845,0.0,77.50694294504625,0,60,3.0,5,0.00016336341285289242
6.85,0.0,77.50536944058639,0,60,3.0,5,0.00012633977850334626
6.855,0.0,77.50413393258488,0,60,3.0,5,9.7269001997133e-05
6.86,0.0,77.50316844938739,0,60,3.0,5,7.455175029148824e-05
6.865,0.0,77.50241757075612,0,60,3.0,5,5.6884017791122355e-05
6.87,0.0,77.50183637194186,0,60,3.0,5,4.320875157324789e-05
6.875,0.0,77.50138864469302,0,60,3.0,5,3.267399277700968e-05
6.88,0.0,77.50104537152076,0,60,3.0,5,2.4596976959066844e-05
6.885,0.0,77.50078342824536,0,60,3.0,5,1.8433605773078158e-05
6.89,0.0,77.5005844896453,0,60,3.0,5,1.3752697536601237e-05
6.895,0.0,77.50043411366167,0,60,3.0,5,1.0214439098089155e-05
6.9,0.0,77.5003209808483,0,60,3.0,5,7.552490548251251e-06
6.905,0.0,77.50023626741132,0,60,3.0,5,5.559233207631062e-06
6.91,0.0,77.50017313208562,0,60,3.0,5,4.073696132255624e-06
6.915,0.0,77.50012629912273,0,60,3.0,5,2.9717440641514474e-06
6.92,0.0,77.50009172170994,0,60,3.0,5,2.1581578808389383e-06
6.925,0.0,77.50006631213128,0,60,3.0,5,1.5602854419097745e-06
6.93,0.0,77.50004772686034,0,60,3.0,5,1.1229849492872958e-06
6.935,0.0,77.5000341965096,0,60,3.0,5,8.046237553571701e-07
6.94,0.0,77.50002439213024,0,60,3.0,5,5.739324762998877e-07
6.945,0.0,77.5000173207509,0,60,3.0,5,4.0754707998423647e-07
6.95,0.0,77.50001224426546,0,60,3.0,5,2.8810036383219996e-07
6.955,0.0,77.50000861683532,0,60,3.0,5,2.0274906626796378e-07
6.96,0.0,77.50000603687084,0,60,3.0,5,1.4204401984042145e-07
6.965,0.0,77.50000421041604,0,60,3.0,5,9.906861263890973e-08
6.97,0.001684486749771458,77.5000029233928,0,60,3.0,5,6.878571291642455e-08
6.975,0.003097557930867117,77.50000202068385,0,60,3.0,5,4.7545502384844656e-08
6.98,0.005475106668887023,77.50000139046033,0,60,3.0,5,3.2716713563144474e-08
6.985,0.00930222931468658,77.50000095250633,0,60,3.0,5,2.2411913558993118e-08
6.99,0.01519157517868857,77.50000064957032,0,60,3.0,5,1.5284007638590135e-08
6.995,0.023847336626128316,77.50000044099485,0,60,3.0,5,1.0376349484217558e-08
7.0,0.0359830743700859,77.50000029805052,0,60,3.0,5,7.012953480679083e-09
7.005,0.05218887796857759,77.50000020053736,0,60,3.0,5,4.71852605615448e-09
7.01,0.0727577001223134,77.5000001343228,0,60,3.0,5,3.1605365540385452e-09
7.015,0.0974992498694751,77.50000008956808,0,60,3.0,5,2.1074841323056984e-09
7.02,0.12558706050443358,77.50000005945738,0,60,3.0,5,1.3989971220700468e-09
7.025,0.15549263588878245,77.50000003929229,0,60,3.0,5,9.24524436092778e-10
7.03,0.1850529723539114,77.50000002584984,0,60,3.0,5,6.082316036447403e-10
7.035,0.21169159439317053,77.50000001693002,0,60,3.0,5,3.983533294077086e-10
7.04,0.23277292922115492,77.5000000110384,0,60,3.0,5,2.5972694322049124e-10
7.045,0.24602692519491282,77.5000000071648,0,60,3.0,5,1.6858353667296744e-10
7.05,0.24995056064839283,77.50000000462967,0,60,3.0,5,1.08933390412644e-10
7.055,0.24408826520424054,77.50000000297815,0,60,3.0,5,7.007422616023926e-11
7.06,0.22911894216865275,77.50000000190718,0,60,3.0,5,4.487486983313883e-11
7.065,0.20672661788705934,77.50000000121587,0,60,3.0,5,2.860862396654043e-11
7.07,0.17928878030241233,77.50000000077166,0,60,3.0,5,1.8156791103298448e-11
7.075,0.14946211903866036,77.50000000048755,0,60,3.0,5,1.1471670672215302e-11
7.08,0.1197651512573837,77.50000000030666,0,60,3.0,5,7.215436091749272e-12
7.085,0.09224675744988023,77.50000000019202,0,60,3.0,5,4.51804868027787e-12
7.09,0.06829565320281596,77.5000000001197,0,60,3.0,5,2.816424218026976e-12
7.095,0.04860224607515734,77.50000000007428,0,60,3.0,5,1.7477679434437852e-12
7.1,0.03324612389699793,77.50000000004589,0,60,3.0,5,1.0796905853032298e-12
7.105,0.021859876340472782,77.50000000002822,0,60,3.0,5,6.640648815150865e-13
7.11,0.01381595518554205,77.50000000001728,0,60,3.0,5,4.0659763138083853e-13
7.115,0.008394095110402422,77.50000000001053,0,60,3.0,5,2.4777043162269844e-13
7.12,0.0049052535271608,77.5000000000064,0,60,3.0,5,1.5046787345508003e-13
7.125,0.0027671663551903634,77.50000000000387,0,60,3.0,5,9.094947017729283e-14
7.13,0.0015425553464444616,77.50000000000232,0,60,3.0,5,5.4502807495951216e-14
7.135,0.0009638206637011801,77.50000000000139,0,60,3.0,5,3.2768559107995206e-14
7.14,0.0009804935156568228,77.50000000000082,0,60,3.0,5,1.9393637023099206e-14
7.145,0.0018793744894085216,77.5000000000005,0,60,3.0,5,1.1703056824284003e-14
7.15,0.004535525206900863,77.50000000000028,0,60,3.0,5,6.687461042448002e-15
7.155,0.010832767979632273,77.50000000000017,0,60,3.0,5,4.012476625468801e-15
7.16,0.024208003392322392,77.5000000000001,0,60,3.0,5,2.3406113648568006e-15
7.165,0.0500971897335304,77.50000000000006,0,60,3.0,5,1.3374922084896003e-15
7.17,0.09582894921774403,77.50000000000003,0,60,3.0,5,6.687461042448002e-16
7.175,0.16937896721820658,77.50000000000001,0,60,3.0,5,3.343730521224001e-16
7.18,0.27661303008991756,77.50000000000001,0,60,3.0,5,3.343730521224001e-16
7.185,0.4173782800009149,77.5,0,60,3.0,5,0.0
7.19,0.5818720934538056,77.5,0,60,3.0,5,0.0
7.195,0.7494718801585675,77.5,0,60,3.0,5,0.0
7.2,0.891813020752378,77.5,0,60,3.0,5,0.0
7.205,0.9800361632936612,77.5,0,60,3.0,5,0.0
7.21,0.993574479225126,77.50000249060646,1,60,3.0,5,5.860250499769309e-08
7.215,0.9263438449375362,77.50000385734029,0,60,3.0,5,9.076094797552179e-08
7.22,0.7873015962290536,77.50000610730334,0,60,3.0,5,1.437012549425109e-07
7.225,0.5959516244629897,77.50000999976028,0,60,3.0,5,2.3528847718272813e-07
7.23,0.376910120078773,77.50001711607312,0,60,3.0,6,4.027311323331078e-07
7.235,0.15739335672107918,77.5000308127143,0,60,3.0,6,7.250050423542288e-07
7.24,-0.033361226269301235,77.50005823243188,0,60,3.0,6,1.3701748678292514e-06
7.245,-0.1680180840843834,77.50011443699209,0,60,3.0,6,2.6926351080526407e-06
7.25,-0.23069703190837854,77.50023065316174,0,60,3.0,6,5.427133217327697e-06
7.255,-0.22587267821131068,77.50047021644501,0,60,3.0,6,1.106391635316333e-05
7.26,-0.17718181630665902,77.5009583966,0,60,3.0,6,2.255050823524631e-05
7.265,-0.11494332516451301,77.50193629964134,0,60,3.0,6,4.5559991561022426e-05
7.27,-0.061810214049552864,77.50385483894526,0,60,3.0,6,9.07020928296146e-05
7.275,-0.026546104631500547,77.50753250751332,0,60,3.0,6,0.0001772354709015979
7.28,-0.00719600351942686,77.51440996954433,0,60,3.0,6,0.00033905810692544944
7.285,0.0022072757983807078,77.52694391670826,0,60,3.0,6,0.0006339745107826435
7.29,0.006917199873730717,77.54918926053296,0,60,3.0,6,0.0011573943654813025
7.295,0.01004859748264829,77.5876176648087,0,60,3.0,6,0.0020615921131459745
7.3,0.013037082251128167,77.65220482613245,0,60,3.0,6,0.003581290026645815
7.305,0.01645163937690478,77.7577808422973,0,60,3.0,6,0.006065431583465732
7.31,0.020526639934696615,77.92557045679185,0,60,3.0,6,0.010013422512749311
7.315,0.02539629541761738,78.1847502601857,0,60,3.0,6,0.016111770827898695
7.32,0.031171612185577933,78.57372412531626,0,60,3.0,6,0.02526409706626496
7.325,0.03795853426638131,79.14068530680169,0,60,3.0,6,0.038604360160039666
7.33,0.0458588961882057,79.94292800606925,0,60,3.0,6,0.05748065896633534
7.335,0.054966995891435555,81.0443400664048,0,60,3.0,6,0.08339623685658352
7.34,0.06536491004445595,82.51060356247285,0,60,3.0,6,0.11789655441112593
7.345,0.07711726085088699,84.4018923138275,0,60,3.0,6,0.16239746620770595
7.35,0.09026570629555215,86.76329520888174,0,60,3.0,6,0.2179598872678057
7.355,0.10482339848670268,89.61377301640115,0,60,3.0,6,0.28502995332708597
7.36,0.12076968927580028,92.93507670582724,0,60,3.0,6,0.3631782754312292
7.365,0.13804539501007884,96.66256820647882,0,60,3.0,6,0.45088395779950174
7.37,0.15654895051787066,100.68011755916041,0,60,3.0,6,0.5454145308037743
7.375,0.17613378141900526,104.82105425803283,0,60,3.0,6,0.6428483354831255
7.38,0.19660720058055794,108.8764532668383,0,60,3.0,6,0.7382694886314893
7.385,0.21773108748496234,112.61088723201624,0,60,3.0,6,0.8261385231062645
7.39,0.23922453870058807,115.78436216317712,0,60,3.0,6,0.9008085214865205
7.395,0.2607685857914563,118.1777713622895,0,60,3.0,6,0.9571240320538708
7.4,0.2820129681603682,119.61819191512663,0,60,3.0,6,0.9910162803559207
7.405,0.30258482867153996,120.0,0,60,3.0,6,1.0
7.41,0.3220990771751686,119.29824545748835,0,60,3.0,6,0.9834881284114906
7.415,0.3401700499968971,117.5719546188641,0,60,3.0,6,0.9428695204438611
7.42,0.3564239911198326,114.95677661133668,0,60,3.0,6,0.8813359202667453
7.425,0.3705118017738417,111.64826619736436,0,60,3.0,6,0.8034886164085733
7.43,0.3821214567925213,107.87868369700878,0,60,3.0,6,0.7147925575766773
7.435,0.39098947374066967,103.89114672130673,0,60,3.0,6,0.6209681581483936
7.44,0.3969108472035567,99.91511507625712,0,60,3.0,6,0.5274144723825206
7.445,0.3997469255491936,96.14656082953842,0,60,3.0,6,0.4387426077538451
7.45,0.3994308076379137,92.73498319976926,0,60,3.0,6,0.3584701929357473
7.455,0.3959699661768434,89.77799372275705,0,60,3.0,6,0.2888939699472246
7.46,0.38944595408114946,87.32285486110474,0,60,3.0,6,0.23112599673187634
7.465,0.38001120995358023,85.37336529966561,0,60,3.0,6,0.185255654109779
7.47,0.3678831374098315,83.89998207819981,0,60,3.0,6,0.15058781360470147
7.475,0.35333577933796634,82.8510525309259,0,60,3.0,6,0.125907118374727
7.48,0.33668953221163944,82.16338984647568,0,60,3.0,6,0.10972681991707485
7.485,0.3182994390982644,81.7710004035094,0,60,3.0,6,0.10049412714139776
7.49,0.29854265738230645,81.61139076399436,0,60,3.0,6,0.0967386062116321
7.495,0.2778057157821067,81.62941598109197,0,60,3.0,6,0.0971627289668698
7.5,0.2564721553719815,81.7790040818856,0,60,3.0,6,0.1006824489855436
7.505,0.23491109433464996,82.02328621441396,0,60,3.0,6,0.1064302638685637
7.51,0.21346717185309805,82.33370255304422,0,60,3.0,6,0.1137341777186875
7.515,0.19245222055656455,82.68858789463043,0,60,3.0,6,0.12208442105012778
7.52,0.17213889801761392,83.07161944197627,0,60,3.0,6,0.13109692804650042
7.525,0.15275638501270183,83.47037548139828,0,60,3.0,6,0.1404794230917242
7.53,0.13448814019607322,83.87513591955003,0,60,3.0,6,0.1500031981070596
7.535,0.11747159495449566,84.27796761085855,0,60,3.0,6,0.15948159084373068
7.54,0.10179958433370105,84.67208126420148,0,60,3.0,6,0.16875485327532896
7.545,0.08752324394101413,85.05141767098016,0,60,3.0,6,0.17768041578776841
7.55,0.07465606047174059,85.41041137477472,0,60,3.0,6,0.18612732646528765
7.555,0.0631787448609295,85.74388204533,0,60,3.0,6,0.1939736951842352
7.56,0.05304460019959574,86.0470116192692,0,60,3.0,6,0.20110615574751056
7.565,0.044185078305849994,86.31537463568876,0,60,3.0,6,0.20742057966326483
7.57,0.03651525513023255,86.54499785256412,0,60,3.0,6,0.21282347888386172
7.575,0.0299390014708757,86.73243223546459,0,60,3.0,6,0.21723369965799025
7.58,0.024353677220580638,86.87482563242001,0,60,3.0,6,0.2205841325275297
7.585,0.01965423034339045,86.96998815607745,0,60,3.0,6,0.22282325073123407
7.59,0.015736632374757337,87.01644488029292,0,60,3.0,6,0.22391635012453937
7.595,0.012500627640593535,87.01347229325384,0,60,3.0,6,0.22384640690009036
7.6,0.009851811652115898,86.96111631870204,0,60,3.0,6,0.22261450161651858
7.605,0.007703084175428559,86.86019081224607,0,60,3.0,6,0.22023978381755469
7.61,0.005975544002062424,86.7122563730027,0,60,3.0,6,0.21675897348241652
7.615,0.004598905818663047,86.51958013614413,0,60,3.0,6,0.21222541496809713
7.62,0.0035115256454839104,86.28507794654647,0,60,3.0,6,0.2067077163893286
7.625,0.002660121266303676,86.01224095394758,0,60,3.0,6,0.20028802244582547
7.63,0.0019992692560877024,85.7050492026738,0,60,3.0,6,0.19305998123938367
7.635,0.0014907520044639367,85.36787519896696,0,60,3.0,6,0.18512647526981074
7.64,0.0011028178277539807,85.00538071378118,0,60,3.0,6,0.1765971932654395
7.645,0.0008094059938923333,84.6224102114667,0,60,3.0,6,0.1675861226227459
7.65,0.0005893771793717645,84.22388428441178,0,60,3.0,6,0.15820904198615957
7.655,0.0004257792353490551,83.81469632673434,0,60,3.0,6,0.14858109004080788
7.66,0.0003051686392901525,83.39961540923211,0,60,3.0,6,0.13881448021722617
7.665,0.00021699992642659966,82.98319794133803,0,60,3.0,6,0.1290164221491302
7.67,0.00015308884054097838,82.5697102464525,0,60,3.0,6,0.11928729991652945
7.675,0.00010714989329311098,82.16306366028918,0,60,3.0,6,0.10971914494798077
7.68,7.440535854020571e-05,81.76676321464303,0,60,3.0,6,0.10039442857983612
7.685,5.1260276743925106e-05,81.3838704178972,0,60,3.0,6,0.09138518630346351
7.69,3.503659887882241e-05,81.01698011357695,0,60,3.0,6,0.08275247326063409
7.695,2.375894748103639e-05,80.66821091136433,0,60,3.0,6,0.07454613909092533
7.7,1.5984413869232557e-05,80.33920825933811,0,60,3.0,6,0.06680490021972017
7.705,1.0669166579899869e-05,80.03115887537963,0,60,3.0,6,0.059556679420697214
7.71,7.06526633560511e-06,79.74481498835964,0,60,3.0,6,0.052819176196697314
7.715,4.641847214699205e-06,79.48052665965687,0,60,3.0,6,0.0466006272860441
7.72,3.025641074479182e-06,79.23828036186586,0,60,3.0,6,0.0409007143968438
7.725,1.9566278676921314e-06,79.01774197921334,0,60,3.0,6,0.03571157598149037
7.73,1.2553456560008793e-06,78.8183024547782,0,60,3.0,6,0.03101888128889895
7.735,7.990660428214668e-07,78.6391244320625,0,60,3.0,6,0.02680292781323534
7.74,5.046221251618276e-07,78.47918841005006,0,60,3.0,6,0.023039727295295454
7.745,3.1616527078858815e-07,78.3373371380437,0,60,3.0,6,0.019702050306910437
7.75,1.9652884407760343e-07,78.21231720572483,0,60,3.0,6,0.016760404840584227
7.755,1.2120002189836396e-07,78.10281702217611,0,60,3.0,6,0.014183929933555566
7.76,7.415549848886236e-08,78.00750061349781,0,60,3.0,6,0.011941190905830849
7.765,4.501406988770349e-08,77.92503689230902,0,60,3.0,6,0.010000868054329965
7.77,0.0,77.85412425603842,0,60,3.0,6,0.008332335436198064
7.775,0.0,77.79351054877074,0,60,3.0,6,0.006906130559311537
7.78,0.0,77.74200856992353,0,60,3.0,6,0.005694319292318288
7.785,0.0,77.69850743053568,0,60,3.0,6,0.004670763071427874
7.79,0.0,77.66198014454383,0,60,3.0,6,0.003811297518678416
7.795,0.0,77.63148789963498,0,60,3.0,6,0.0030938329325876754
7.8,0.0,77.60618148274689,0,60,3.0,6,0.0024983878293386064
7.805,0.0,77.58530034248456,0,60,3.0,6,0.0020070668819896047
7.81,0.0,77.56816975854922,0,60,3.0,6,0.0016039943188051143
7.815,0.0,77.55419656084052,0,60,3.0,6,0.0012752131962476116
7.82,0.0,77.542863802236,0,60,3.0,6,0.0010085600526117426
7.825,0.0,77.53372474296843,0,60,3.0,6,0.0007935233639630844
7.83,0.0,77.52639645440267,0,60,3.0,6,0.0006210930447687535
7.835,0.0,77.52055329875957,0,60,3.0,6,0.0004836070296368475
7.84,0.0,77.51592049130771,0,60,3.0,6,0.00037459979547553997
7.845,0.0,77.5122679045549,0,60,3.0,6,0.0002886565777624342
7.85,0.0,77.50940423131003,0,60,3.0,6,0.00022127603082420887
7.855,0.0,77.50717158596277,0,60,3.0,6,0.0001687431991239036
7.86,0.0,77.50544059134097,0,60,3.0,6,0.00012801391390519925
7.865,0.0,77.50410597211048,0,60,3.0,6,9.661110848188561e-05
7.87,0.0,77.50308265466796,0,60,3.0,6,7.253305101090411e-05
7.875,0.0,77.50230235743923,0,60,3.0,6,5.4173116217270946e-05
7.88,0.0,77.50171064389794,0,60,3.0,6,4.025044465733759e-05
7.885,0.0,77.50126440285658,0,60,3.0,6,2.9750655448879117e-05
7.89,0.0,77.50092971602302,0,60,3.0,6,2.1875671129959407e-05
7.895,0.0,77.50068007084202,0,60,3.0,6,1.6001666871127728e-05
7.9,0.0,77.5004948766761,0,60,3.0,6,1.1644157084714715e-05
7.905,0.0,77.50035824390325,0,60,3.0,6,8.429268311762345e-06
7.91,0.0,77.50025798806918,0,60,3.0,6,6.070307510111995e-06
7.915,0.0,77.50018482445232,0,60,3.0,6,4.348810642795798e-06
7.92,0.0,77.50013172197245,0,60,3.0,6,3.0993405282649347e-06
7.925,0.0,77.50009338906223,0,60,3.0,6,2.1973896995110835e-06
7.93,0.0,77.50006586774495,0,60,3.0,6,1.5498292929591758e-06
7.935,0.0,77.50004621559701,0,60,3.0,6,1.0874258119950836e-06
7.94,0.0,77.5000322584378,0,60,3.0,6,7.590220658424669e-07
7.945,0.0,77.5000223994362,0,60,3.0,6,5.270455577534877e-07
7.95,0.0,77.50001547283287,0,60,3.0,6,3.6406665578718223e-07
7.955,0.001684486749771458,77.50001063265135,0,60,3.0,6,2.5018003183878834e-07
7.96,0.003097557930867117,77.50000726862568,0,60,3.0,6,1.7102648658852988e-07
7.965,0.005475106668887023,77.50000494312994,0,60,3.0,6,1.1630893970290987e-07
7.97,0.00930222931468658,77.50000334418844,0,60,3.0,6,7.86867868849667e-08
7.975,0.01519157517868857,77.50000225070433,0,60,3.0,6,5.2957748868506956e-08
7.98,0.023847336626128316,77.50000150690246,0,60,3.0,6,3.545652856808053e-08
7.985,0.0359830743700859,77.50000100366974,0,60,3.0,6,2.3615758530414656e-08
7.99,0.05218887796857759,77.50000066502123,0,60,3.0,6,1.564755841761379e-08
7.995,0.0727577001223134,77.50000043834815,0,60,3.0,6,1.0314074175125022e-08
8.0,0.0974992498694751,77.50000028743645,0,60,3.0,6,6.763210582421915e-09
8.005,0.12558706050443358,77.50000018750096,0,60,3.0,6,4.411787264924736e-09
8.01,0.15549263588878245,77.50000012167578,0,60,3.0,6,2.8629595844369546e-09
8.015,0.1850529723539114,77.50000007854956,0,60,3.0,6,1.8482249769851263e-09
8.02,0.21169159439317053,77.5000000504455,0,60,3.0,6,1.1869527792013661e-09
8.025,0.23277292922115492,77.5000000322285,0,60,3.0,6,7.583176230742965e-10
8.03,0.24602692519491282,77.50000002048314,0,60,3.0,6,4.819562892568202e-10
8.035,0.24995056064839283,77.50000001295066,0,60,3.0,6,3.047215186062899e-10
8.04,0.24408826520424054,77.50000000814568,0,60,3.0,6,1.9166296784961186e-10
8.045,0.22911894216865275,77.50000000509684,0,60,3.0,6,1.1992557012811578e-10
8.05,0.20672661788705934,77.50000000317259,0,60,3.0,6,7.464911825937794e-11
8.055,0.17928878030241233,77.50000000196455,0,60,3.0,6,4.622473384455696e-11
8.06,0.14946211903866036,77.5000000012102,0,60,3.0,6,2.847520911874359e-11
8.065,0.1197651512573837,77.50000000074162,0,60,3.0,6,1.7449926471111694e-11
8.07,0.09224675744988023,77.50000000045212,0,60,3.0,6,1.063807865327416e-11
8.075,0.06829565320281596,77.5000000002742,0,60,3.0,6,6.45172804070171e-12
8.08,0.04860224607515734,77.50000000016543,0,60,3.0,6,3.892436699756859e-12
8.085,0.03324612389699793,77.50000000009929,0,60,3.0,6,2.3362645151792095e-12
8.09,0.021859876340472782,77.50000000005929,0,60,3.0,6,1.3950043734546533e-12
8.095,0.01381595518554205,77.50000000003521,0,60,3.0,6,8.285764231593074e-13
8.1,0.008394095110402422,77.5000000000208,0,60,3.0,6,4.895221483071937e-13
8.105,0.0049052535271608,77.50000000001224,0,60,3.0,6,2.8789519787738646e-13
8.11,0.0027671663551903634,77.50000000000715,0,60,3.0,6,1.6818964521756725e-13
8.115,0.0015425553464444616,77.50000000000416,0,60,3.0,6,9.797130427186323e-14
8.12,0.0009638206637011801,77.5000000000024,0,60,3.0,6,5.6509045808685616e-14
8.125,0.0009804935156568228,77.50000000000138,0,60,3.0,6,3.243418605587281e-14
8.13,0.0018793744894085216,77.5000000000008,0,60,3.0,6,1.8724890918854405e-14
8.135,0.004535525206900863,77.50000000000045,0,60,3.0,6,1.0699937667916803e-14
8.14,0.010832767979632273,77.50000000000026,0,60,3.0,6,6.0187149382032015e-15
8.145,0.024208003392322392,77.50000000000014,0,60,3.0,6,3.343730521224001e-15
8.15,0.0500971897335304,77.50000000000009,0,60,3.0,6,2.0062383127344005e-15
8.155,0.09582894921774403,77.50000000000004,0,60,3.0,6,1.0031191563672002e-15
8.16,0.16937896721820658,77.50000000000003,0,60,3.0,6,6.687461042448002e-16
8.165,0.27661303008991756,77.50000000000001,0,60,3.0,6,3.343730521224001e-16
8.17,0.4173782800009149,77.5,0,60,3.0,6,0.0
8.175,0.5818720934538056,77.5,0,60,3.0,6,0.0
8.18,0.7494718801585675,77.5,0,60,3.0,6,0.0
8.185,0.891813020752378,77.5,0,60,3.0,6,0.0
8.19,0.9800361632936612,77.5,0,60,3.0,6,0.0
8.195,0.993574479225126,77.50000249265109,1,60,3.0,6,5.865061392368636e-08
8.2,0.9263438449375362,77.50000398518917,0,60,3.0,6,9.376915687318936e-08
8.205,0.7873015962290536,77.50000654066784,0,60,3.0,6,1.5389806682886795e-07
8.21,0.5959516244629897,77.50001117740402,0,60,3.0,6,2.6299774162907853e-07
8.215,0.376910120078773,77.50002013947866,0,60,3.0,6,4.738700862189409e-07
8.22,0.15739335672107918,77.5000384600986,0,60,3.0,6,9.049434963264288e-07
8.225,-0.033361226269301235,77.50007741584777,0,60,3.0,6,1.8215493592860558e-06
8.23,-0.1680180840843834,77.50016192215617,0,60,3.0,6,3.809933086278547e-06
8.235,-0.23069703190837854,77.50034582846276,0,60,3.0,6,8.137140300130555e-06
8.24,-0.22587267821131068,77.50074240798563,0,60,3.0,6,1.746842319120975e-05
8.245,-0.17718181630665902,77.50158283173528,0,60,3.0,6,3.7243099653578076e-05
8.25,-0.11494332516451301,77.50332386614215,0,60,3.0,6,7.820861510949458e-05
8.255,-0.061810214049552864,77.50683799925999,0,60,3.0,6,0.00016089410023496117
8.26,-0.026546104631500547,77.51373441655053,0,60,3.0,6,0.0003231627423655054
8.265,-0.00719600351942686,77.52687569910647,0,60,3.0,6,0.0006323693907404504
8.27,0.0022072757983807078,77.55116788428217,0,60,3.0,6,0.001203950218403888
8.275,0.006917199873730717,77.59470175431602,0,60,3.0,6,0.0022282765721416474
8.28,0.01004859748264829,77.67029790979625,0,60,3.0,6,0.004007009642264634
8.285,0.013037082251128167,77.7974418428452,0,60,3.0,6,0.006998631596357708
8.29,0.01645163937690478,78.00447430391384,0,60,3.0,6,0.011869983621502074
8.295,0.020526639934696615,78.33072285038611,0,60,3.0,6,0.019546420009084936
8.3,0.02539629541761738,78.82803821419652,0,60,3.0,6,0.031247957981094702
8.305,0.031171612185577933,79.56097824520513,0,60,3.0,6,0.048493605769532586
8.31,0.03795853426638131,80.60473847007711,0,60,3.0,6,0.07305266988416727
8.315,0.0458588961882057,82.03996014692362,0,60,3.0,6,0.10682259169232045
8.32,0.054966995891435555,83.94385011838155,0,60,3.0,6,0.15162000278544818
8.325,0.06536491004445595,86.37767589396867,0,60,3.0,6,0.20888649162279227
8.33,0.07711726085088699,89.37162197482888,0,60,3.0,6,0.2793322817606796
8.335,0.09026570629555215,92.90905900097749,0,60,3.0,6,0.3625660941406469
8.34,0.10482339848670268,96.91321870732834,0,60,3.0,6,0.45678161664301975
8.345,0.12076968927580028,101.23975090338715,0,60,3.0,6,0.5585823741973447
8.35,0.13804539501007884,105.67835968633564,0,60,3.0,6,0.6630202279137798
8.355,0.15654895051787066,109.9655210856638,0,60,3.0,6,0.7638946137803246
8.36,0.17613378141900526,113.80827084332563,0,60,3.0,6,0.8543122551370737
8.365,0.19660720058055794,116.91660159020552,0,60,3.0,6,0.9274494491813062
8.37,0.21773108748496234,119.03972532135623,0,60,3.0,6,0.9774053016789701
8.375,0.23922453870058807,120.0,0,60,3.0,6,1.0
8.38,0.2607685857914563,119.71819486981664,0,60,3.0,6,0.9933692910545092
8.385,0.2820129681603682,118.22514303259423,0,60,3.0,6,0.9582386595904525
8.39,0.30258482867153996,115.65743887896393,0,60,3.0,6,0.8978220912697396
8.395,0.3220990771751686,112.23804596842908,0,60,3.0,6,0.8173657874924489
8.4,0.3401700499968971,108.24566642383822,0,60,3.0,6,0.7234274452667816
8.405,0.3564239911198326,103.97873354137889,0,60,3.0,6,0.6230290245030327
8.41,0.3705118017738417,99.72047151631871,0,60,3.0,6,0.5228346239133814
8.415,0.3821214567925213,95.71058737466072,0,60,3.0,6,0.42848440881554634
8.42,0.39098947374066967,92.12718604457994,0,60,3.0,6,0.344169083401881
8.425,0.3969108472035567,89.08004508009347,0,60,3.0,6,0.2724716489433758
8.43,0.3997469255491936,86.61410476743372,0,60,3.0,6,0.21444952393961683
8.435,0.3994308076379137,84.72042200656003,0,60,3.0,7,0.16989228250729477
8.44,0.3959699661768434,83.35113478668552,0,60,3.0,7,0.13767375968671813
8.445,0.38944595408114946,82.43514255356241,0,60,3.0,7,0.11612100126029211
8.45,0.38001120995358023,81.89197759278828,0,60,3.0,7,0.10334064924207717
8.455,0.3678831374098315,81.64238940648725,0,60,3.0,7,0.09746798603499422
8.46,0.35333577933796634,81.6151801350747,0,60,3.0,7,0.09682776788411047
8.465,0.33668953221163944,81.75060635081712,0,60,3.0,7,0.10001426707804993
8.47,0.3182994390982644,82.00111582897384,0,60,3.0,7,0.10590860774056088
8.475,0.29854265738230645,82.33033612390017,0,60,3.0,7,0.11365496762118041
8.48,0.2778057157821067,82.71115690383473,0,60,3.0,7,0.12261545656081727
8.485,0.2564721553719815,83.12355143657747,0,60,3.0,7,0.13231885733123463
8.49,0.23491109433464996,83.55255280048831,0,60,3.0,7,0.14241300707031326
8.495,0.21346717185309805,83.9865965664751,0,60,3.0,7,0.15262580156412
8.5,0.19245222055656455,84.41629201158128,0,60,3.0,7,0.1627362826254418
8.505,0.17213889801761392,84.83359239198698,0,60,3.0,7,0.17255511510557606
8.51,0.15275638501270183,85.23129130222692,0,60,3.0,7,0.1819127365229864
8.515,0.13448814019607322,85.60276139246572,0,60,3.0,7,0.19065320923448761
8.52,0.11747159495449566,85.94185923872563,0,60,3.0,7,0.1986319820876618
8.525,0.10179958433370105,86.24293515703938,0,60,3.0,7,0.20571612134210313
8.53,0.08752324394101413,86.50090259788347,0,60,3.0,7,0.211785943479611
8.535,0.07465606047174059,86.71133525558322,0,60,3.0,7,0.21673730013136994
8.54,0.0631787448609295,86.87057024485128,0,60,3.0,7,0.22048400576120658
8.545,0.05304460019959574,86.97580290241507,0,60,3.0,7,0.22296006829211926
8.55,0.044185078305849994,87.02516369076801,0,60,3.0,7,0.22412149860630615
8.555,0.03651525513023255,87.01777106783803,0,60,3.0,7,0.22394755453736534
8.56,0.0299390014708757,86.9537566386758,0,60,3.0,7,0.22244133267472468
8.565,0.024353677220580638,86.83426082299079,0,60,3.0,7,0.2196296664233126
8.57,0.01965423034339045,86.6613988844267,0,60,3.0,7,0.215562326692393
8.575,0.015736632374757337,86.43819858020841,0,60,3.0,7,0.2103105548284331
8.58,0.012500627640593535,86.16851193308655,0,60,3.0,7,0.20396498666085996
8.585,0.009851811652115898,85.85690469035502,0,60,3.0,7,0.19663305153776525
8.59,0.007703084175428559,85.5085278896082,0,60,3.0,7,0.18843595034372243
8.595,0.005975544002062424,85.12897656919976,0,60,3.0,7,0.17950533103999447
8.6,0.004598905818663047,84.72414102229583,0,60,3.0,7,0.16997978875990177
8.605,0.0035115256454839104,84.300056088787,0,60,3.0,7,0.16000131973616477
8.61,0.002660121266303676,83.86275381532766,0,60,3.0,7,0.149711854478298
8.615,0.0019992692560877024,83.41812441079733,0,60,3.0,7,0.13924998613640782
8.62,0.0014907520044639367,82.97178981552887,0,60,3.0,7,0.1287479956595027
8.625,0.0011028178277539807,82.52899343074151,0,60,3.0,7,0.11832925719391783
8.63,0.0008094059938923333,82.09450866958008,0,60,3.0,7,0.1081060863430607
8.635,0.0005893771793717645,81.67256804608654,0,60,3.0,7,0.09817807167262445
8.64,0.0004257792353490551,81.26681356614274,0,60,3.0,7,0.0886309074386528
8.645,0.0003051686392901525,80.88026827418531,0,60,3.0,7,0.07953572409847792
8.65,0.00021699992642659966,80.51532798422296,0,60,3.0,7,0.07094889374642267
8.655,0.00015308884054097838,80.17377151780276,0,60,3.0,7,0.06291227100712384
8.66,0.00010714989329311098,79.85678720962173,0,60,3.0,7,0.05545381669698185
8.665,7.440535854020571e-05,79.56501303754825,0,60,3.0,7,0.04858854205995893
8.67,5.1260276743925106e-05,79.29858749169244,0,60,3.0,7,0.042319705686881044
8.675,3.503659887882241e-05,79.05720821119262,0,60,3.0,7,0.03664019320453215
8.68,2.375894748103639e-05,78.84019547384673,0,60,3.0,7,0.03153401114933491
8.685,1.5984413869232557e-05,78.64655780260682,0,60,3.0,7,0.026977830649572272
8.69,1.0669166579899869e-05,78.47505722994445,0,60,3.0,7,0.02294252305751657
8.695,7.06526633560511e-06,78.32427210957142,0,60,3.0,7,0.019394637872268812
8.7,4.641847214699205e-06,78.1926557579629,0,60,3.0,7,0.01629778254030344
8.705,3.025641074479182e-06,78.07858961988646,0,60,3.0,7,0.013613873409093123
8.71,1.9566278676921314e-06,77.9804300596609,0,60,3.0,7,0.01130423669790362
8.715,1.2553456560008793e-06,77.89654826378585,0,60,3.0,7,0.00933054738319637
8.72,7.990660428214668e-07,77.82536308579414,0,60,3.0,7,0.007655602018685586
8.725,5.046221251618276e-07,77.76536696008434,0,60,3.0,7,0.006243928472572607
8.73,3.1616527078858815e-07,77.71514525189316,0,60,3.0,7,0.005062241221015577
8.735,1.9652884407760343e-07,77.67338959331528,0,60,3.0,7,0.004079755136830072
8.74,1.2120002189836396e-07,77.6389058816922,0,60,3.0,7,0.0032683736868751993
8.745,7.415549848886236e-08,77.61061769088091,0,60,3.0,7,0.0026027691971979923
8.75,4.501406988770349e-08,77.58756587402519,0,60,3.0,7,0.0020603735064750094
8.755,0.0,77.56890512593462,0,60,3.0,7,0.0016212970808145897
8.76,0.0,77.55389823209191,0,60,3.0,7,0.0012681936962802437
8.765,0.0,77.54190866774556,0,60,3.0,7,0.0009860862998955192
8.77,0.0,77.5323921321391,0,60,3.0,7,0.000762167815037508
8.775,0.0,77.52488751651502,0,60,3.0,7,0.0005855886238828803
8.78,0.0,77.51900771591679,0,60,3.0,7,0.000447240374512603
8.785,0.0,77.51443060865897,0,60,3.0,7,0.00033954373315222094
8.79,0.0,77.51089044714392,0,60,3.0,7,0.0002562458151510996
8.795,0.0,77.50816983187276,0,60,3.0,7,0.0001922313381826638
8.8,0.0,77.50609237843871,0,60,3.0,7,0.0001433500809107901
8.805,0.0,77.5045161355761,0,60,3.0,7,0.00010626201355521784
8.81,0.0,77.50332777086618,0,60,3.0,7,7.830049096890649e-05
8.815,0.0,77.50243750887084,0,60,3.0,7,5.735314990214219e-05
8.82,0.0,77.50177478332647,0,60,3.0,7,4.175960768159658e-05
8.825,0.0,77.50128454942946,0,60,3.0,7,3.0224692457803778e-05
8.83,0.0,77.5009241929401,0,60,3.0,7,2.1745716237747354e-05
