Time,ECG,Pressure,R_Peaks,mean_hr,hrv_scale,Phase_Bin,Normalized_Pressure
0.0,0.001684486749771458,77.5,0,60,1.0,0,0.0
0.005,0.003097557930867117,77.5,0,60,1.0,0,0.0
0.01,0.005475106668887023,77.5,0,60,1.0,0,0.0
0.015,0.00930222931468658,77.5,0,60,1.0,0,0.0
0.02,0.01519157517868857,77.5,0,60,1.0,0,0.0
0.025,0.023847336626128316,77.5,0,60,1.0,0,0.0
0.03,0.0359830743700859,77.5,0,60,1.0,0,0.0
0.035,0.05218887796857759,77.5,0,60,1.0,0,0.0
0.04,0.0727577001223134,77.5,0,60,1.0,0,0.0
0.045,0.0974992498694751,77.5,0,60,1.0,0,0.0
0.05,0.12558706050443358,77.5,0,60,1.0,0,0.0
0.055,0.15549263588878245,77.5,0,60,1.0,0,0.0
0.06,0.1850529723539114,77.5,0,60,1.0,0,0.0
0.065,0.21169159439317053,77.5,0,60,1.0,0,0.0
0.07,0.23277292922115492,77.5,0,60,1.0,0,0.0
0.075,0.24602692519491282,77.5,0,60,1.0,0,0.0
0.08,0.24995056064839283,77.5,0,60,1.0,0,0.0
0.085,0.24408826520424054,77.5,0,60,1.0,0,0.0
0.09,0.22911894216865275,77.5,0,60,1.0,0,0.0
0.095,0.20672661788705934,77.5,0,60,1.0,0,0.0
0.1,0.17928878030241233,77.5,0,60,1.0,0,0.0
0.105,0.14946211903866036,77.5,0,60,1.0,0,0.0
0.11,0.1197651512573837,77.5,0,60,1.0,0,0.0
0.115,0.09224675744988023,77.5,0,60,1.0,0,0.0
0.12,0.06829565320281596,77.5,0,60,1.0,0,0.0
0.125,0.04860224607515734,77.5,0,60,1.0,0,0.0
0.13,0.03324612389699793,77.5,0,60,1.0,0,0.0
0.135,0.021859876340472782,77.5,0,60,1.0,0,0.0
0.14,0.01381595518554205,77.5,0,60,1.0,0,0.0
0.145,0.008394095110402422,77.5,0,60,1.0,0,0.0
0.15,0.0049052535271608,77.5,0,60,1.0,0,0.0
0.155,0.0027671663551903634,77.5,0,60,1.0,0,0.0
0.16,0.0015425553464444616,77.5,0,60,1.0,0,0.0
0.165,0.0009638206637011801,77.5,0,60,1.0,0,0.0
0.17,0.0009804935156568228,77.5,0,60,1.0,0,0.0
0.175,0.0018793744894085216,77.5,0,60,1.0,0,0.0
0.18,0.004535525206900863,77.5,0,60,1.0,0,0.0
0.185,0.010832767979632273,77.5,0,60,1.0,0,0.0
0.19,0.024208003392322392,77.5,0,60,1.0,0,0.0
0.195,0.0500971897335304,77.5,0,60,1.0,0,0.0
0.2,0.09582894921774403,77.5,0,60,1.0,0,0.0
0.205,0.16937896721820658,77.5,0,60,1.0,0,0.0
0.21,0.27661303008991756,77.5,0,60,1.0,0,0.0
0.215,0.4173782800009149,77.5,0,60,1.0,0,0.0
0.22,0.5818720934538056,77.5,0,60,1.0,0,0.0
0.225,0.7494718801585675,77.5,0,60,1.0,0,0.0
0.23,0.891813020752378,77.5,0,60,1.0,0,0.0
0.235,0.9800361632936612,77.5,0,60,1.0,0,0.0
0.24,0.993574479225126,77.5,0,60,1.0,0,0.0
0.245,0.9263438449375362,77.5,0,60,1.0,0,0.0
0.25,0.7873015962290536,77.5,0,60,1.0,0,0.0
0.255,0.5959516244629897,77.5,0,60,1.0,0,0.0
0.26,0.376910120078773,77.5,0,60,1.0,0,0.0
0.265,0.15739335672107918,77.5,0,60,1.0,0,0.0
0.27,-0.033361226269301235,77.5,0,60,1.0,0,0.0
0.275,-0.1680180840843834,77.5,0,60,1.0,0,0.0
0.28,-0.23069703190837854,77.5,0,60,1.0,0,0.0
0.285,-0.22587267821131068,77.5,0,60,1.0,0,0.0
0.29,-0.17718181630665902,77.5,0,60,1.0,0,0.0
0.295,-0.11494332516451301,77.5,0,60,1.0,0,0.0
0.3,-0.061810214049552864,77.5,0,60,1.0,0,0.0
0.305,-0.026546104631500547,77.5,0,60,1.0,0,0.0
0.31,-0.00719600351942686,77.5,0,60,1.0,0,0.0
0.315,0.0022072757983807078,77.5,0,60,1.0,0,0.0
0.32,0.006917199873730717,77.5,0,60,1.0,0,0.0
0.325,0.01004859748264829,77.5,0,60,1.0,0,0.0
0.33,0.013037082251128167,77.5,0,60,1.0,0,0.0
0.335,0.01645163937690478,77.5,0,60,1.0,0,0.0
0.34,0.020526639934696615,77.5,0,60,1.0,0,0.0
0.345,0.02539629541761738,77.5,0,60,1.0,0,0.0
0.35,0.031171612185577933,77.5,0,60,1.0,0,0.0
0.355,0.03795853426638131,77.5,0,60,1.0,0,0.0
0.36,0.0458588961882057,77.5,0,60,1.0,0,0.0
0.365,0.054966995891435555,77.5,0,60,1.0,0,0.0
0.37,0.06536491004445595,77.5,0,60,1.0,0,0.0
0.375,0.07711726085088699,77.5,0,60,1.0,0,0.0
0.38,0.09026570629555215,77.5,0,60,1.0,0,0.0
0.385,0.10482339848670268,77.5,0,60,1.0,0,0.0
0.39,0.12076968927580028,77.5,0,60,1.0,0,0.0
0.395,0.13804539501007884,77.5,0,60,1.0,0,0.0
0.4,0.15654895051787066,77.5,0,60,1.0,0,0.0
0.405,0.17613378141900526,77.5,0,60,1.0,0,0.0
0.41,0.19660720058055794,77.5,0,60,1.0,0,0.0
0.415,0.21773108748496234,77.5,0,60,1.0,0,0.0
0.42,0.23922453870058807,77.5,0,60,1.0,0,0.0
0.425,0.2607685857914563,77.5,0,60,1.0,0,0.0
0.43,0.2820129681603682,77.5,0,60,1.0,0,0.0
0.435,0.30258482867153996,77.5,0,60,1.0,0,0.0
0.44,0.3220990771751686,77.5,0,60,1.0,0,0.0
0.445,0.3401700499968971,77.5,0,60,1.0,0,0.0
0.45,0.3564239911198326,77.5,0,60,1.0,0,0.0
0.455,0.3705118017738417,77.5,0,60,1.0,0,0.0
0.46,0.3821214567925213,77.5,0,60,1.0,0,0.0
0.465,0.39098947374066967,77.5,0,60,1.0,0,0.0
0.47,0.3969108472035567,77.5,0,60,1.0,0,0.0
0.475,0.3997469255491936,77.5,0,60,1.0,0,0.0
0.48,0.3994308076379137,77.5,0,60,1.0,0,0.0
0.485,0.3959699661768434,77.5,0,60,1.0,0,0.0
0.49,0.38944595408114946,77.5,0,60,1.0,0,0.0
0.495,0.38001120995358023,77.5,0,60,1.0,0,0.0
0.5,0.3678831374098315,77.5,0,60,1.0,0,0.0
0.505,0.35333577933796634,77.5,0,60,1.0,0,0.0
0.51,0.33668953221163944,77.5,0,60,1.0,0,0.0
0.515,0.3182994390982644,77.5,0,60,1.0,0,0.0
0.52,0.29854265738230645,77.5,0,60,1.0,0,0.0
0.525,0.2778057157821067,77.5,0,60,1.0,0,0.0
0.53,0.2564721553719815,77.5,0,60,1.0,0,0.0
0.535,0.23491109433464996,77.5,0,60,1.0,0,0.0
0.54,0.21346717185309805,77.5,0,60,1.0,0,0.0
0.545,0.19245222055656455,77.5,0,60,1.0,0,0.0
0.55,0.17213889801761392,77.5,0,60,1.0,0,0.0
0.555,0.15275638501270183,77.5,0,60,1.0,0,0.0
0.56,0.13448814019607322,77.5,0,60,1.0,0,0.0
0.565,0.11747159495449566,77.5,0,60,1.0,0,0.0
0.57,0.10179958433370105,77.5,0,60,1.0,0,0.0
0.575,0.08752324394101413,77.5,0,60,1.0,0,0.0
0.58,0.07465606047174059,77.5,0,60,1.0,0,0.0
0.585,0.0631787448609295,77.5,0,60,1.0,0,0.0
0.59,0.05304460019959574,77.5,0,60,1.0,0,0.0
0.595,0.044185078305849994,77.5,0,60,1.0,0,0.0
0.6,0.03651525513023255,77.5,0,60,1.0,0,0.0
0.605,0.0299390014708757,77.5,0,60,1.0,0,0.0
0.61,0.024353677220580638,77.5,0,60,1.0,0,0.0
0.615,0.01965423034339045,77.5,0,60,1.0,0,0.0
0.62,0.015736632374757337,77.5,0,60,1.0,0,0.0
0.625,0.012500627640593535,77.5,0,60,1.0,0,0.0
0.63,0.009851811652115898,77.5,0,60,1.0,0,0.0
0.635,0.007703084175428559,77.5,0,60,1.0,0,0.0
0.64,0.005975544002062424,77.5,0,60,1.0,0,0.0
0.645,0.004598905818663047,77.5,0,60,1.0,0,0.0
0.65,0.0035115256454839104,77.5,0,60,1.0,0,0.0
0.655,0.002660121266303676,77.5,0,60,1.0,0,0.0
0.66,0.0019992692560877024,77.5,0,60,1.0,0,0.0
0.665,0.0014907520044639367,77.5,0,60,1.0,0,0.0
0.67,0.0011028178277539807,77.5,0,60,1.0,0,0.0
0.675,0.0008094059938923333,77.5,0,60,1.0,0,0.0
0.68,0.0005893771793717645,77.5,0,60,1.0,0,0.0
0.685,0.0004257792353490551,77.5,0,60,1.0,0,0.0
0.69,0.0003051686392901525,77.5,0,60,1.0,0,0.0
0.695,0.00021699992642659966,77.5,0,60,1.0,0,0.0
0.7,0.00015308884054097838,77.5,0,60,1.0,0,0.0
0.705,0.00010714989329311098,77.5,0,60,1.0,0,0.0
0.71,7.440535854020571e-05,77.5,0,60,1.0,0,0.0
0.715,5.1260276743925106e-05,77.5,0,60,1.0,0,0.0
0.72,3.503659887882241e-05,77.5,0,60,1.0,0,0.0
0.725,2.375894748103639e-05,77.5,0,60,1.0,0,0.0
0.73,1.5984413869232557e-05,77.5,0,60,1.0,0,0.0
0.735,1.0669166579899869e-05,77.5,0,60,1.0,0,0.0
0.74,7.06526633560511e-06,77.5,0,60,1.0,0,0.0
0.745,4.641847214699205e-06,77.5,0,60,1.0,0,0.0
0.75,3.025641074479182e-06,77.5,0,60,1.0,0,0.0
0.755,1.9566278676921314e-06,77.5,0,60,1.0,0,0.0
0.76,1.2553456560008793e-06,77.5,0,60,1.0,0,0.0
0.765,7.990660428214668e-07,77.5,0,60,1.0,0,0.0
0.77,5.046221251618276e-07,77.5,0,60,1.0,0,0.0
0.775,3.1616527078858815e-07,77.5,0,60,1.0,0,0.0
0.78,1.9652884407760343e-07,77.5,0,60,1.0,0,0.0
0.785,1.2120002189836396e-07,77.5,0,60,1.0,0,0.0
0.79,7.415549848886236e-08,77.5,0,60,1.0,0,0.0
0.795,4.501406988770349e-08,77.5,0,60,1.0,0,0.0
0.8,0.0,77.5,0,60,1.0,0,0.0
0.805,0.0,77.5,0,60,1.0,0,0.0
0.81,0.0,77.5,0,60,1.0,0,0.0
0.815,0.0,77.5,0,60,1.0,0,0.0
0.82,0.0,77.5,0,60,1.0,0,0.0
0.825,0.0,77.5,0,60,1.0,0,0.0
0.83,0.0,77.5,0,60,1.0,0,0.0
0.835,0.0,77.5,0,60,1.0,0,0.0
0.84,0.0,77.5,0,60,1.0,0,0.0
0.845,0.0,77.5,0,60,1.0,0,0.0
0.85,0.0,77.5,0,60,1.0,0,0.0
0.855,0.0,77.5,0,60,1.0,0,0.0
0.86,0.0,77.5,0,60,1.0,0,0.0
0.865,0.0,77.5,0,60,1.0,0,0.0
0.87,0.0,77.5,0,60,1.0,0,0.0
0.875,0.0,77.5,0,60,1.0,0,0.0
0.88,0.0,77.5,0,60,1.0,0,0.0
0.885,0.0,77.5,0,60,1.0,0,0.0
0.89,0.0,77.5,0,60,1.0,0,0.0
0.895,0.0,77.5,0,60,1.0,0,0.0
0.9,0.0,77.5,0,60,1.0,0,0.0
0.905,0.0,77.5,0,60,1.0,0,0.0
0.91,0.0,77.5,0,60,1.0,0,0.0
0.915,0.0,77.5,0,60,1.0,0,0.0
0.92,0.0,77.5,0,60,1.0,0,0.0
0.925,0.0,77.5,0,60,1.0,0,0.0
0.93,0.0,77.5,0,60,1.0,0,0.0
0.935,0.0,77.5,0,60,1.0,0,0.0
0.94,0.0,77.5,0,60,1.0,0,0.0
0.945,0.0,77.5,0,60,1.0,0,0.0
0.95,0.0,77.5,0,60,1.0,0,0.0
0.955,0.0,77.5,0,60,1.0,0,0.0
0.96,0.0,77.5,0,60,1.0,0,0.0
0.965,0.0,77.5,0,60,1.0,0,0.0
0.97,0.0,77.5,0,60,1.0,0,0.0
0.975,0.0,77.5,0,60,1.0,0,0.0
0.98,0.0,77.5,0,60,1.0,0,0.0
0.985,0.0,77.5,0,60,1.0,0,0.0
0.99,0.001684486749771458,77.5,0,60,1.0,0,0.0
0.995,0.003097557930867117,77.5,0,60,1.0,0,0.0
1.0,0.005475106668887023,77.5,0,60,1.0,0,0.0
1.005,0.00930222931468658,77.5,0,60,1.0,0,0.0
1.01,0.01519157517868857,77.5,0,60,1.0,0,0.0
1.015,0.023847336626128316,77.5,0,60,1.0,0,0.0
1.02,0.0359830743700859,77.5,0,60,1.0,0,0.0
1.025,0.05218887796857759,77.5,0,60,1.0,0,0.0
1.03,0.0727577001223134,77.5,0,60,1.0,0,0.0
1.035,0.0974992498694751,77.5,0,60,1.0,0,0.0
1.04,0.12558706050443358,77.5,0,60,1.0,0,0.0
1.045,0.15549263588878245,77.5,0,60,1.0,0,0.0
1.05,0.1850529723539114,77.5,0,60,1.0,0,0.0
1.055,0.21169159439317053,77.5,0,60,1.0,0,0.0
1.06,0.23277292922115492,77.5,0,60,1.0,0,0.0
1.065,0.24602692519491282,77.5,0,60,1.0,0,0.0
1.07,0.24995056064839283,77.5,0,60,1.0,0,0.0
1.075,0.24408826520424054,77.5,0,60,1.0,0,0.0
1.08,0.22911894216865275,77.5,0,60,1.0,0,0.0
1.085,0.20672661788705934,77.5,0,60,1.0,0,0.0
1.09,0.17928878030241233,77.5,0,60,1.0,0,0.0
1.095,0.14946211903866036,77.5,0,60,1.0,0,0.0
1.1,0.1197651512573837,77.5,0,60,1.0,0,0.0
1.105,0.09224675744988023,77.5,0,60,1.0,0,0.0
1.11,0.06829565320281596,77.5,0,60,1.0,0,0.0
1.115,0.04860224607515734,77.5,0,60,1.0,0,0.0
1.12,0.03324612389699793,77.5,0,60,1.0,0,0.0
1.125,0.021859876340472782,77.5,0,60,1.0,0,0.0
1.13,0.01381595518554205,77.5,0,60,1.0,0,0.0
1.135,0.008394095110402422,77.5,0,60,1.0,0,0.0
1.14,0.0049052535271608,77.5,0,60,1.0,0,0.0
1.145,0.0027671663551903634,77.5,0,60,1.0,0,0.0
1.15,0.0015425553464444616,77.5,0,60,1.0,0,0.0
1.155,0.0009638206637011801,77.5,0,60,1.0,0,0.0
1.16,0.0009804935156568228,77.5,0,60,1.0,0,0.0
1.165,0.0018793744894085216,77.5,0,60,1.0,0,0.0
1.17,0.004535525206900863,77.5,0,60,1.0,0,0.0
1.175,0.010832767979632273,77.5,0,60,1.0,0,0.0
1.18,0.024208003392322392,77.5,0,60,1.0,0,0.0
1.185,0.0500971897335304,77.5,0,60,1.0,0,0.0
1.19,0.09582894921774403,77.5,0,60,1.0,0,0.0
1.195,0.16937896721820658,77.5,0,60,1.0,0,0.0
1.2,0.27661303008991756,77.5,0,60,1.0,0,0.0
1.205,0.4173782800009149,77.5,0,60,1.0,1,0.0
1.21,0.5818720934538056,77.5,0,60,1.0,1,0.0
1.215,0.7494718801585675,77.5,0,60,1.0,1,0.0
1.22,0.891813020752378,77.5,0,60,1.0,1,0.0
1.225,0.9800361632936612,77.5,0,60,1.0,1,0.0
1.23,0.993574479225126,77.50000249060646,1,60,1.0,1,5.860250499769309e-08
1.235,0.9263438449375362,77.50000385734029,0,60,1.0,1,9.076094797552179e-08
1.24,0.7873015962290536,77.50000610730334,0,60,1.0,1,1.437012549425109e-07
1.245,0.5959516244629897,77.50000999976028,0,60,1.0,1,2.3528847718272813e-07
1.25,0.376910120078773,77.50001711607312,0,60,1.0,1,4.027311323331078e-07
1.255,0.15739335672107918,77.5000308127143,0,60,1.0,1,7.250050423542288e-07
1.26,-0.033361226269301235,77.50005823243188,0,60,1.0,1,1.3701748678292514e-06
1.265,-0.1680180840843834,77.50011443699209,0,60,1.0,1,2.6926351080526407e-06
1.27,-0.23069703190837854,77.50023065316174,0,60,1.0,1,5.427133217327697e-06
1.275,-0.22587267821131068,77.50047021644501,0,60,1.0,1,1.106391635316333e-05
1.28,-0.17718181630665902,77.5009583966,0,60,1.0,1,2.255050823524631e-05
1.285,-0.11494332516451301,77.50193629964134,0,60,1.0,1,4.5559991561022426e-05
1.29,-0.061810214049552864,77.50385483894526,0,60,1.0,1,9.07020928296146e-05
1.295,-0.026546104631500547,77.50753250751332,0,60,1.0,1,0.0001772354709015979
1.3,-0.00719600351942686,77.51440996954433,0,60,1.0,1,0.00033905810692544944
1.305,0.0022072757983807078,77.52694391670826,0,60,1.0,1,0.0006339745107826435
1.31,0.006917199873730717,77.54918926053296,0,60,1.0,1,0.0011573943654813025
1.315,0.01004859748264829,77.5876176648087,0,60,1.0,1,0.0020615921131459745
1.32,0.013037082251128167,77.65220482613245,0,60,1.0,1,0.003581290026645815
1.325,0.01645163937690478,77.7577808422973,0,60,1.0,1,0.006065431583465732
1.33,0.020526639934696615,77.92557045679185,0,60,1.0,1,0.010013422512749311
1.335,0.02539629541761738,78.1847502601857,0,60,1.0,1,0.016111770827898695
1.34,0.031171612185577933,78.57372412531626,0,60,1.0,1,0.02526409706626496
1.345,0.03795853426638131,79.14068530680169,0,60,1.0,1,0.038604360160039666
1.35,0.0458588961882057,79.94292800606925,0,60,1.0,1,0.05748065896633534
1.355,0.054966995891435555,81.0443400664048,0,60,1.0,1,0.08339623685658352
1.36,0.06536491004445595,82.51060356247285,0,60,1.0,1,0.11789655441112593
1.365,0.07711726085088699,84.4018923138275,0,60,1.0,1,0.16239746620770595
1.37,0.09026570629555215,86.76329520888174,0,60,1.0,1,0.2179598872678057
1.375,0.10482339848670268,89.61377301640115,0,60,1.0,1,0.28502995332708597
1.38,0.12076968927580028,92.93507670582724,0,60,1.0,1,0.3631782754312292
1.385,0.13804539501007884,96.66256820647882,0,60,1.0,1,0.45088395779950174
1.39,0.15654895051787066,100.68011755916041,0,60,1.0,1,0.5454145308037743
1.395,0.17613378141900526,104.82105425803283,0,60,1.0,1,0.6428483354831255
1.4,0.19660720058055794,108.8764532668383,0,60,1.0,1,0.7382694886314893
1.405,0.21773108748496234,112.61088723201624,0,60,1.0,1,0.8261385231062645
1.41,0.23922453870058807,115.78436216317712,0,60,1.0,1,0.9008085214865205
1.415,0.2607685857914563,118.1777713622895,0,60,1.0,1,0.9571240320538708
1.42,0.2820129681603682,119.61819191512663,0,60,1.0,1,0.9910162803559207
1.425,0.30258482867153996,120.0,0,60,1.0,1,1.0
1.43,0.3220990771751686,119.29824545748835,0,60,1.0,1,0.9834881284114906
1.435,0.3401700499968971,117.5719546188641,0,60,1.0,1,0.9428695204438611
1.44,0.3564239911198326,114.95677661133668,0,60,1.0,1,0.8813359202667453
1.445,0.3705118017738417,111.64826619736436,0,60,1.0,1,0.8034886164085733
1.45,0.3821214567925213,107.87868369700878,0,60,1.0,1,0.7147925575766773
1.455,0.39098947374066967,103.89114672130673,0,60,1.0,1,0.6209681581483936
1.46,0.3969108472035567,99.91511507625712,0,60,1.0,1,0.5274144723825206
1.465,0.3997469255491936,96.14656082953842,0,60,1.0,1,0.4387426077538451
1.47,0.3994308076379137,92.73498319976926,0,60,1.0,1,0.3584701929357473
1.475,0.3959699661768434,89.77799372275705,0,60,1.0,1,0.2888939699472246
1.48,0.38944595408114946,87.32285486110474,0,60,1.0,1,0.23112599673187634
1.485,0.38001120995358023,85.37336529966561,0,60,1.0,1,0.185255654109779
1.49,0.3678831374098315,83.89998207819981,0,60,1.0,1,0.15058781360470147
1.495,0.35333577933796634,82.8510525309259,0,60,1.0,1,0.125907118374727
1.5,0.33668953221163944,82.16338984647568,0,60,1.0,1,0.10972681991707485
1.505,0.3182994390982644,81.7710004035094,0,60,1.0,1,0.10049412714139776
1.51,0.29854265738230645,81.61139076399436,0,60,1.0,1,0.0967386062116321
1.515,0.2778057157821067,81.62941598109197,0,60,1.0,1,0.0971627289668698
1.52,0.2564721553719815,81.7790040818856,0,60,1.0,1,0.1006824489855436
1.525,0.23491109433464996,82.02328621441396,0,60,1.0,1,0.1064302638685637
1.53,0.21346717185309805,82.33370255304422,0,60,1.0,1,0.1137341777186875
1.535,0.19245222055656455,82.68858789463043,0,60,1.0,1,0.12208442105012778
1.54,0.17213889801761392,83.07161944197627,0,60,1.0,1,0.13109692804650042
1.545,0.15275638501270183,83.47037548139828,0,60,1.0,1,0.1404794230917242
1.55,0.13448814019607322,83.87513591955003,0,60,1.0,1,0.1500031981070596
1.555,0.11747159495449566,84.27796761085855,0,60,1.0,1,0.15948159084373068
1.56,0.10179958433370105,84.67208126420148,0,60,1.0,1,0.16875485327532896
1.565,0.08752324394101413,85.05141767098016,0,60,1.0,1,0.17768041578776841
1.57,0.07465606047174059,85.41041137477472,0,60,1.0,1,0.18612732646528765
1.575,0.0631787448609295,85.74388204533,0,60,1.0,1,0.1939736951842352
1.58,0.05304460019959574,86.0470116192692,0,60,1.0,1,0.20110615574751056
1.585,0.044185078305849994,86.31537463568876,0,60,1.0,1,0.20742057966326483
1.59,0.03651525513023255,86.54499785256412,0,60,1.0,1,0.21282347888386172
1.595,0.0299390014708757,86.73243223546459,0,60,1.0,1,0.21723369965799025
1.6,0.024353677220580638,86.87482563242001,0,60,1.0,1,0.2205841325275297
1.605,0.01965423034339045,86.96998815607745,0,60,1.0,1,0.22282325073123407
1.61,0.015736632374757337,87.01644488029292,0,60,1.0,1,0.22391635012453937
1.615,0.012500627640593535,87.01347229325384,0,60,1.0,1,0.22384640690009036
1.62,0.009851811652115898,86.96111631870204,0,60,1.0,1,0.22261450161651858
1.625,0.007703084175428559,86.86019081224607,0,60,1.0,1,0.22023978381755469
1.63,0.005975544002062424,86.7122563730027,0,60,1.0,1,0.21675897348241652
1.635,0.004598905818663047,86.51958013614413,0,60,1.0,1,0.21222541496809713
1.64,0.0035115256454839104,86.28507794654647,0,60,1.0,1,0.2067077163893286
1.645,0.002660121266303676,86.01224095394758,0,60,1.0,1,0.20028802244582547
1.65,0.0019992692560877024,85.7050492026738,0,60,1.0,1,0.19305998123938367
1.655,0.0014907520044639367,85.36787519896696,0,60,1.0,1,0.18512647526981074
1.66,0.0011028178277539807,85.00538071378118,0,60,1.0,1,0.1765971932654395
1.665,0.0008094059938923333,84.6224102114667,0,60,1.0,1,0.1675861226227459
1.67,0.0005893771793717645,84.22388428441178,0,60,1.0,1,0.15820904198615957
1.675,0.0004257792353490551,83.81469632673434,0,60,1.0,1,0.14858109004080788
1.68,0.0003051686392901525,83.39961540923211,0,60,1.0,1,0.13881448021722617
1.685,0.00021699992642659966,82.98319794133803,0,60,1.0,1,0.1290164221491302
1.69,0.00015308884054097838,82.5697102464525,0,60,1.0,1,0.11928729991652945
1.695,0.00010714989329311098,82.16306366028918,0,60,1.0,1,0.10971914494798077
1.7,7.440535854020571e-05,81.76676321464303,0,60,1.0,1,0.10039442857983612
1.705,5.1260276743925106e-05,81.3838704178972,0,60,1.0,1,0.09138518630346351
1.71,3.503659887882241e-05,81.01698011357695,0,60,1.0,1,0.08275247326063409
1.715,2.375894748103639e-05,80.66821091136433,0,60,1.0,1,0.07454613909092533
1.72,1.5984413869232557e-05,80.33920825933811,0,60,1.0,1,0.06680490021972017
1.725,1.0669166579899869e-05,80.03115887537963,0,60,1.0,1,0.059556679420697214
1.73,7.06526633560511e-06,79.74481498835964,0,60,1.0,1,0.052819176196697314
1.735,4.641847214699205e-06,79.48052665965687,0,60,1.0,1,0.0466006272860441
1.74,3.025641074479182e-06,79.23828036186586,0,60,1.0,1,0.0409007143968438
1.745,1.9566278676921314e-06,79.01774197921334,0,60,1.0,1,0.03571157598149037
1.75,1.2553456560008793e-06,78.8183024547782,0,60,1.0,1,0.03101888128889895
1.755,7.990660428214668e-07,78.6391244320625,0,60,1.0,1,0.02680292781323534
1.76,5.046221251618276e-07,78.47918841005006,0,60,1.0,1,0.023039727295295454
1.765,3.1616527078858815e-07,78.3373371380437,0,60,1.0,1,0.019702050306910437
1.77,1.9652884407760343e-07,78.21231720572483,0,60,1.0,1,0.016760404840584227
1.775,1.2120002189836396e-07,78.10281702217611,0,60,1.0,1,0.014183929933555566
1.78,7.415549848886236e-08,78.00750061349781,0,60,1.0,1,0.011941190905830849
1.785,4.501406988770349e-08,77.92503689230902,0,60,1.0,1,0.010000868054329965
1.79,0.0,77.85412425603842,0,60,1.0,1,0.008332335436198064
1.795,0.0,77.79351054877074,0,60,1.0,1,0.006906130559311537
1.8,0.0,77.74200856992353,0,60,1.0,1,0.005694319292318288
1.805,0.0,77.69850743053568,0,60,1.0,1,0.004670763071427874
1.81,0.0,77.66198014454383,0,60,1.0,1,0.003811297518678416
1.815,0.0,77.63148789963498,0,60,1.0,1,0.0030938329325876754
1.82,0.0,77.60618148274689,0,60,1.0,1,0.0024983878293386064
1.825,0.0,77.58530034248456,0,60,1.0,1,0.0020070668819896047
1.83,0.0,77.56816975854922,0,60,1.0,1,0.0016039943188051143
1.835,0.0,77.55419656084052,0,60,1.0,1,0.0012752131962476116
1.84,0.0,77.542863802236,0,60,1.0,1,0.0010085600526117426
1.845,0.0,77.53372474296843,0,60,1.0,1,0.0007935233639630844
1.85,0.0,77.52639645440267,0,60,1.0,1,0.0006210930447687535
1.855,0.0,77.52055329875957,0,60,1.0,1,0.0004836070296368475
1.86,0.0,77.51592049130771,0,60,1.0,1,0.00037459979547553997
1.865,0.0,77.5122679045549,0,60,1.0,1,0.0002886565777624342
1.87,0.0,77.50940423131003,0,60,1.0,1,0.00022127603082420887
1.875,0.0,77.50717158596277,0,60,1.0,1,0.0001687431991239036
1.88,0.0,77.50544059134097,0,60,1.0,1,0.00012801391390519925
1.885,0.0,77.50410597211048,0,60,1.0,1,9.661110848188561e-05
1.89,0.0,77.50308265466796,0,60,1.0,1,7.253305101090411e-05
1.895,0.0,77.50230235743923,0,60,1.0,1,5.4173116217270946e-05
1.9,0.0,77.50171064389794,0,60,1.0,1,4.025044465733759e-05
1.905,0.0,77.50126440285658,0,60,1.0,1,2.9750655448879117e-05
1.91,0.0,77.50092971602302,0,60,1.0,1,2.1875671129959407e-05
1.915,0.0,77.50068007084202,0,60,1.0,1,1.6001666871127728e-05
1.92,0.0,77.5004948766761,0,60,1.0,1,1.1644157084714715e-05
1.925,0.0,77.50035824390325,0,60,1.0,1,8.429268311762345e-06
1.93,0.0,77.50025798806918,0,60,1.0,1,6.070307510111995e-06
1.935,0.0,77.50018482445232,0,60,1.0,1,4.348810642795798e-06
1.94,0.0,77.50013172197245,0,60,1.0,1,3.0993405282649347e-06
1.945,0.0,77.50009338906223,0,60,1.0,1,2.1973896995110835e-06
1.95,0.0,77.50006586774495,0,60,1.0,1,1.5498292929591758e-06
1.955,0.0,77.50004621559701,0,60,1.0,1,1.0874258119950836e-06
1.96,0.0,77.5000322584378,0,60,1.0,1,7.590220658424669e-07
1.965,0.0,77.5000223994362,0,60,1.0,1,5.270455577534877e-07
1.97,0.0,77.50001547283287,0,60,1.0,1,3.6406665578718223e-07
1.975,0.001684486749771458,77.50001063265135,0,60,1.0,1,2.5018003183878834e-07
1.98,0.003097557930867117,77.50000726862568,0,60,1.0,1,1.7102648658852988e-07
1.985,0.005475106668887023,77.50000494312994,0,60,1.0,1,1.1630893970290987e-07
1.99,0.00930222931468658,77.50000334418844,0,60,1.0,1,7.86867868849667e-08
1.995,0.01519157517868857,77.50000225070433,0,60,1.0,1,5.2957748868506956e-08
2.0,0.023847336626128316,77.50000150690246,0,60,1.0,1,3.545652856808053e-08
2.005,0.0359830743700859,77.50000100366974,0,60,1.0,1,2.3615758530414656e-08
2.01,0.05218887796857759,77.50000066502123,0,60,1.0,1,1.564755841761379e-08
2.015,0.0727577001223134,77.50000043834815,0,60,1.0,1,1.0314074175125022e-08
2.02,0.0974992498694751,77.50000028743645,0,60,1.0,1,6.763210582421915e-09
2.025,0.12558706050443358,77.50000018750096,0,60,1.0,1,4.411787264924736e-09
2.03,0.15549263588878245,77.50000012167578,0,60,1.0,1,2.8629595844369546e-09
2.035,0.1850529723539114,77.50000007854956,0,60,1.0,1,1.8482249769851263e-09
2.04,0.21169159439317053,77.5000000504455,0,60,1.0,1,1.1869527792013661e-09
2.045,0.23277292922115492,77.5000000322285,0,60,1.0,1,7.583176230742965e-10
2.05,0.24602692519491282,77.50000002048314,0,60,1.0,1,4.819562892568202e-10
2.055,0.24995056064839283,77.50000001295066,0,60,1.0,1,3.047215186062899e-10
2.06,0.24408826520424054,77.50000000814568,0,60,1.0,1,1.9166296784961186e-10
2.065,0.22911894216865275,77.50000000509684,0,60,1.0,1,1.1992557012811578e-10
2.07,0.20672661788705934,77.50000000317259,0,60,1.0,1,7.464911825937794e-11
2.075,0.17928878030241233,77.50000000196455,0,60,1.0,1,4.622473384455696e-11
2.08,0.14946211903866036,77.5000000012102,0,60,1.0,1,2.847520911874359e-11
2.085,0.1197651512573837,77.50000000074162,0,60,1.0,1,1.7449926471111694e-11
2.09,0.09224675744988023,77.50000000045212,0,60,1.0,1,1.063807865327416e-11
2.095,0.06829565320281596,77.5000000002742,0,60,1.0,1,6.45172804070171e-12
2.1,0.04860224607515734,77.50000000016543,0,60,1.0,1,3.892436699756859e-12
2.105,0.03324612389699793,77.50000000009929,0,60,1.0,1,2.3362645151792095e-12
2.11,0.021859876340472782,77.50000000005929,0,60,1.0,1,1.3950043734546533e-12
2.115,0.01381595518554205,77.50000000003521,0,60,1.0,1,8.285764231593074e-13
2.12,0.008394095110402422,77.5000000000208,0,60,1.0,1,4.895221483071937e-13
2.125,0.0049052535271608,77.50000000001224,0,60,1.0,1,2.8789519787738646e-13
2.13,0.0027671663551903634,77.50000000000715,0,60,1.0,1,1.6818964521756725e-13
2.135,0.0015425553464444616,77.50000000000416,0,60,1.0,1,9.797130427186323e-14
2.14,0.0009638206637011801,77.5000000000024,0,60,1.0,1,5.6509045808685616e-14
2.145,0.0009804935156568228,77.50000000000138,0,60,1.0,1,3.243418605587281e-14
2.15,0.0018793744894085216,77.5000000000008,0,60,1.0,1,1.8724890918854405e-14
2.155,0.004535525206900863,77.50000000000045,0,60,1.0,1,1.0699937667916803e-14
2.16,0.010832767979632273,77.50000000000026,0,60,1.0,1,6.0187149382032015e-15
2.165,0.024208003392322392,77.50000000000014,0,60,1.0,1,3.343730521224001e-15
2.17,0.0500971897335304,77.50000000000009,0,60,1.0,1,2.0062383127344005e-15
2.175,0.09582894921774403,77.50000000000004,0,60,1.0,1,1.0031191563672002e-15
2.18,0.16937896721820658,77.50000000000003,0,60,1.0,1,6.687461042448002e-16
2.185,0.27661303008991756,77.50000000000001,0,60,1.0,1,3.343730521224001e-16
2.19,0.4173782800009149,77.5,0,60,1.0,1,0.0
2.195,0.5818720934538056,77.5,0,60,1.0,1,0.0
2.2,0.7494718801585675,77.5,0,60,1.0,1,0.0
2.205,0.891813020752378,77.5,0,60,1.0,1,0.0
2.21,0.9800361632936612,77.5,0,60,1.0,1,0.0
2.215,0.993574479225126,77.50000249379623,1,60,1.0,1,5.8677558372972485e-08
2.22,0.9263438449375362,77.50000382794776,0,60,1.0,1,9.006935917622125e-08
2.225,0.7873015962290536,77.50000600036053,0,60,1.0,1,1.4118495361050436e-07
2.23,0.5959516244629897,77.50000970943701,0,60,1.0,1,2.2845734138975198e-07
2.235,0.376910120078773,77.5000163868594,0,60,1.0,1,3.8557316235496463e-07
2.24,0.15739335672107918,77.50002902423199,0,60,1.0,1,6.829231056947131e-07
2.245,-0.033361226269301235,77.50005389476512,0,60,1.0,1,1.268112120388811e-06
2.25,-0.1680180840843834,77.50010404947875,0,60,1.0,1,2.4482230294191086e-06
2.255,-0.23069703190837854,77.50020622040319,0,60,1.0,1,4.852244780843595e-06
2.26,-0.22587267821131068,77.50041404783398,0,60,1.0,1,9.742301976115521e-06
2.265,-0.17718181630665902,77.50083263801669,0,60,1.0,1,1.959148274562829e-05
2.27,-0.11494332516451301,77.50166268015035,0,60,1.0,1,3.912188589050161e-05
2.275,-0.061810214049552864,77.5032770278292,0,60,1.0,1,7.710653715762687e-05
2.28,-0.026546104631500547,77.50634895429774,0,60,1.0,1,0.0001493871599467077
2.285,-0.00719600351942686,77.5120590120072,0,60,1.0,1,0.0002837414589929294
2.29,0.0022072757983807078,77.52241562190353,0,60,1.0,1,0.0005274263977302032
2.295,0.006917199873730717,77.54073109806174,0,60,1.0,1,0.0009583787779233182
2.3,0.01004859748264829,77.57229617891642,0,60,1.0,1,0.0017010865627392323
2.305,0.013037082251128167,77.62528706971409,0,60,1.0,1,0.0029479310520962505
2.31,0.01645163937690478,77.7119131132812,0,60,1.0,1,0.004986190900734086
2.315,0.020526639934696615,77.84976424958334,0,60,1.0,1,0.008229747049019874
2.32,0.02539629541761738,78.06324165455797,0,60,1.0,1,0.013252744813128709
2.325,0.031171612185577933,78.38485440731901,0,60,1.0,1,0.020820103701623793
2.33,0.03795853426638131,78.85605110071748,0,60,1.0,1,0.031907084722764226
2.335,0.0458588961882057,79.52715125776614,0,60,1.0,1,0.047697676653320836
2.34,0.054966995891435555,80.45588226229052,0,60,1.0,1,0.06955017087742389
2.345,0.06536491004445595,81.70405544530206,0,60,1.0,1,0.09891895165416613
2.35,0.07711726085088699,83.33206946519013,0,60,1.0,1,0.1372251638868266
2.355,0.09026570629555215,85.39123254573106,0,60,1.0,1,0.1856760598995543
2.36,0.10482339848670268,87.9143369512103,0,60,1.0,1,0.24504322238141887
2.365,0.12076968927580028,90.90544393360824,0,60,1.0,1,0.3154222102025468
2.37,0.13804539501007884,94.33034336266256,0,60,1.0,1,0.396008079121472
2.375,0.15654895051787066,98.10950421064753,0,60,1.0,1,0.4849295108387654
2.38,0.17613378141900526,102.11539119616134,0,60,1.0,1,0.5791856752037963
2.385,0.19660720058055794,106.17568759500095,0,60,1.0,1,0.6747220610588459
2.39,0.21773108748496234,110.08321153763839,0,60,1.0,1,0.7666638008856091
2.395,0.23922453870058807,113.61222628224048,0,60,1.0,1,0.8496994419350702
2.4,0.2607685857914563,116.53961398056285,0,60,1.0,1,0.9185791524838317
2.405,0.2820129681603682,118.66827111065578,0,60,1.0,1,0.9686652026036654
2.41,0.30258482867153996,119.84936740314373,0,60,1.0,2,0.9964557036033819
2.415,0.3220990771751686,120.0,0,60,1.0,2,1.0
2.42,0.3401700499968971,119.11335164043977,0,60,1.0,2,0.9791376856574064
2.425,0.3564239911198326,117.2596422087817,0,60,1.0,2,0.9355209931478047
2.43,0.3705118017738417,114.57771066593102,0,60,1.0,2,0.8724167215513182
2.435,0.3821214567925213,111.25864733544083,0,60,1.0,2,0.7943211137750783
2.44,0.39098947374066967,107.52417358062645,0,60,1.0,2,0.7064511430735636
2.445,0.3969108472035567,103.60317581973628,0,60,1.0,2,0.614192372229089
2.45,0.3997469255491936,99.70982687224779,0,60,1.0,2,0.5225841616999479
2.455,0.3994308076379137,96.02611916232044,0,60,1.0,2,0.43590868617224565
2.46,0.3959699661768434,92.69058107724302,0,60,1.0,2,0.3574254371116006
2.465,0.38944595408114946,89.79371843965717,0,60,1.0,2,0.28926396328605103
2.47,0.38001120995358023,87.37958938048318,0,60,1.0,2,0.2324609265996043
2.475,0.3678831374098315,85.45209135214775,0,60,1.0,2,0.1871080318152411
2.48,0.35333577933796634,83.98411918621723,0,60,1.0,2,0.15256751026393478
2.485,0.33668953221163944,82.92773974008752,0,60,1.0,2,0.12771152329617688
2.49,0.3182994390982644,82.22383282330381,0,60,1.0,2,0.11114900760714845
2.495,0.29854265738230645,81.81013488536829,0,60,1.0,2,0.10141493847925377
2.5,0.2778057157821067,81.62715266498432,0,60,1.0,2,0.09710947447021935
2.505,0.2564721553719815,81.62187846806819,0,60,1.0,2,0.09698537571925152
2.51,0.23491109433464996,81.74957199839405,0,60,1.0,2,0.09998992937397755
2.515,0.21346717185309805,81.9740569196691,0,60,1.0,2,0.10527192752162577
2.52,0.19245222055656455,82.2670305887381,0,60,1.0,2,0.11216542561736693
2.525,0.17213889801761392,82.6068399772209,0,60,1.0,2,0.12016094064049178
2.53,0.15275638501270183,82.97707830332679,0,60,1.0,2,0.12887243066651274
2.535,0.13448814019607322,83.36524231629802,0,60,1.0,2,0.13800570155995348
2.54,0.11747159495449566,83.76158527846451,0,60,1.0,2,0.14733141831681196
2.545,0.10179958433370105,84.15821910240557,0,60,1.0,2,0.156663978880131
2.55,0.08752324394101413,84.54846447631488,0,60,1.0,2,0.16584622297211474
2.555,0.07465606047174059,84.92641729835339,0,60,1.0,2,0.17473923054949142
2.56,0.0631787448609295,85.2866873918496,0,60,1.0,2,0.18321617392587286
2.565,0.05304460019959574,85.6242648120442,0,60,1.0,2,0.19115917204809887
2.57,0.044185078305849994,85.93447459191242,0,60,1.0,2,0.19845822569205693
2.575,0.03651525513023255,86.21298860076058,0,60,1.0,2,0.20501149648848427
2.58,0.0299390014708757,86.45587095455626,0,60,1.0,2,0.21072637540132377
2.585,0.024353677220580638,86.65963999461131,0,60,1.0,2,0.2155209410496779
2.59,0.01965423034339045,86.82133492105665,0,60,1.0,2,0.21932552755427404
2.595,0.015736632374757337,86.93857885017128,0,60,1.0,2,0.2220842082393243
2.6,0.012500627640593535,87.00963266008729,0,60,1.0,2,0.2237560625902892
2.605,0.009851811652115898,87.03343582049601,0,60,1.0,2,0.2243161369528473
2.61,0.007703084175428559,87.00963173891398,0,60,1.0,2,0.2237560409156231
2.615,0.005975544002062424,86.938576193165,0,60,1.0,2,0.22208414572152954
2.62,0.004598905818663047,86.82132827999462,0,60,1.0,2,0.219325371293991
2.625,0.0035115256454839104,86.65962406044066,0,60,1.0,2,0.2155205661280156
2.63,0.002660121266303676,86.45583375264079,0,60,1.0,2,0.21072550006213614
2.635,0.0019992692560877024,86.21290391749133,0,60,1.0,2,0.2050095039409725
2.64,0.0014907520044639367,85.93428659481444,0,60,1.0,2,0.19845380223092796
2.645,0.0011028178277539807,85.62385776540609,0,60,1.0,2,0.1911495944801432
2.65,0.0008094059938923333,85.28582782555713,0,60,1.0,2,0.18319594883663848
2.655,0.0005893771793717645,84.92464695644118,0,60,1.0,2,0.17469757544567482
2.66,0.0004257792353490551,84.54490834692771,0,60,1.0,2,0.1657625493394756
2.665,0.0003051686392901525,84.1512521860989,0,60,1.0,2,0.1565000514376212
2.67,0.00021699992642659966,83.74827318768754,0,60,1.0,2,0.14701819265147165
2.675,0.00015308884054097838,83.34043415451329,0,60,1.0,2,0.13742198010619505
2.68,0.00010714989329311098,82.93198775273756,0,60,1.0,2,0.1278114765350013
2.685,7.440535854020571e-05,82.52690826257488,0,60,1.0,2,0.11828019441352654
2.69,5.1260276743925106e-05,82.12883462523583,0,60,1.0,2,0.10891375588790177
2.695,3.503659887882241e-05,81.74102563739208,0,60,1.0,2,0.09978883852687258
2.7,2.375894748103639e-05,81.36632767600855,0,60,1.0,2,0.09097241590608358
2.705,1.5984413869232557e-05,81.00715488812935,0,60,1.0,2,0.08252129148539646
2.71,1.0669166579899869e-05,80.66548136982472,0,60,1.0,2,0.07448191458411102
2.715,7.06526633560511e-06,80.34284450049499,0,60,1.0,2,0.06689045883517625
2.72,4.641847214699205e-06,80.04035830388436,0,60,1.0,2,0.059773136561984956
2.725,3.025641074479182e-06,79.75873548233507,0,60,1.0,2,0.0531467172314134
2.73,1.9566278676921314e-06,79.4983166189272,0,60,1.0,2,0.04701921456299307
2.735,1.2553456560008793e-06,79.25910496239372,0,60,1.0,2,0.04139070499749932
2.74,7.990660428214668e-07,79.04080519796145,0,60,1.0,2,0.03625423995203405
2.745,5.046221251618276e-07,78.84286465667756,0,60,1.0,2,0.03159681545123677
2.75,3.1616527078858815e-07,78.66451551736972,0,60,1.0,2,0.02740036511458169
2.755,1.9652884407760343e-07,78.50481669878073,0,60,1.0,2,0.023642745853664215
2.76,1.2120002189836396e-07,78.36269431353409,0,60,1.0,2,0.020298689730213936
2.765,7.415549848886236e-08,78.23697974928406,0,60,1.0,2,0.01734069998315436
2.77,4.501406988770349e-08,78.12644464506172,0,60,1.0,2,0.014739874001452335
2.775,0.0,78.02983223281902,0,60,1.0,2,0.012466640772212191
2.78,0.0,77.94588470720849,0,60,1.0,2,0.010491404875493934
2.785,0.0,77.87336646401664,0,60,1.0,2,0.008785093270979788
2.79,0.0,77.81108320437647,0,60,1.0,2,0.00731960480885819
2.795,0.0,77.75789703460497,0,60,1.0,2,0.006068165520116843
2.8,0.0,77.7127377985272,0,60,1.0,2,0.0050055952594635425
2.805,0.0,77.67461096019198,0,60,1.0,2,0.0041084931809878605
2.81,0.0,77.64260241090227,0,60,1.0,2,0.003355350844759307
2.815,0.0,77.61588060740796,0,60,1.0,2,0.0027266025272461
2.82,0.0,77.5936964605813,0,60,1.0,2,0.0022046226019129147
2.825,0.0,77.57538138902093,0,60,1.0,2,0.0017736797416690105
2.83,0.0,77.56034393314094,0,60,1.0,2,0.001419857250375103
2.835,0.0,77.5480652957481,0,60,1.0,2,0.0011309481352494754
2.84,0.0,77.53809413809743,0,60,1.0,2,0.0008963326611161151
2.845,0.0,77.53004091886824,0,60,1.0,2,0.0007068451498408944
2.85,0.0,77.52357201997987,0,60,1.0,2,0.0005546357642321495
2.855,0.0,77.51840385980424,0,60,1.0,2,0.0004330319953938295
2.86,0.0,77.51429715282914,0,60,1.0,2,0.0003364035959798591
2.865,0.0,77.51105143644553,0,60,1.0,2,0.00026003379871828174
2.87,0.0,77.5084999511344,0,60,1.0,2,0.0001999988502210967
2.875,0.0,77.50650493041393,0,60,1.0,2,0.0001530571862100019
2.88,0.0,77.50495333166883,0,60,1.0,2,0.00011654898044305221
2.885,0.0,77.50375301836885,0,60,1.0,2,8.830631456128364e-05
2.89,0.0,77.50282938794548,0,60,1.0,2,6.65738340113448e-05
2.895,0.0,77.5021224273595,0,60,1.0,2,4.9939467282242466e-05
2.9,0.0,77.50158416968905,0,60,1.0,2,3.7274580918900775e-05
2.905,0.0,77.50117651939523,0,60,1.0,2,2.7682809299529468e-05
2.91,0.0,77.5008694107589,0,60,1.0,2,2.0456723738708902e-05
2.915,0.0,77.50063926283588,0,60,1.0,2,1.5041478491184535e-05
2.92,0.0,77.50046769468173,0,60,1.0,2,1.1004580746617542e-05
2.925,0.0,77.50034046614508,0,60,1.0,2,8.010968119432458e-06
2.93,0.0,77.50024661186245,0,60,1.0,2,5.80263205767337e-06
2.935,0.0,77.50017773891317,0,60,1.0,2,4.182092074496027e-06
2.94,0.0,77.5001274616702,0,60,1.0,2,2.9990981224326627e-06
2.945,0.0,77.50009095052647,0,60,1.0,2,2.1400123875323246e-06
2.95,0.0,77.500064574248,0,60,1.0,2,1.5193940705959155e-06
2.955,0.0,77.50004561860754,0,60,1.0,2,1.0733790010336259e-06
2.96,0.0,77.50003206662257,0,60,1.0,2,7.545087662626483e-07
2.965,0.0,77.5000224281237,0,60,1.0,2,5.277205576369263e-07
2.97,0.0,77.50001560850087,0,60,1.0,2,3.6725884409433465e-07
2.975,0.0,77.50001080831444,0,60,1.0,2,2.5431328100132624e-07
2.98,0.001684486749771458,77.50000744703297,0,60,1.0,2,1.7522430519367096e-07
2.985,0.003097557930867117,77.50000510548624,0,60,1.0,2,1.2012908795815533e-07
2.99,0.005475106668887023,77.5000034827273,0,60,1.0,2,8.194652456736282e-08
2.995,0.00930222931468658,77.50000236390684,0,60,1.0,2,5.5621337517496775e-08
3.0,0.01519157517868857,77.50000159650313,0,60,1.0,2,3.7564779417794744e-08
3.005,0.023847336626128316,77.50000107284681,0,60,1.0,2,2.5243454448333496e-08
3.01,0.0359830743700859,77.50000071735509,0,60,1.0,2,1.6878943356727284e-08
3.015,0.05218887796857759,77.50000047726456,0,60,1.0,2,1.1229754443989162e-08
3.02,0.0727577001223134,77.5000003159459,0,60,1.0,2,7.4340211058905185e-09
3.025,0.0974992498694751,77.50000020811088,0,60,1.0,2,4.89672649617954e-09
3.03,0.12558706050443358,77.50000013639716,0,60,1.0,2,3.209344988456852e-09
3.035,0.15549263588878245,77.50000008894969,0,60,1.0,2,2.092933888942592e-09
3.04,0.1850529723539114,77.50000005771811,0,60,1.0,2,1.358073204220786e-09
3.045,0.21169159439317053,77.50000003726561,0,60,1.0,2,8.768378232643419e-10
3.05,0.23277292922115492,77.50000002394049,0,60,1.0,2,5.633055747346267e-10
3.055,0.24602692519491282,77.50000001530334,0,60,1.0,2,3.6007864925041384e-10
3.06,0.24995056064839283,77.50000000973347,0,60,1.0,2,2.2902280333629974e-10
3.065,0.24408826520424054,77.50000000615996,0,60,1.0,2,1.4494035253044465e-10
3.07,0.22911894216865275,77.50000000387898,0,60,1.0,2,9.127013393427821e-11
3.075,0.20672661788705934,77.50000000243044,0,60,1.0,2,5.718681998533772e-11
3.08,0.17928878030241233,77.50000000151523,0,60,1.0,2,3.565252668255091e-11
3.085,0.14946211903866036,77.50000000093995,0,60,1.0,2,2.2116436786531908e-11
3.09,0.1197651512573837,77.50000000058017,0,60,1.0,2,1.3651114225949106e-11
3.095,0.09224675744988023,77.50000000035632,0,60,1.0,2,8.38406990891706e-12
3.1,0.06829565320281596,77.50000000021774,0,60,1.0,2,5.123263904619414e-12
3.105,0.04860224607515734,77.5000000001324,0,60,1.0,2,3.1153537266244016e-12
3.11,0.03324612389699793,77.5000000000801,0,60,1.0,2,1.884860894813969e-12
3.115,0.021859876340472782,77.50000000004822,0,60,1.0,2,1.1345277658513034e-12
3.12,0.01381595518554205,77.50000000002889,0,60,1.0,2,6.797804149648394e-13
3.125,0.008394095110402422,77.50000000001721,0,60,1.0,2,4.049257661202265e-13
3.13,0.0049052535271608,77.5000000000102,0,60,1.0,2,2.4007985142388327e-13
3.135,0.0027671663551903634,77.50000000000603,0,60,1.0,2,1.4177417409989764e-13
3.14,0.0015425553464444616,77.50000000000354,0,60,1.0,2,8.325888997847762e-14
3.145,0.0009638206637011801,77.50000000000206,0,60,1.0,2,4.848409255774801e-14
3.15,0.0009804935156568228,77.5000000000012,0,60,1.0,2,2.808733637828161e-14
3.155,0.0018793744894085216,77.5000000000007,0,60,1.0,2,1.6384279553997603e-14
3.16,0.004535525206900863,77.5000000000004,0,60,1.0,2,9.362445459427202e-15
3.165,0.010832767979632273,77.50000000000023,0,60,1.0,2,5.349968833958401e-15
3.17,0.024208003392322392,77.50000000000013,0,60,1.0,2,3.0093574691016007e-15
3.175,0.0500971897335304,77.50000000000007,0,60,1.0,2,1.6718652606120004e-15
3.18,0.09582894921774403,77.50000000000004,0,60,1.0,2,1.0031191563672002e-15
3.185,0.16937896721820658,77.50000000000003,0,60,1.0,2,6.687461042448002e-16
3.19,0.27661303008991756,77.50000000000001,0,60,1.0,2,3.343730521224001e-16
3.195,0.4173782800009149,77.5,0,60,1.0,2,0.0
3.2,0.5818720934538056,77.5,0,60,1.0,2,0.0
3.205,0.7494718801585675,77.5,0,60,1.0,2,0.0
3.21,0.891813020752378,77.5,0,60,1.0,2,0.0
3.215,0.9800361632936612,77.5,0,60,1.0,2,0.0
3.22,0.993574479225126,77.50000249000622,1,60,1.0,2,5.858838174871754e-08
3.225,0.9263438449375362,77.50000389248275,0,60,1.0,2,9.15878294616799e-08
3.23,0.7873015962290536,77.50000622788357,0,60,1.0,2,1.4653843703961362e-07
3.235,0.5959516244629897,77.50001032445374,0,60,1.0,2,2.429283232927179e-07
3.24,0.376910120078773,77.50001793601348,0,60,1.0,2,4.220238465410041e-07
3.245,0.15739335672107918,77.50003284604738,0,60,1.0,2,7.72848173536498e-07
3.25,-0.033361226269301235,77.50006322959007,0,60,1.0,2,1.4877550604390254e-06
3.255,-0.1680180840843834,77.50012656627284,0,60,1.0,2,2.978029949177011e-06
3.26,-0.23069703190837854,77.50025954907927,0,60,1.0,2,6.10703715939481e-06
3.265,-0.22587267821131068,77.50053742037096,0,60,1.0,2,1.26451851990757e-05
3.27,-0.17718181630665902,77.50111041975664,0,60,1.0,2,2.6127523685705883e-05
3.275,-0.11494332516451301,77.50227004615842,0,60,1.0,2,5.341285078623728e-05
3.28,-0.061810214049552864,77.50456505519409,0,60,1.0,2,0.00010741306339040795
3.285,-0.026546104631500547,77.50899663500942,0,60,1.0,2,0.00021168552963351484
3.29,-0.00719600351942686,77.51733334782944,0,60,1.0,2,0.00040784347833965404
3.295,0.0022072757983807078,77.53259711175801,0,60,1.0,2,0.0007669908648943099
3.3,0.006917199873730717,77.5597775885197,0,60,1.0,2,0.0014065314945810314
3.305,0.01004859748264829,77.60682720154375,0,60,1.0,2,0.002513581212794152
3.31,0.013037082251128167,77.68596373563713,0,60,1.0,2,0.0043756173091089616
3.315,0.01645163937690478,77.81525235617987,0,60,1.0,2,0.007417702498349854
3.32,0.020526639934696615,78.02034654369058,0,60,1.0,2,0.012243448086837147
3.325,0.02539629541761738,78.33613763083831,0,60,1.0,2,0.0196738266079602
3.33,0.031171612185577933,78.80790801230718,0,60,1.0,2,0.030774306171933656
3.335,0.03795853426638131,79.49143402196233,0,60,1.0,2,0.046857271104996094
3.34,0.0458588961882057,80.45138998325675,0,60,1.0,2,0.06944447019427638
3.345,0.054966995891435555,81.75742693681694,0,60,1.0,2,0.10017475145451626
3.35,0.06536491004445595,83.47749814853324,0,60,1.0,2,0.1406470152596057
3.355,0.07711726085088699,85.66841448846296,0,60,1.0,2,0.1921979879638343
3.36,0.09026570629555215,88.36422212653916,0,60,1.0,2,0.2556287559185685
3.365,0.10482339848670268,91.56371947194285,0,60,1.0,2,0.3309110463986552
3.37,0.12076968927580028,95.21911490992028,0,60,1.0,2,0.41692035082165363
3.375,0.13804539501007884,99.22826790633349,0,60,1.0,2,0.5112533625019644
3.38,0.15654895051787066,103.43295067098154,0,60,1.0,2,0.6101870746113304
3.385,0.17613378141900526,107.62498105812116,0,60,1.0,2,0.708823083720498
3.39,0.19660720058055794,111.56090743751355,0,60,1.0,2,0.8014331161767894
3.395,0.21773108748496234,114.9843394518642,0,60,1.0,2,0.8819844576909224
3.4,0.23922453870058807,117.65333760501063,0,60,1.0,2,0.9447844142355444
3.405,0.2607685857914563,119.36890970084326,0,60,1.0,2,0.9851508164904297
3.41,0.2820129681603682,120.0,0,60,1.0,2,1.0
3.415,0.30258482867153996,119.5006402542718,0,60,1.0,2,0.9882503589240423
3.42,0.3220990771751686,117.91617040818592,0,60,1.0,2,0.9509687154867276
3.425,0.3401700499968971,115.37738557396011,0,60,1.0,2,0.8912326017402379
3.43,0.3564239911198326,112.08368211089038,0,60,1.0,2,0.8137336967268325
3.435,0.3705118017738417,108.27824070530876,0,60,1.0,2,0.7241938989484414
3.44,0.3821214567925213,104.21955090304075,0,60,1.0,2,0.6286953153656648
3.445,0.39098947374066967,100.15389681309367,0,60,1.0,2,0.5330328661904392
3.45,0.3969108472035567,96.29278932965357,0,60,1.0,2,0.44218327834478993
3.455,0.3997469255491936,92.79798252281299,0,60,1.0,2,0.3599525299485409
3.46,0.3994308076379137,89.77503474095302,0,60,1.0,2,0.2888243468459534
3.465,0.3959699661768434,87.27477976068862,0,60,1.0,2,0.2299948178985557
3.47,0.38944595408114946,85.30088686693217,0,60,1.0,2,0.1835502792219335
3.475,0.38001120995358023,83.82108308582723,0,60,1.0,2,0.14873136672534648
3.48,0.3678831374098315,82.77958866801355,0,60,1.0,2,0.12422561571796577
3.485,0.35333577933796634,82.1087468967927,0,60,1.0,2,0.10844110345394577
3.49,0.33668953221163944,81.7385096637752,0,60,1.0,2,0.09972963914765186
3.495,0.3182994390982644,81.60316637149273,0,60,1.0,2,0.09654509109394667
3.5,0.29854265738230645,81.64531852817903,0,60,1.0,2,0.097536906545389
3.505,0.2778057157821067,81.81752026347644,0,60,1.0,2,0.10158871208179857
3.51,0.2564721553719815,82.08220991158747,0,60,1.0,2,0.1078167038020581
3.515,0.23491109433464996,82.41058435809306,0,60,1.0,2,0.11554316136689555
3.52,0.21346717185309805,82.78097574839373,0,60,1.0,2,0.12425825290338186
3.525,0.19245222055656455,83.17714153356428,0,60,1.0,2,0.1335798007897478
3.53,0.17213889801761392,83.58672328897565,0,60,1.0,2,0.14321701856413288
3.535,0.15275638501270183,83.99999826166315,0,60,1.0,2,0.15294113556854474
3.54,0.13448814019607322,84.40895337124233,0,60,1.0,2,0.16256360873511372
3.545,0.11747159495449566,84.80665451989769,0,60,1.0,2,0.17192128282112215
3.55,0.10179958433370105,85.1868573489393,0,60,1.0,2,0.1808672317397482
3.555,0.08752324394101413,85.54379935372675,0,60,1.0,2,0.18926586714651186
3.56,0.07465606047174059,85.87211861230374,0,60,1.0,2,0.19699102617185263
3.565,0.0631787448609295,86.16685460853626,0,60,1.0,2,0.20392599078908835
3.57,0.05304460019959574,86.42349754884363,0,60,1.0,2,0.20996464820808536
3.575,0.044185078305849994,86.63806206698814,0,60,1.0,2,0.2150132251056033
3.58,0.03651525513023255,86.80716857960022,0,60,1.0,2,0.21899220187294624
3.585,0.0299390014708757,86.92812088388769,0,60,1.0,2,0.22183813844441616
3.59,0.024353677220580638,86.99897230219709,0,60,1.0,2,0.2235052306399315
3.595,0.01965423034339045,87.0185752592566,0,60,1.0,2,0.22396647668839043
3.6,0.015736632374757337,86.98661103599359,0,60,1.0,2,0.22321437731749624
3.605,0.012500627640593535,86.90359787095856,0,60,1.0,2,0.2212611263754956
3.61,0.009851811652115898,86.77087675820192,0,60,1.0,2,0.21813827666357463
3.615,0.007703084175428559,86.59057531515485,0,60,1.0,3,0.21389588976834945
3.62,0.005975544002062424,86.36555100430262,0,60,1.0,3,0.20860120010123803
3.625,0.004598905818663047,86.0993157926329,0,60,1.0,3,0.2023368421795975
3.63,0.0035115256454839104,85.79594501028039,0,60,1.0,3,0.1951987061242445
3.635,0.002660121266303676,85.45997370609123,0,60,1.0,3,0.18729349896685255
3.64,0.0019992692560877024,85.0962841761263,0,60,1.0,3,0.17873609826179537
3.645,0.0014907520044639367,84.70998855024048,0,60,1.0,3,0.1696467894174231
3.65,0.0011028178277539807,84.3063103584825,0,60,1.0,3,0.1601484790231178
3.655,0.0008094059938923333,83.89046886840002,0,60,1.0,3,0.15036397337411814
3.66,0.0005893771793717645,83.4675696999641,0,60,1.0,3,0.1404134047050377
3.665,0.0004257792353490551,83.04250480764743,0,60,1.0,3,0.13041187782699842
3.67,0.0003051686392901525,82.61986439594673,0,60,1.0,3,0.12046739755168788
3.675,0.00021699992642659966,82.203862736115,0,60,1.0,3,0.11067912320270586
3.68,0.00015308884054097838,81.79827921088489,0,60,1.0,3,0.10113598143258554
3.685,0.00010714989329311098,81.4064152633843,0,60,1.0,3,0.09191565325610127
3.69,7.440535854020571e-05,81.0310672972994,0,60,1.0,3,0.08308393640704474
3.695,5.1260276743925106e-05,80.67451499519211,0,60,1.0,3,0.07469447047510852
3.7,3.503659887882241e-05,80.338524013543,0,60,1.0,3,0.06678880031865868
3.705,2.375894748103639e-05,80.02436159372127,0,60,1.0,3,0.059396743381676866
3.71,1.5984413869232557e-05,79.73282330872932,0,60,1.0,3,0.05253701902892524
3.715,1.0669166579899869e-05,79.4642689510973,0,60,1.0,3,0.046218092966995195
3.72,7.06526633560511e-06,79.21866545674996,0,60,1.0,3,0.040439187217646125
3.725,4.641847214699205e-06,78.99563474688391,0,60,1.0,3,0.03519140580903314
3.73,3.025641074479182e-06,78.79450444444629,0,60,1.0,3,0.030458928104618574
3.735,1.9566278676921314e-06,78.61435957004821,0,60,1.0,3,0.026220225177604896
3.74,1.2553456560008793e-06,78.45409352834312,0,60,1.0,3,0.02244925949042641
3.745,7.990660428214668e-07,78.31245694336336,0,60,1.0,3,0.01911663396149078
3.75,5.046221251618276e-07,78.18810317343045,0,60,1.0,3,0.01619066290424585
3.755,3.1616527078858815e-07,78.07962961742325,0,60,1.0,3,0.01363834393937061
3.76,1.9652884407760343e-07,77.98561420049717,0,60,1.0,3,0.01142621648228629
3.765,1.2120002189836396e-07,77.90464668712917,0,60,1.0,3,0.009521098520686418
3.77,7.415549848886236e-08,77.83535470349312,0,60,1.0,3,0.007890698905720563
3.775,4.501406988770349e-08,77.77642455318359,0,60,1.0,3,0.006504107133731489
3.78,0.0,77.72661707634573,0,60,1.0,3,0.005332166502252529
3.785,0.0,77.68477893086524,0,60,1.0,3,0.00434773954977024
3.79,0.0,77.6498497660474,0,60,1.0,3,0.0035258768481740204
3.795,0.0,77.62086581648374,0,60,1.0,3,0.002843901564323366
3.8,0.0,77.59696047016833,0,60,1.0,3,0.0022814228274900387
3.805,0.0,77.57736236484402,0,60,1.0,3,0.0018202909375063694
3.81,0.0,77.56139154495807,0,60,1.0,3,0.001444506940189887
3.815,0.0,77.54845417352878,0,60,1.0,3,0.0011400982006772237
3.82,0.0,77.53803624353917,0,60,1.0,3,0.0008949704362157049
3.825,0.0,77.52969667664992,0,60,1.0,3,0.0006987453329392846
3.83,0.0,77.52306013697444,0,60,1.0,3,0.000542591458222031
3.835,0.0,77.51780982764838,0,60,1.0,3,0.00041905476819712985
3.84,0.0,77.51368048053044,0,60,1.0,3,0.0003218936595397495
3.845,0.0,77.51045169649136,0,60,1.0,3,0.00024592227038490764
3.85,0.0,77.5079417466527,0,60,1.0,3,0.00018686462712246474
3.855,0.0,77.50600190434021,0,60,1.0,3,0.00014122127859316017
3.86,0.0,77.50451134365947,0,60,1.0,3,0.0001061492625758413
3.865,0.0,77.50337261335471,0,60,1.0,3,7.93556083461975e-05
3.87,0.0,77.50250767355982,0,60,1.0,3,5.9004083760448657e-05
3.875,0.0,77.50185446759158,0,60,1.0,3,4.363453156670135e-05
3.88,0.0,77.50136399034713,0,60,1.0,3,3.209389052070786e-05
3.885,0.0,77.50099780838069,0,60,1.0,3,2.347784425149471e-05
3.89,0.0,77.5007259835821,0,60,1.0,3,1.708196663765407e-05
3.895,0.0,77.50052535183445,0,60,1.0,3,1.2361219634225135e-05
3.9,0.0,77.50037810942973,0,60,1.0,3,8.896692464291204e-06
3.905,0.0,77.50027066279699,0,60,1.0,3,6.368536399831475e-06
3.91,0.0,77.50019270075849,0,60,1.0,3,4.53413549387412e-06
3.915,0.0,77.50013645268456,0,60,1.0,3,3.2106514013588928e-06
3.92,0.0,77.50009610025637,0,60,1.0,3,2.2611825028541394e-06
3.925,0.0,77.50006731483874,0,60,1.0,3,1.5838785587033378e-06
3.93,0.0,77.50004689654789,0,60,1.0,3,1.103448185551101e-06
3.935,0.0,77.50003249486535,0,60,1.0,3,7.645850670916629e-07
3.94,0.0,77.50002239403797,0,60,1.0,3,5.269185404652971e-07
3.945,0.001684486749771458,77.50001534948753,0,60,1.0,3,3.6116441238471665e-07
3.95,0.003097557930867117,77.50001046403425,0,60,1.0,3,2.4621257051983453e-07
3.955,0.005475106668887023,77.5000070949318,0,60,1.0,3,1.6693957183419758e-07
3.96,0.00930222931468658,77.50000478455003,0,60,1.0,3,1.125776477425354e-07
3.965,0.01519157517868857,77.50000320905956,0,60,1.0,3,7.550728368829262e-08
3.97,0.023847336626128316,77.50000214071206,0,60,1.0,3,5.036969542636464e-08
3.975,0.0359830743700859,77.50000142030801,0,60,1.0,3,3.3419011996931445e-08
3.98,0.05218887796857759,77.50000093723958,0,60,1.0,3,2.2052695920351922e-08
3.985,0.0727577001223134,77.50000061512375,0,60,1.0,3,1.447350006642142e-08
3.99,0.0974992498694751,77.50000040153017,0,60,1.0,3,9.447768768629483e-09
3.995,0.12558706050443358,77.50000026068598,0,60,1.0,3,6.133787752225865e-09
4.0,0.15549263588878245,77.50000016832978,0,60,1.0,3,3.960700630212908e-09
4.005,0.1850529723539114,77.50000010810557,0,60,1.0,3,2.5436604038772846e-09
4.01,0.21169159439317053,77.50000006905242,0,60,1.0,3,1.6247627975056221e-09
4.015,0.23277292922115492,77.50000004386858,0,60,1.0,3,1.0322019213216502e-09
4.02,0.24602692519491282,77.50000002771866,0,60,1.0,3,6.522036662371487e-10
4.025,0.24995056064839283,77.50000001741945,0,60,1.0,3,4.098694716958562e-10
4.03,0.24408826520424054,77.5000000108878,0,60,1.0,3,2.5618359198715016e-10
4.035,0.22911894216865275,77.50000000676847,0,60,1.0,3,1.592582066223258e-10
4.04,0.20672661788705934,77.50000000418488,0,60,1.0,3,9.846784825426499e-11
4.045,0.17928878030241233,77.50000000257349,0,60,1.0,3,6.05526191280018e-11
4.05,0.14946211903866036,77.500000001574,0,60,1.0,3,3.703515925307703e-11
4.055,0.1197651512573837,77.50000000095747,0,60,1.0,3,2.2528718759798827e-11
4.06,0.09224675744988023,77.50000000057929,0,60,1.0,3,1.3630383096717517e-11
4.065,0.06829565320281596,77.50000000034858,0,60,1.0,3,8.201836595510351e-12
4.07,0.04860224607515734,77.50000000020863,0,60,1.0,3,4.908930778208956e-12
4.075,0.03324612389699793,77.50000000012419,0,60,1.0,3,2.9220861024976544e-12
4.08,0.021859876340472782,77.50000000007353,0,60,1.0,3,1.730046171681298e-12
4.085,0.01381595518554205,77.50000000004329,0,60,1.0,3,1.0185003167648307e-12
4.09,0.008394095110402422,77.50000000002535,0,60,1.0,3,5.965215249863618e-13
4.095,0.0049052535271608,77.50000000001477,0,60,1.0,3,3.4741360115517367e-13
4.1,0.0027671663551903634,77.50000000000855,0,60,1.0,3,2.0129257737768484e-13
4.105,0.0015425553464444616,77.50000000000493,0,60,1.0,3,1.1602744908647282e-13
4.11,0.0009638206637011801,77.50000000000283,0,60,1.0,3,6.654023737235762e-14
4.115,0.0009804935156568228,77.5000000000016,0,60,1.0,3,3.778415488983121e-14
4.12,0.0018793744894085216,77.50000000000091,0,60,1.0,3,2.1399875335833605e-14
4.125,0.004535525206900863,77.50000000000051,0,60,1.0,3,1.2037429876406403e-14
4.13,0.010832767979632273,77.50000000000028,0,60,1.0,3,6.687461042448002e-15
4.135,0.024208003392322392,77.50000000000016,0,60,1.0,3,3.678103573346401e-15
4.14,0.0500971897335304,77.50000000000009,0,60,1.0,3,2.0062383127344005e-15
4.145,0.09582894921774403,77.50000000000004,0,60,1.0,3,1.0031191563672002e-15
4.15,0.16937896721820658,77.50000000000003,0,60,1.0,3,6.687461042448002e-16
4.155,0.27661303008991756,77.50000000000001,0,60,1.0,3,3.343730521224001e-16
4.16,0.4173782800009149,77.50000000000001,0,60,1.0,3,3.343730521224001e-16
4.165,0.5818720934538056,77.5,0,60,1.0,3,0.0
4.17,0.7494718801585675,77.5,0,60,1.0,3,0.0
4.175,0.891813020752378,77.5,0,60,1.0,3,0.0
4.18,0.9800361632936612,77.5,0,60,1.0,3,0.0
4.185,0.993574479225126,77.50000249379623,1,60,1.0,3,5.8677558372972485e-08
4.19,0.9263438449375362,77.5000037873591,0,60,1.0,3,8.911433189282167e-08
4.195,0.7873015962290536,77.50000586643203,0,60,1.0,3,1.3803369490554305e-07
4.2,0.5959516244629897,77.50000936112565,0,60,1.0,3,2.202617799733108e-07
4.205,0.376910120078773,77.50001553885947,0,60,1.0,3,3.656202228713108e-07
4.21,0.15739335672107918,77.5000269987902,0,60,1.0,3,6.352656518682873e-07
4.215,-0.033361226269301235,77.50004909538588,0,60,1.0,3,1.1551855500195362e-06
4.22,-0.1680180840843834,77.5000927881157,0,60,1.0,3,2.1832497810357704e-06
4.225,-0.23069703190837854,77.50018019691618,0,60,1.0,3,4.239927439437665e-06
4.23,-0.22587267821131068,77.50035512985896,0,60,1.0,3,8.355996681409712e-06
4.235,-0.17718181630665902,77.50070244716376,0,60,1.0,3,1.652816855907451e-05
4.24,-0.11494332516451301,77.50138258743117,0,60,1.0,3,3.253146896862049e-05
4.245,-0.061810214049552864,77.50269116678194,0,60,1.0,3,6.332157133984391e-05
4.25,-0.026546104631500547,77.50515844333034,0,60,1.0,3,0.00012137513718458007
4.255,-0.00719600351942686,77.50970954477438,0,60,1.0,3,0.00022845987704426187
4.26,0.0022072757983807078,77.5179131238936,0,60,1.0,3,0.00042148526808486006
4.265,0.006917199873730717,77.5323521823347,0,60,1.0,3,0.0007612278196401188
4.27,0.01004859748264829,77.55715374596484,0,60,1.0,3,0.0013447940227021102
4.275,0.013037082251128167,77.59871019466716,0,60,1.0,3,0.0023225928156979507
4.28,0.01645163937690478,77.66660957566988,0,60,1.0,3,0.00392022530987955
4.285,0.020526639934696615,77.77476004056273,0,60,1.0,3,0.006464942130887654
4.29,0.02539629541761738,77.94264063456316,0,60,1.0,3,0.01041507375442734
4.295,0.031171612185577933,78.1965363540429,0,60,1.0,3,0.016389090683362476
4.3,0.03795853426638131,78.57052498893353,0,60,1.0,3,0.025188823269024184
4.305,0.0458588961882057,79.10689048440082,0,60,1.0,3,0.03780918786825463
4.31,0.054966995891435555,79.85556550877875,0,60,1.0,3,0.05542507079479418
4.315,0.06536491004445595,80.87218550073672,0,60,1.0,3,0.07934554119380517
4.32,0.07711726085088699,82.21440106636989,0,60,1.0,3,0.1109270839145856
4.325,0.09026570629555215,83.93627195484723,0,60,1.0,3,0.1514416930552289
4.33,0.10482339848670268,86.08086244957394,0,60,1.0,3,0.20190264587232806
4.335,0.12076968927580028,88.67155390032357,0,60,1.0,3,0.2628600917723194
4.34,0.13804539501007884,91.70302829420208,0,60,1.0,3,0.33418890104004906
4.345,0.15654895051787066,95.13326660856461,0,60,1.0,3,0.41490039078975555
4.35,0.17613378141900526,98.87813714204108,0,60,1.0,3,0.5030149915774372
4.355,0.19660720058055794,102.81011793964564,0,60,1.0,3,0.5955321868151915
4.36,0.21773108748496234,106.76233734752944,0,60,1.0,3,0.6885255846477515
4.365,0.23922453870058807,110.53842825599659,0,60,1.0,3,0.7773747824940375
4.37,0.2607685857914563,113.92775900036906,0,60,1.0,3,0.8571237411851544
4.375,0.2820129681603682,116.72459033287774,0,60,1.0,3,0.9229315372441821
4.38,0.30258482867153996,118.74882595036786,0,60,1.0,3,0.9705606105968908
4.385,0.3220990771751686,119.8654865137496,0,60,1.0,3,0.9968349767941083
4.39,0.3401700499968971,120.0,0,60,1.0,3,1.0
4.395,0.3564239911198326,119.1469163744074,0,60,1.0,3,0.9799274441037035
4.4,0.3705118017738417,117.37064685570721,0,60,1.0,3,0.9381328671931107
4.405,0.3821214567925213,114.79810695801649,0,60,1.0,3,0.8776025166592115
4.41,0.39098947374066967,111.60444632346429,0,60,1.0,3,0.8024575605521009
4.415,0.3969108472035567,107.99410915756765,0,60,1.0,3,0.7175084507662977
4.42,0.3997469255491936,104.18007944020901,0,60,1.0,3,0.6277665750637414
4.425,0.3994308076379137,100.36422724801442,0,60,1.0,3,0.5379818176003391
4.43,0.3959699661768434,96.7212161790668,0,60,1.0,3,0.45226391009568945
4.435,0.38944595408114946,93.38759728931282,0,60,1.0,3,0.3738258185720664
4.44,0.38001120995358023,90.45670883537264,0,60,1.0,3,0.3048637373028856
4.445,0.3678831374098315,87.9790401462504,0,60,1.0,3,0.24656565050000936
4.45,0.35333577933796634,85.96697701419116,0,60,1.0,3,0.19922298856920373
4.455,0.33668953221163944,84.4024246438112,0,60,1.0,3,0.1624099916190871
4.46,0.3182994390982644,83.24571739115189,0,60,1.0,3,0.13519335038004435
4.465,0.29854265738230645,82.44441592118244,0,60,1.0,3,0.11633919814546917
4.47,0.2778057157821067,81.94096223704659,0,60,1.0,3,0.10449322910697861
4.475,0.2564721553719815,81.67860013199362,0,60,1.0,3,0.09832000310573222
4.48,0.23491109433464996,81.6053774632043,0,60,1.0,3,0.09659711678127779
4.485,0.21346717185309805,81.67636369433883,0,60,1.0,3,0.09826738104326664
4.49,0.19245222055656455,81.85441421730658,0,60,1.0,3,0.10245680511309609
4.495,0.17213889801761392,82.10989597948169,0,60,1.0,3,0.10846814069368688
4.5,0.15275638501270183,82.4197812649522,0,60,1.0,3,0.11575955917534603
4.505,0.13448814019607322,82.76645106571821,0,60,1.0,3,0.123916495663958
4.51,0.11747159495449566,83.13645818712642,0,60,1.0,3,0.13262254557944522
4.515,0.10179958433370105,83.51940780368162,0,60,1.0,3,0.1416331247925086
4.52,0.08752324394101413,83.90703501007195,0,60,1.0,3,0.15075376494286943
4.525,0.07465606047174059,84.29250168132002,0,60,1.0,3,0.15982356897223574
4.53,0.0631787448609295,84.66989887994485,0,60,1.0,3,0.16870350305752596
4.535,0.05304460019959574,85.03392255252196,0,60,1.0,3,0.1772687659416931
4.54,0.044185078305849994,85.37968430795249,0,60,1.0,3,0.1854043366577056
4.545,0.03651525513023255,85.70262077560254,0,60,1.0,3,0.1930028417788833
4.55,0.0299390014708757,85.99847050884269,0,60,1.0,3,0.19996401197276908
4.555,0.024353677220580638,86.26329398177421,0,60,1.0,3,0.2061951525123344
4.56,0.01965423034339045,86.49351840681324,0,60,1.0,3,0.21161219780737028
4.565,0.015736632374757337,86.68599420541278,0,60,1.0,3,0.2161410401273596
4.57,0.012500627640593535,86.83805385632725,0,60,1.0,3,0.2197189142665235
4.575,0.009851811652115898,86.94756666863884,0,60,1.0,3,0.22229568632091393
4.58,0.007703084175428559,87.01298502755421,0,60,1.0,3,0.2238349418248049
4.585,0.005975544002062424,87.03337908862481,0,60,1.0,3,0.2243148020852897
4.59,0.004598905818663047,87.0084579536151,0,60,1.0,3,0.2237284224380025
4.595,0.0035115256454839104,86.938576193165,0,60,1.0,3,0.22208414572152954
4.6,0.002660121266303676,86.82472527864306,0,60,1.0,3,0.2194053006739543
4.605,0.0019992692560877024,86.66851009780702,0,60,1.0,3,0.21572964936016506
4.61,0.0014907520044639367,86.47211127728372,0,60,1.0,3,0.2111085006419698
4.615,0.0011028178277539807,86.23823452311164,0,60,1.0,3,0.2056055181908622
4.62,0.0008094059938923333,85.97004861293706,0,60,1.0,3,0.19929526148087207
4.625,0.0005893771793717645,85.67111402048207,0,60,1.0,3,0.19226150636428388
4.63,0.0004257792353490551,85.34530441514248,0,60,1.0,3,0.18459539800335245
4.635,0.0003051686392901525,84.99672344980459,0,60,1.0,3,0.1763934929365786
4.64,0.00021699992642659966,84.62961932448681,0,60,1.0,3,0.16775574881145436
4.645,0.00015308884054097838,84.248299592624,0,60,1.0,3,0.15878351982644692
4.65,0.00010714989329311098,83.85704856531288,0,60,1.0,3,0.14957761330147953
4.655,7.440535854020571e-05,83.4600494751478,0,60,1.0,3,0.14023645823877173
4.66,5.1260276743925106e-05,83.06131329728954,0,60,1.0,3,0.13085443052445986
4.665,3.503659887882241e-05,82.66461580565927,0,60,1.0,3,0.1215203718978651
4.67,2.375894748103639e-05,82.2734440829479,0,60,1.0,3,0.1123163313634801
4.675,1.5984413869232557e-05,81.89095332165515,0,60,1.0,3,0.10331654874482699
4.68,1.0669166579899869e-05,81.51993436674516,0,60,1.0,3,0.0945866909822391
4.685,7.06526633560511e-06,81.16279207494762,0,60,1.0,3,0.08618334293994394
4.69,4.641847214699205e-06,80.82153421580314,0,60,1.0,3,0.07815374625419154
4.695,3.025641074479182e-06,80.49777032755243,0,60,1.0,3,0.07053577241299837
4.7,1.9566278676921314e-06,80.19271967649756,0,60,1.0,3,0.06335811003523671
4.705,1.2553456560008793e-06,79.9072272581673,0,60,1.0,3,0.05664064136864226
4.71,7.990660428214668e-07,79.64178662610968,0,60,1.0,3,0.05039497943787477
4.715,5.046221251618276e-07,79.39656824009577,0,60,1.0,3,0.04462513506107705
4.72,3.1616527078858815e-07,79.17145198793789,0,60,1.0,3,0.03932828206912672
4.725,1.9652884407760343e-07,78.96606254967222,0,60,1.0,3,0.034495589404052146
4.73,1.2120002189836396e-07,78.77980633332653,0,60,1.0,3,0.03011309019591843
4.735,7.415549848886236e-08,78.61190881032023,0,60,1.0,3,0.026162560242828946
4.74,4.501406988770349e-08,78.46145120731774,0,60,1.0,3,0.022622381348652625
4.745,0.0,78.32740566133431,0,60,1.0,3,0.019468368501983777
4.75,0.0,78.20866810746416,0,60,1.0,3,0.016674543705039135
4.755,0.0,78.10408833568827,0,60,1.0,3,0.014213843192665282
4.76,0.0,78.01249681760311,0,60,1.0,3,0.012058748649484882
4.765,0.0,77.93272805946427,0,60,1.0,3,0.010181836693276877
4.77,0.0,77.86364037977026,0,60,1.0,3,0.008556244229888467
4.775,0.0,77.80413213413297,0,60,1.0,3,0.007156050214893426
4.78,0.0,77.75315451508283,0,60,1.0,3,0.005956576825478271
4.785,0.0,77.70972113863759,0,60,1.0,3,0.004934615026766832
4.79,0.0,77.67291469288736,0,60,1.0,3,0.004068581009114362
4.795,0.0,77.6418909673889,0,60,1.0,3,0.0033386109973859595
4.8,0.0,77.61588060740796,0,60,1.0,3,0.0027266025272461
4.805,0.0,77.59418894611207,0,60,1.0,3,0.002216210496754577
4.81,0.0,77.57619426314615,0,60,1.0,3,0.0017928061916741038
4.815,0.0,77.56134480222934,0,60,1.0,3,0.001443407111278649
4.82,0.0,77.54915485611353,0,60,1.0,4,0.001156584849730159
4.825,0.0,77.53920019694617,0,60,1.0,4,0.0009223575752039725
4.83,0.0,77.53111309607614,0,60,1.0,4,0.0007320728488503605
4.835,0.0,77.52457714164618,0,60,1.0,4,0.0005782856857923862
4.84,0.0,77.51932202662293,0,60,1.0,4,0.00045463592053953804
4.845,0.0,77.51511844558637,0,60,1.0,4,0.00035572813144393184
4.85,0.0,77.51177320666078,0,60,1.0,4,0.0002770166273124045
4.855,0.0,77.50912463613587,0,60,1.0,4,0.00021469732084389816
4.86,0.0,77.50703832803256,0,60,1.0,4,0.00016560771841327818
4.865,0.0,77.50540326930944,0,60,1.0,4,0.00012713574845740956
4.87,0.0,77.50412835357564,0,60,1.0,4,9.713773119147738e-05
4.875,0.0,77.50313928191733,0,60,1.0,4,7.3865456878299e-05
4.88,0.0,77.50237583848272,0,60,1.0,4,5.590208194636194e-05
4.885,0.0,77.50178952045918,0,60,1.0,4,4.2106363745500964e-05
4.89,0.0,77.50134149662578,0,60,1.0,4,3.156462648903738e-05
4.895,0.0,77.5010008653694,0,60,1.0,4,2.3549773397783557e-05
4.9,0.0,77.50074318152002,0,60,1.0,4,1.748662400051912e-05
4.905,0.0,77.50054922121242,0,60,1.0,4,1.2922852057031645e-05
4.91,0.0,77.50040395488503,0,60,1.0,4,9.504820824237387e-06
4.915,0.0,77.50029570017914,0,60,1.0,4,6.957651273818128e-06
4.92,0.0,77.50021542865605,0,60,1.0,4,5.068909554077383e-06
4.925,0.0,77.50015620269332,0,60,1.0,4,3.675357489849857e-06
4.93,0.0,77.50011272149108,0,60,1.0,4,2.652270378308351e-06
4.935,0.0,77.50008095768732,0,60,1.0,4,1.904886760391545e-06
4.94,0.0,77.50005786855301,0,60,1.0,4,1.361613012102894e-06
4.945,0.0,77.50004116805168,0,60,1.0,4,9.686600395418602e-07
4.95,0.0,77.50002914816145,0,60,1.0,4,6.8583909283274e-07
4.955,0.0,77.50002053975126,0,60,1.0,4,4.832882649786958e-07
4.96,0.0,77.50001440496989,0,60,1.0,4,3.3894046797446634e-07
4.965,0.0,77.50001005455123,0,60,1.0,4,2.3657767589129968e-07
4.97,0.0,77.50000698467477,0,60,1.0,4,1.6434528868772116e-07
4.975,0.001684486749771458,77.50000482906273,0,60,1.0,4,1.1362500545681755e-07
4.98,0.003097557930867117,77.50000332286477,0,60,1.0,4,7.8185053432796e-08
4.985,0.005475106668887023,77.50000227559855,0,60,1.0,4,5.354349522188867e-08
4.99,0.00930222931468658,77.50000155099998,0,60,1.0,4,3.6494117239271875e-08
4.995,0.01519157517868857,77.50000105210987,0,60,1.0,4,2.475552625636577e-08
5.0,0.023847336626128316,77.50000071030286,0,60,1.0,4,1.6713008389000177e-08
5.005,0.0359830743700859,77.50000047726456,0,60,1.0,4,1.1229754443989162e-08
5.01,0.05218887796857759,77.50000031915964,0,60,1.0,4,7.509638568508843e-09
5.015,0.0727577001223134,77.50000021241732,0,60,1.0,4,4.99805457152166e-09
5.02,0.0974992498694751,77.50000014070355,0,60,1.0,4,3.3106717263067632e-09
5.025,0.12558706050443358,77.50000009275841,0,60,1.0,4,2.1825508825071773e-09
5.03,0.15549263588878245,77.50000006086039,0,60,1.0,4,1.432009104759987e-09
5.035,0.1850529723539114,77.50000003974196,0,60,1.0,4,9.351050025810872e-10
5.04,0.21169159439317053,77.50000002582837,0,60,1.0,4,6.077263659629834e-10
5.045,0.23277292922115492,77.50000001670621,0,60,1.0,4,3.9308728820983294e-10
5.05,0.24602692519491282,77.50000001075455,0,60,1.0,4,2.5304817587739844e-10
5.055,0.24995056064839283,77.50000000689032,0,60,1.0,4,1.6212512117122327e-10
5.06,0.24408826520424054,77.5000000043936,0,60,1.0,4,1.0337878527078668e-10
5.065,0.22911894216865275,77.50000000278825,0,60,1.0,4,6.560599906472764e-11
5.07,0.20672661788705934,77.50000000176108,0,60,1.0,4,4.143718048426843e-11
5.075,0.17928878030241233,77.50000000110703,0,60,1.0,4,2.6047660760334968e-11
5.08,0.14946211903866036,77.50000000069258,0,60,1.0,4,1.629600506823729e-11
5.085,0.1197651512573837,77.50000000043124,0,60,1.0,4,1.0146884639706353e-11
5.09,0.09224675744988023,77.50000000026724,0,60,1.0,4,6.287885245161734e-12
5.095,0.06829565320281596,77.50000000016482,0,60,1.0,4,3.878058658515596e-12
5.1,0.04860224607515734,77.50000000010117,0,60,1.0,4,2.380401758059366e-12
5.105,0.03324612389699793,77.5000000000618,0,60,1.0,4,1.454188403680318e-12
5.11,0.021859876340472782,77.50000000003757,0,60,1.0,4,8.840823498116258e-13
5.115,0.01381595518554205,77.50000000002274,0,60,1.0,4,5.349968833958402e-13
5.12,0.008394095110402422,77.5000000000137,0,60,1.0,4,3.223356222459937e-13
5.125,0.0049052535271608,77.50000000000821,0,60,1.0,4,1.9326762412674725e-13
5.13,0.0027671663551903634,77.5000000000049,0,60,1.0,4,1.1535870298222802e-13
5.135,0.0015425553464444616,77.50000000000291,0,60,1.0,4,6.854647568509201e-14
5.14,0.0009638206637011801,77.50000000000172,0,60,1.0,4,4.045913930681041e-14
5.145,0.0009804935156568228,77.50000000000101,0,60,1.0,4,2.3740486700690407e-14
5.15,0.0018793744894085216,77.5000000000006,0,60,1.0,4,1.4043668189140804e-14
5.155,0.004535525206900863,77.50000000000034,0,60,1.0,4,8.024953250937602e-15
5.16,0.010832767979632273,77.5000000000002,0,60,1.0,4,4.681222729713601e-15
5.165,0.024208003392322392,77.50000000000011,0,60,1.0,4,2.6749844169792007e-15
5.17,0.0500971897335304,77.50000000000007,0,60,1.0,4,1.6718652606120004e-15
5.175,0.09582894921774403,77.50000000000004,0,60,1.0,4,1.0031191563672002e-15
5.18,0.16937896721820658,77.50000000000001,0,60,1.0,4,3.343730521224001e-16
5.185,0.27661303008991756,77.50000000000001,0,60,1.0,4,3.343730521224001e-16
5.19,0.4173782800009149,77.5,0,60,1.0,4,0.0
5.195,0.5818720934538056,77.5,0,60,1.0,4,0.0
5.2,0.7494718801585675,77.5,0,60,1.0,4,0.0
5.205,0.891813020752378,77.5,0,60,1.0,4,0.0
5.21,0.9800361632936612,77.5,0,60,1.0,4,0.0
5.215,0.993574479225126,77.50000249800566,1,60,1.0,4,5.8776603683487766e-08
5.22,0.9263438449375362,77.50000398334456,0,60,1.0,4,9.372575424790472e-08
5.225,0.7873015962290536,77.50000651826808,0,60,1.0,4,1.533710136460714e-07
5.23,0.5959516244629897,77.50001109956669,0,60,1.0,4,2.611662750950927e-07
5.235,0.376910120078773,77.50001991374356,0,60,1.0,4,4.685586719353844e-07
5.24,0.15739335672107918,77.50003784287847,0,60,1.0,4,8.904206698817314e-07
5.245,-0.033361226269301235,77.5000757794975,0,60,1.0,4,1.7830469998363483e-06
5.25,-0.1680180840843834,77.50015770025146,0,60,1.0,4,3.71059415208626e-06
5.255,-0.23069703190837854,77.50033525375275,0,60,1.0,4,7.888323594162262e-06
5.26,-0.22587267821131068,77.50071677049758,0,60,1.0,4,1.6865188178251307e-05
5.265,-0.17718181630665902,77.50152279179979,0,60,1.0,4,3.5830395289087176e-05
5.27,-0.11494332516451301,77.50318819860948,0,60,1.0,4,7.501643787009016e-05
5.275,-0.061810214049552864,77.50654235147103,0,60,1.0,4,0.00015393768167120257
5.28,-0.026546104631500547,77.51311313183669,0,60,1.0,4,0.0003085442785103463
5.285,-0.00719600351942686,77.52561660146723,0,60,1.0,4,0.0006027435639349305
5.29,0.0022072757983807078,77.54870668435228,0,60,1.0,4,0.0011460396318184126
5.295,0.006917199873730717,77.59006066169802,0,60,1.0,4,0.002119074392894551
5.3,0.01004859748264829,77.66185425210647,0,60,1.0,4,0.0038083353436815393
5.305,0.013037082251128167,77.78261996466746,0,60,1.0,4,0.0066498815215873175
5.31,0.01645163937690478,77.97937101485591,0,60,1.0,4,0.011279317996609747
5.315,0.020526639934696615,78.28970554962969,0,60,1.0,4,0.018581307050110286
5.32,0.02539629541761738,78.76339504471892,0,60,1.0,4,0.029726942228680452
5.325,0.031171612185577933,79.46274570125202,0,60,1.0,4,0.04618225179416514
5.33,0.03795853426638131,80.46087165869562,0,60,1.0,4,0.06966756843989702
5.335,0.0458588961882057,81.83702594387275,0,60,1.0,4,0.10204766926759402
5.34,0.054966995891435555,83.6683924474054,0,60,1.0,4,0.14513864582130342
5.345,0.06536491004445595,86.0183081292734,0,60,1.0,4,0.20043077951231514
5.35,0.07711726085088699,88.9217404652122,0,60,1.0,4,0.26874683447558106
5.355,0.09026570629555215,92.36986285561291,0,60,1.0,4,0.34987912601442134
5.36,0.10482339848670268,96.29650943647528,0,60,1.0,4,0.4422708102700065
5.365,0.12076968927580028,100.56983716270597,0,60,1.0,4,0.5428196979460227
5.37,0.13804539501007884,104.99237729792675,0,60,1.0,4,0.6468794658335706
5.375,0.15654895051787066,109.31164624019664,0,60,1.0,4,0.7485093232987444
5.38,0.17613378141900526,113.24165886380223,0,60,1.0,4,0.8409802085600524
5.385,0.19660720058055794,116.49336841515469,0,60,1.0,4,0.9174910215330515
5.39,0.21773108748496234,118.809791844154,0,60,1.0,4,0.9719951022153884
5.395,0.23922453870058807,120.0,0,60,1.0,4,1.0
5.4,0.2607685857914563,119.96577975088297,0,60,1.0,4,0.9991948176678347
5.405,0.2820129681603682,118.71583497294446,0,60,1.0,4,0.9697843523045756
5.41,0.30258482867153996,116.36471102531507,0,60,1.0,4,0.9144637888309429
5.415,0.3220990771751686,113.11665526529586,0,60,1.0,4,0.8380389474187262
5.42,0.3401700499968971,109.23759987650324,0,60,1.0,4,0.7467670559177233
5.425,0.3564239911198326,105.02062501049012,0,60,1.0,4,0.6475441178938852
5.43,0.3705118017738417,100.75112656878211,0,60,1.0,4,0.5470853310301673
5.435,0.3821214567925213,96.67735531973065,0,60,1.0,4,0.4512318898760153
5.44,0.39098947374066967,92.99028647874353,0,60,1.0,4,0.36447732891161244
5.445,0.3969108472035567,89.8144696838358,0,60,1.0,4,0.2897522278549599
5.45,0.3997469255491936,87.2092293957742,0,60,1.0,4,0.22845245637115769
5.455,0.3994308076379137,85.17785730322214,0,60,1.0,4,0.180655465958168
5.46,0.3959699661768434,83.68154720070062,0,60,1.0,4,0.1454481694282499
5.465,0.38944595408114946,82.65478587633747,0,60,1.0,4,0.1212890794432346
5.47,0.38001120995358023,82.01953275018874,0,60,1.0,4,0.10634194706326458
5.475,0.3678831374098315,81.69648828448356,0,60,1.0,4,0.09874090081137799
5.48,0.35333577933796634,81.61275893693787,0,60,1.0,4,0.09677079851618507
5.485,0.33668953221163944,81.70604778040453,0,60,1.0,4,0.09896583012716546
5.49,0.3182994390982644,81.92602276840576,0,60,1.0,4,0.10414171219778255
5.495,0.29854265738230645,82.23373311228592,0,60,1.0,4,0.11138195558319808
5.5,0.2778057157821067,82.59992382822458,0,60,1.0,4,0.1199982077229312
5.505,0.2564721553719815,83.0029340715118,0,60,1.0,4,0.12948080168263065
5.51,0.23491109433464996,83.42664632068943,0,60,1.0,4,0.13945050166328068
5.515,0.21346717185309805,83.85874605168085,0,60,1.0,4,0.14961755415719655
5.52,0.19245222055656455,84.28939050086015,0,60,1.0,4,0.1597503647261212
5.525,0.17213889801761392,84.710280339288,0,60,1.0,4,0.1696536550420707
5.53,0.15275638501270183,85.11407312733049,0,60,1.0,4,0.17915466181954082
5.535,0.13448814019607322,85.49405855512624,0,60,1.0,4,0.18809549541473516
5.54,0.11747159495449566,85.84401826967708,0,60,1.0,4,0.19632984163946068
5.545,0.10179958433370105,86.15820599042442,0,60,1.0,4,0.2037224938923393
5.55,0.08752324394101413,86.43139904103533,0,60,1.0,4,0.21015056567141963
5.555,0.07465606047174059,86.65898635211758,0,60,1.0,4,0.215505561226296
5.56,0.0631787448609295,86.8370689154512,0,60,1.0,4,0.219695739187087
5.565,0.05304460019959574,86.96255654877436,0,60,1.0,4,0.22264838938292608
5.57,0.044185078305849994,87.03325025752278,0,60,1.0,4,0.2243117707652419
5.575,0.03651525513023255,87.04790319342274,0,60,1.0,4,0.2246565457275939
5.58,0.0299390014708757,87.0062558421201,0,60,1.0,4,0.22367660804988465
5.585,0.024353677220580638,86.9090430721917,0,60,1.0,4,0.2213892487574516
5.59,0.01965423034339045,86.75797231969146,0,60,1.0,4,0.21783464281626969
5.595,0.015736632374757337,86.55567360582799,0,60,1.0,4,0.21307467307830566
5.6,0.012500627640593535,86.30562334239096,0,60,1.0,4,0.20719113746802256
5.605,0.009851811652115898,86.01204497164223,0,60,1.0,4,0.20028341109746414
5.61,0.007703084175428559,85.6797903925037,0,60,1.0,4,0.1924656562942048
5.615,0.005975544002062424,85.31420681489475,0,60,1.0,4,0.1838636897622293
5.62,0.004598905818663047,84.92099413544021,0,60,1.0,4,0.17461162671624025
5.625,0.0035115256454839104,84.5060581273616,0,60,1.0,4,0.16484842652615525
5.63,0.002660121266303676,84.07536468518992,0,60,1.0,4,0.1547144631809394
5.635,0.0019992692560877024,83.63480007468739,0,60,1.0,4,0.14434823705146801
5.64,0.0014907520044639367,83.19004163641426,0,60,1.0,4,0.1338833326215121
5.645,0.0011028178277539807,82.74644271472884,0,60,1.0,4,0.12344571093479631
5.65,0.0008094059938923333,82.30893477748606,0,60,1.0,4,0.11315140652908373
5.655,0.0005893771793717645,81.88194880472919,0,60,1.0,4,0.10310467775833392
5.66,0.0004257792353490551,81.46935710791587,0,60,1.0,4,0.09339663783331456
5.665,0.0003051686392901525,81.07443584337275,0,60,1.0,4,0.08410437278524127
5.67,0.00021699992642659966,80.69984764857996,0,60,1.0,4,0.0752905329077638
5.675,0.00015308884054097838,80.34764309423872,0,60,1.0,4,0.06700336692326399
5.68,0.00010714989329311098,80.01927903677215,0,60,1.0,4,0.059277153806403464
5.685,7.440535854020571e-05,79.71565149314013,0,60,1.0,4,0.052132976309179506
5.69,5.1260276743925106e-05,79.43714035092398,0,60,1.0,4,0.04557977296291724
5.695,3.503659887882241e-05,79.18366307048232,0,60,1.0,4,0.03961560165840765
5.7,2.375894748103639e-05,78.95473452320364,0,60,1.0,4,0.03422904760479154
5.705,1.5984413869232557e-05,78.74953022428151,0,60,1.0,4,0.02940071115956504
5.71,1.0669166579899869e-05,78.56695043877203,0,60,1.0,4,0.025104716206400594
5.715,7.06526633560511e-06,78.4056829415812,0,60,1.0,4,0.02131018686073423
5.72,4.641847214699205e-06,78.26426256981593,0,60,1.0,4,0.01798264870155121
5.725,3.025641074479182e-06,78.14112609439135,0,60,1.0,4,0.01508531986803184
5.73,1.9566278676921314e-06,78.03466133357307,0,60,1.0,4,0.012580266672307517
5.735,1.2553456560008793e-06,77.94324981389724,0,60,1.0,4,0.010429407385817392
5.74,7.990660428214668e-07,77.86530263707101,0,60,1.0,4,0.008595356166376725
5.745,5.046221251618276e-07,77.79928952259839,0,60,1.0,4,0.007042106414079667
5.75,3.1616527078858815e-07,77.74376125683288,0,60,1.0,4,0.005735558984303131
5.755,1.9652884407760343e-07,77.69736598579576,0,60,1.0,4,0.004643905548135428
5.76,1.2120002189836396e-07,77.65885994088477,0,60,1.0,4,0.0037378809619945195
5.765,7.415549848886236e-08,77.6271132860104,0,60,1.0,4,0.0029909008473035046
5.77,4.501406988770349e-08,77.6011118265454,0,60,1.0,4,0.002379101801068373
5.775,0.0,77.57995533119477,0,60,1.0,4,0.0018813019104651201
5.78,0.0,77.56285319487394,0,60,1.0,4,0.0014788987029161864
5.785,0.0,77.54911812164852,0,60,1.0,4,0.001155720509376913
5.79,0.0,77.53815843929038,0,60,1.0,4,0.0008978456303619918
5.795,0.0,77.52946957802463,0,60,1.0,4,0.0006934018358736814
5.8,0.0,77.52262516170235,0,60,1.0,4,0.0005323567459376644
5.805,0.0,77.51726807503519,0,60,1.0,4,0.0004063076478868264
5.81,0.0,77.51310178967128,0,60,1.0,4,0.0003082774040301635
5.815,0.0,77.50988215769988,0,60,1.0,4,0.00023252135764417235
5.82,0.0,77.50740981555606,0,60,1.0,4,0.00017434860131903835
5.825,0.0,77.50552328529045,0,60,1.0,4,0.00012995965389296437
5.83,0.0,77.50409281406513,0,60,1.0,4,9.630150741486432e-05
5.835,0.0,77.50301495625494,0,60,1.0,4,7.094014717515219e-05
5.84,0.0,77.50220787496914,0,60,1.0,4,5.19499992739892e-05
5.845,0.0,77.50160732017996,0,60,1.0,4,3.7819298351932425e-05
5.85,0.0,77.5011632278179,0,60,1.0,4,2.7370066303480115e-05
5.855,0.0,77.50083687698123,0,60,1.0,4,1.9691223087647813e-05
5.86,0.0,77.50059853965124,0,60,1.0,4,1.4083285911430508e-05
5.865,0.0,77.50042555793296,0,60,1.0,4,1.0013127834273451e-05
5.87,0.0,77.50030078689879,0,60,1.0,4,7.077338795076738e-06
5.875,0.0,77.50021134579045,0,60,1.0,4,4.972842128167673e-06
5.88,0.0,77.50014762596477,0,60,1.0,4,3.473552112275095e-06
5.885,0.0,77.50010251002901,0,60,1.0,4,2.4120006825716487e-06
5.89,0.0,77.50007076270478,0,60,1.0,4,1.6650048183584979e-06
5.895,0.0,77.5000485598072,0,60,1.0,4,1.1425836987655202e-06
5.9,0.001684486749771458,77.50003312714004,0,60,1.0,4,7.794621186509603e-07
5.905,0.003097557930867117,77.50002246598136,0,60,1.0,4,5.286113261102881e-07
5.91,0.005475106668887023,77.50001514611694,0,60,1.0,4,3.563792220387875e-07
5.915,0.00930222931468658,77.50001015106662,0,60,1.0,4,2.388486263150887e-07
5.92,0.01519157517868857,77.50000676326665,0,60,1.0,4,1.5913568598294018e-07
5.925,0.023847336626128316,77.50000447956461,0,60,1.0,4,1.0540152021242059e-07
5.93,0.0359830743700859,77.50000294950786,0,60,1.0,4,6.940018492434105e-08
5.935,0.05218887796857759,77.50000193062432,0,60,1.0,4,4.5426454629277405e-08
5.94,0.0727577001223134,77.50000125626265,0,60,1.0,4,2.9559121163829866e-08
5.945,0.0974992498694751,77.50000081263886,0,60,1.0,4,1.9120914336834926e-08
5.95,0.12558706050443358,77.50000052257566,0,60,1.0,4,1.2295897905085654e-08
5.955,0.15549263588878245,77.50000033406828,0,60,1.0,4,7.860430006236557e-09
5.96,0.1850529723539114,77.50000021230282,0,60,1.0,4,4.99536052784071e-09
5.965,0.21169159439317053,77.50000013412532,0,60,1.0,4,3.1558897717332e-09
5.97,0.23277292922115492,77.50000008423648,0,60,1.0,4,1.9820347193565204e-09
5.975,0.24602692519491282,77.50000005259253,0,60,1.0,4,1.2374711974082269e-09
5.98,0.24995056064839283,77.50000003264243,0,60,1.0,4,7.680572413365178e-10
5.985,0.24408826520424054,77.50000002014073,0,60,1.0,4,4.73899570565931e-10
5.99,0.22911894216865275,77.50000001235385,0,60,1.0,4,2.9067885353630545e-10
5.995,0.20672661788705934,77.50000000753293,0,60,1.0,4,1.772454705881982e-10
6.0,0.17928878030241233,77.50000000456626,0,60,1.0,4,1.0744141785407385e-10
6.005,0.14946211903866036,77.50000000275163,0,60,1.0,4,6.474431970940821e-11
6.01,0.1197651512573837,77.50000000164837,0,60,1.0,4,3.878526780788568e-11
6.015,0.09224675744988023,77.50000000098164,0,60,1.0,4,2.309748732145903e-11
6.02,0.06829565320281596,77.50000000058115,0,60,1.0,4,1.3674185966545552e-11
6.025,0.04860224607515734,77.50000000034203,0,60,1.0,5,8.047690618481925e-12
6.03,0.03324612389699793,77.5000000002001,0,60,1.0,5,4.7083069469355156e-12
6.035,0.021859876340472782,77.50000000011639,0,60,1.0,5,2.738515296882457e-12
6.04,0.01381595518554205,77.50000000006729,0,60,1.0,5,1.5832564017995643e-12
6.045,0.008394095110402422,77.50000000003868,0,60,1.0,5,9.10163447877173e-13
6.05,0.0049052535271608,77.5000000000221,0,60,1.0,5,5.199500960503321e-13
6.055,0.0027671663551903634,77.50000000001255,0,60,1.0,5,2.952514050240793e-13
6.06,0.0015425553464444616,77.50000000000709,0,60,1.0,5,1.6685215300907763e-13
6.065,0.0009638206637011801,77.50000000000398,0,60,1.0,5,9.362445459427202e-14
6.07,0.0009804935156568228,77.50000000000222,0,60,1.0,5,5.216219613109441e-14
6.075,0.0018793744894085216,77.50000000000124,0,60,1.0,5,2.9090455534648805e-14
6.08,0.004535525206900863,77.50000000000068,0,60,1.0,5,1.6049906501875204e-14
6.085,0.010832767979632273,77.50000000000037,0,60,1.0,5,8.693699355182403e-15
6.09,0.024208003392322392,77.5000000000002,0,60,1.0,5,4.681222729713601e-15
6.095,0.0500971897335304,77.50000000000011,0,60,1.0,5,2.6749844169792007e-15
6.1,0.09582894921774403,77.50000000000006,0,60,1.0,5,1.3374922084896003e-15
6.105,0.16937896721820658,77.50000000000003,0,60,1.0,5,6.687461042448002e-16
6.11,0.27661303008991756,77.50000000000001,0,60,1.0,5,3.343730521224001e-16
6.115,0.4173782800009149,77.50000000000001,0,60,1.0,5,3.343730521224001e-16
6.12,0.5818720934538056,77.5,0,60,1.0,5,0.0
6.125,0.7494718801585675,77.5,0,60,1.0,5,0.0
6.13,0.891813020752378,77.5,0,60,1.0,5,0.0
6.135,0.9800361632936612,77.5,0,60,1.0,5,0.0
6.14,0.993574479225126,77.50000249606323,1,60,1.0,5,5.8730899568485364e-08
6.145,0.9263438449375362,77.5000038398575,0,60,1.0,5,9.034958820313264e-08
6.15,0.7873015962290536,77.500006033868,0,60,1.0,5,1.4197336480826967e-07
6.155,0.5959516244629897,77.50000979196264,0,60,1.0,5,2.303991209373635e-07
6.16,0.376910120078773,77.50001658325932,0,60,1.0,5,3.9019433703448587e-07
6.165,0.15739335672107918,77.50002948944842,0,60,1.0,5,6.938693746526362e-07
6.17,-0.033361226269301235,77.50005499618474,0,60,1.0,5,1.2940278763300524e-06
6.175,-0.1680180840843834,77.50010664152244,0,60,1.0,5,2.509212292606582e-06
6.18,-0.23069703190837854,77.50021223841208,0,60,1.0,5,4.993844990006919e-06
6.185,-0.22587267821131068,77.50042774487464,0,60,1.0,5,1.006458528569751e-05
6.19,-0.17718181630665902,77.50086306382961,0,60,1.0,5,2.0307384226177473e-05
6.195,-0.11494332516451301,77.50172846110615,0,60,1.0,5,4.0669673085978825e-05
6.2,-0.061810214049552864,77.5034152292072,0,60,1.0,5,8.035833428721162e-05
6.205,-0.026546104631500547,77.5066308676186,0,60,1.0,5,0.00015602041455522073
6.21,-0.00719600351942686,77.51261714788687,0,60,1.0,5,0.0002968740679263834
6.215,0.0022072757983807078,77.5234879390857,0,60,1.0,5,0.000552657390251705
6.22,0.006917199873730717,77.5427303078502,0,60,1.0,5,0.00100541900824015
6.225,0.01004859748264829,77.57591328443115,0,60,1.0,5,0.001786194927791819
6.23,0.013037082251128167,77.63163821024733,0,60,1.0,5,0.0030973696528783824
6.235,0.01645163937690478,77.7227359889992,0,60,1.0,5,0.005240846799981281
6.24,0.020526639934696615,77.86766338596527,0,60,1.0,5,0.008650903199182882
6.245,0.02539629541761738,78.09196918540792,0,60,1.0,5,0.013928686715480447
6.25,0.031171612185577933,78.42959438652437,0,60,1.0,5,0.021872809094691092
6.255,0.03795853426638131,78.9236517302522,0,60,1.0,5,0.03349768777064007
6.26,0.0458588961882057,79.62622444184039,0,60,1.0,5,0.05002881039624453
6.265,0.054966995891435555,80.5966700411891,0,60,1.0,5,0.07286282449856706
6.27,0.06536491004445595,81.89795705296187,0,60,1.0,5,0.10348134242263227
6.275,0.07711726085088699,83.590740736457,0,60,1.0,5,0.14331154674016455
6.28,0.09026570629555215,85.72521884287897,0,60,1.0,5,0.19353456100891703
6.285,0.10482339848670268,88.3312835786459,0,60,1.0,5,0.25485373126225636
6.29,0.12076968927580028,91.40803681418913,0,60,1.0,5,0.32724792503974426
6.295,0.13804539501007884,94.91424919828907,0,60,1.0,5,0.4097470399597428
6.3,0.15654895051787066,98.7616754538298,0,60,1.0,5,0.5002747165607011
6.305,0.17613378141900526,102.81314459839467,0,60,1.0,5,0.5956034023151687
6.31,0.19660720058055794,106.88692793605124,0,60,1.0,5,0.6914571279070879
6.315,0.21773108748496234,110.76804090701927,0,60,1.0,5,0.7827774331063357
6.32,0.23922453870058807,114.22596317855158,0,60,1.0,5,0.8641403100835666
6.325,0.2607685857914563,117.0369802382121,0,60,1.0,5,0.9302818879579317
6.33,0.2820129681603682,119.00824368351186,0,60,1.0,5,0.9766645572591027
6.335,0.30258482867153996,120.0,0,60,1.0,5,1.0
6.34,0.3220990771751686,119.94245116636986,0,60,1.0,5,0.998645909796938
6.345,0.3401700499968971,118.84443995887491,0,60,1.0,5,0.9728103519735274
6.35,0.3564239911198326,116.79247804582917,0,60,1.0,5,0.9245288951959805
6.355,0.3705118017738417,113.94028233815197,0,60,1.0,5,0.857418407956517
6.36,0.3821214567925213,110.4905961503334,0,60,1.0,5,0.7762493211843153
6.365,0.39098947374066967,106.67229771772733,0,60,1.0,5,0.686407005122996
6.37,0.3969108472035567,102.71639188641603,0,60,1.0,5,0.5933268679156714
6.375,0.3997469255491936,98.83435529010902,0,60,1.0,5,0.5019848303555062
6.38,0.3994308076379137,95.20154861737079,0,60,1.0,5,0.4165070262910774
6.385,0.3959699661768434,91.94724589020063,0,60,1.0,5,0.3399351974164855
6.39,0.38944595408114946,89.1515501373611,0,60,1.0,5,0.2741541208790847
6.395,0.38001120995358023,86.84834318674413,0,60,1.0,5,0.21996101615868544
6.4,0.3678831374098315,85.03265064487029,0,60,1.0,5,0.17723883870283028
6.405,0.35333577933796634,83.67047424017679,0,60,1.0,5,0.1451876291806303
6.41,0.33668953221163944,82.70922389874646,0,60,1.0,5,0.12256997408815196
6.415,0.3182994390982644,82.08726133343396,0,60,1.0,5,0.10793556078668136
6.42,0.29854265738230645,81.74159879534122,0,60,1.0,5,0.09980232459626397
6.425,0.2778057157821067,81.61334027722147,0,60,1.0,5,0.09678447711109336
6.43,0.2564721553719815,81.6509036668351,0,60,1.0,5,0.09766832157259073
6.435,0.23491109433464996,81.81136644357802,0,60,1.0,5,0.10144391631948291
6.44,0.21346717185309805,82.06042651697676,0,60,1.0,5,0.10730415334062968
6.445,0.19245222055656455,82.37148928088116,0,60,1.0,5,0.11462327719720386
6.45,0.17213889801761392,82.72432417484066,0,60,1.0,5,0.12292527470213319
6.455,0.15275638501270183,83.10362302191093,0,60,1.0,5,0.13184995345672787
6.46,0.13448814019607322,83.49767392349987,0,60,1.0,5,0.14112173937646763
6.465,0.11747159495449566,83.89726171789964,0,60,1.0,5,0.15052380512705033
6.47,0.10179958433370105,84.29482974674242,0,60,1.0,5,0.15987834698217465
6.475,0.08752324394101413,84.68388923933297,0,60,1.0,5,0.16903268798430518
6.48,0.07465606047174059,85.05863764443257,0,60,1.0,5,0.17785029751606035
6.485,0.0631787448609295,85.41373904216793,0,60,1.0,5,0.18620562452159842
6.49,0.05304460019959574,85.74422176195922,0,60,1.0,5,0.19398168851668762
6.495,0.044185078305849994,86.0454552613927,0,60,1.0,5,0.20106953556218127
6.5,0.03651525513023255,86.31317664893982,0,60,1.0,5,0.20736886232799567
6.505,0.0299390014708757,86.54354497329876,0,60,1.0,5,0.2127892934893827
6.51,0.024353677220580638,86.73320770957436,0,60,1.0,5,0.21725194610763196
6.515,0.01965423034339045,86.87936861096367,0,60,1.0,5,0.22069102614032157
6.52,0.015736632374757337,86.97984948291244,0,60,1.0,5,0.223055281950881
6.525,0.012500627640593535,87.03314081261668,0,60,1.0,5,0.2243091955909807
6.53,0.009851811652115898,87.03843787511315,0,60,1.0,5,0.22443383235560344
6.535,0.007703084175428559,86.99566019345913,0,60,1.0,5,0.2234272986696266
6.54,0.005975544002062424,86.90545322943116,0,60,1.0,5,0.22130478186896846
6.545,0.004598905818663047,86.76917202771214,0,60,1.0,5,0.2180981653579328
6.55,0.0035115256454839104,86.58884728386485,0,60,1.0,5,0.21385523020858474
6.555,0.002660121266303676,86.36713497361453,0,60,1.0,5,0.2086384699674006
6.56,0.0019992692560877024,86.10725126733229,0,60,1.0,5,0.20252355923134793
6.565,0.0014907520044639367,85.81289494876535,0,60,1.0,5,0.19559752820624346
6.57,0.0011028178277539807,85.48815994788507,0,60,1.0,5,0.1879567046561192
6.575,0.0008094059938923333,85.13744087266727,0,60,1.0,5,0.17970449112158282
6.58,0.0005893771793717645,84.76533457621503,0,60,1.0,5,0.17094904885211823
6.585,0.0004257792353490551,84.37654082180066,0,60,1.0,5,0.1618009605129567
6.59,0.0003051686392901525,83.97576501288177,0,60,1.0,5,0.15237094147957095
6.595,0.00021699992642659966,83.5676257473155,0,60,1.0,5,0.14276766464271773
6.6,0.00015308884054097838,83.1565696492459,0,60,1.0,5,0.1330957564528446
6.605,0.00010714989329311098,82.74679554691296,0,60,1.0,5,0.12345401286854031
6.61,7.440535854020571e-05,82.34218962124325,0,60,1.0,5,0.11393387344101764
6.615,5.1260276743925106e-05,81.94627267143458,0,60,1.0,5,0.10461818050434317
6.62,3.503659887882241e-05,81.5621601530088,0,60,1.0,5,0.0955802388943248
6.625,2.375894748103639e-05,81.19253516317026,0,60,1.0,5,0.08688318030988854
6.63,1.5984413869232557e-05,80.83963409787519,0,60,1.0,5,0.07857962583235743
6.635,1.0669166579899869e-05,80.5052443018934,0,60,1.0,5,0.07071163063278585
6.64,7.06526633560511e-06,80.19071269077197,0,60,1.0,5,0.06331088684169352
6.645,4.641847214699205e-06,79.89696405136633,0,60,1.0,5,0.056399154149795884
6.65,3.025641074479182e-06,79.6245275306656,0,60,1.0,5,0.04998888307448477
6.655,1.9566278676921314e-06,79.37356970210506,0,60,1.0,5,0.044083992990707255
6.66,1.2553456560008793e-06,79.14393255178399,0,60,1.0,5,0.03868076592432919
6.665,7.990660428214668e-07,78.93517474813203,0,60,1.0,5,0.03376881760310653
6.67,5.046221251618276e-07,78.74661463915068,0,60,1.0,5,0.029332109156486548
6.675,3.1616527078858815e-07,78.57737355111618,0,60,1.0,5,0.02534996590861604
6.68,1.9652884407760343e-07,78.42641813017309,0,60,1.0,5,0.021798073651131532
6.685,1.2120002189836396e-07,78.29260066180315,0,60,1.0,5,0.01864942733654469
6.69,7.415549848886236e-08,78.17469651121884,0,60,1.0,5,0.0158752120286786
6.695,4.501406988770349e-08,78.07143803963184,0,60,1.0,5,0.013445600932513959
6.7,0.0,77.98154455767332,0,60,1.0,5,0.011330460180548632
6.705,0.0,77.9037480701592,0,60,1.0,5,0.009499954591981082
6.71,0.0,77.83681473981095,0,60,1.0,5,0.00792505270143405
6.715,0.0,77.7795621471775,0,60,1.0,5,0.006577932874764723
6.72,0.0,77.730872547324,0,60,1.0,5,0.005432295231152881
6.725,0.0,77.68970241993146,0,60,1.0,5,0.0044635863513285716
6.73,0.0,77.65508867876439,0,60,1.0,5,0.0036491453826914388
6.735,0.0,77.62615195063168,0,60,1.0,5,0.002968281191333651
6.74,0.0,77.60209735548692,0,60,1.0,5,0.0024022907173392627
6.745,0.0,77.58221322128246,0,60,1.0,5,0.001934428736057846
6.75,0.0,77.56586815304183,0,60,1.0,5,0.001549838895101964
6.755,0.0,77.5525068488899,0,60,1.0,5,0.0012354552679977695
6.76,0.0,77.54164501992928,0,60,1.0,5,0.0009798828218653371
6.765,0.0,77.53286372908609,0,60,1.0,5,0.0007732642137903119
6.77,0.0,77.52580341921859,0,60,1.0,5,0.0006071392757315366
6.775,0.0,77.5201578553129,0,60,1.0,5,0.0004743024779506467
6.78,0.0,77.51566816144691,0,60,1.0,5,0.0003686626222802528
6.785,0.0,77.51211709188321,0,60,1.0,5,0.0002851080443108725
6.79,0.0,77.50932363821491,0,60,1.0,5,0.0002193797227037334
6.795,0.0,77.50713804159365,0,60,1.0,5,0.00016795391985056086
6.8,0.0,77.50543725103012,0,60,1.0,5,0.00012793531835567966
6.805,0.0,77.5041208456039,0,60,1.0,5,9.69610730327772e-05
6.81,0.0,77.5031074199587,0,60,1.0,5,7.311576373400813e-05
6.815,0.0,77.50233141833475,0,60,1.0,5,5.485690199407145e-05
6.82,0.0,77.50174039213948,0,60,1.0,5,4.095040328192066e-05
6.825,0.0,77.501292649158,0,60,1.0,5,3.0415274305957664e-05
6.83,0.0,77.50095525841263,0,60,1.0,5,2.2476668532496712e-05
6.835,0.0,77.50070237286243,0,60,1.0,5,1.6526420292580843e-05
6.84,0.0,77.50051383209139,0,60,1.0,5,1.2090166856135992e-05
6.845,0.0,77.50037400841595,0,60,1.0,5,8.800198022259686e-06
6.85,0.0,77.50027086205799,0,60,1.0,5,6.37322489383758e-06
6.855,0.0,77.50019517384675,0,60,1.0,5,4.5923258058417775e-06
6.86,0.0,77.50013992706306,0,60,1.0,5,3.292401483764372e-06
6.865,0.0,77.50009981331155,0,60,1.0,5,2.348548507063028e-06
6.87,0.0,77.5000708405394,0,60,1.0,5,1.6668362210272307e-06
6.875,0.0,77.50005002440169,0,60,1.0,5,1.177044745592117e-06
6.88,0.0,77.50003514702703,0,60,1.0,5,8.269888714012803e-07
6.885,0.0,77.50002456981785,0,60,1.0,5,5.781133612505501e-07
6.89,0.0,77.50001708920767,0,60,1.0,5,4.0209900409054705e-07
6.895,0.0,77.50001182629116,0,60,1.0,5,2.782656742831879e-07
6.9,0.001684486749771458,77.50000814295163,0,60,1.0,5,1.9159886184805894e-07
6.905,0.003097557930867117,77.50000557855593,0,60,1.0,5,1.312601394896346e-07
6.91,0.005475106668887023,77.5000038024926,0,60,1.0,5,8.947041411535312e-08
6.915,0.00930222931468658,77.50000257882347,0,60,1.0,5,6.067819928081436e-08
6.92,0.01519157517868857,77.5000017401292,0,60,1.0,5,4.0944216634135744e-08
6.925,0.023847336626128316,77.50000116828292,0,60,1.0,5,2.748900990755989e-08
6.93,0.0359830743700859,77.50000078040709,0,60,1.0,5,1.836251980795864e-08
6.935,0.05218887796857759,77.50000051868184,0,60,1.0,5,1.220427868568496e-08
6.94,0.0727577001223134,77.50000034299478,0,60,1.0,5,8.070465435808086e-09
6.945,0.0974992498694751,77.50000022567355,0,60,1.0,5,5.3099657794946855e-09
6.95,0.12558706050443358,77.50000014773399,0,60,1.0,5,3.4760937657719136e-09
6.955,0.15549263588878245,77.50000009622477,0,60,1.0,5,2.2641121605000295e-09
6.96,0.1850529723539114,77.5000000623591,0,60,1.0,5,1.4672730899559718e-09
6.965,0.21169159439317053,77.50000004020866,0,60,1.0,5,9.460861479858388e-10
6.97,0.23277292922115492,77.50000002579563,0,60,1.0,5,6.069559704508933e-10
6.975,0.24602692519491282,77.50000001646566,0,60,1.0,5,3.874273555565571e-10
6.98,0.24995056064839283,77.50000001045728,0,60,1.0,5,2.460537603731021e-10
6.985,0.24408826520424054,77.50000000660792,0,60,1.0,5,1.5548045987944693e-10
6.99,0.22911894216865275,77.50000000415449,0,60,1.0,5,9.775262429577518e-11
6.995,0.20672661788705934,77.50000000259882,0,60,1.0,5,6.114880627993604e-11
7.0,0.17928878030241233,77.5000000016175,0,60,1.0,5,3.80586751656237e-11
7.005,0.14946211903866036,77.50000000100165,0,60,1.0,5,2.356828457884737e-11
7.01,0.1197651512573837,77.50000000061716,0,60,1.0,5,1.4521487280623714e-11
7.015,0.09224675744988023,77.50000000037834,0,60,1.0,5,8.902013766654657e-12
7.02,0.06829565320281596,77.50000000023077,0,60,1.0,5,5.4298839934156554e-12
7.025,0.04860224607515734,77.50000000014005,0,60,1.0,5,3.2952464286662528e-12
7.03,0.03324612389699793,77.50000000008457,0,60,1.0,5,1.989854033180403e-12
7.035,0.021859876340472782,77.5000000000508,0,60,1.0,5,1.1953836613375804e-12
7.04,0.01381595518554205,77.50000000003037,0,60,1.0,5,7.14555212385569e-13
7.045,0.008394095110402422,77.50000000001806,0,60,1.0,5,4.249881492475705e-13
7.05,0.0049052535271608,77.50000000001069,0,60,1.0,5,2.514485351960449e-13
7.055,0.0027671663551903634,77.5000000000063,0,60,1.0,5,1.4812726209022324e-13
7.06,0.0015425553464444616,77.50000000000368,0,60,1.0,5,8.660262049970162e-14
7.065,0.0009638206637011801,77.50000000000215,0,60,1.0,5,5.049033087048241e-14
7.07,0.0009804935156568228,77.50000000000125,0,60,1.0,5,2.942482858677121e-14
7.075,0.0018793744894085216,77.50000000000072,0,60,1.0,5,1.7053025658242404e-14
7.08,0.004535525206900863,77.50000000000041,0,60,1.0,5,9.696818511549603e-15
7.085,0.010832767979632273,77.50000000000024,0,60,1.0,5,5.684341886080802e-15
7.09,0.024208003392322392,77.50000000000013,0,60,1.0,5,3.0093574691016007e-15
7.095,0.0500971897335304,77.50000000000007,0,60,1.0,5,1.6718652606120004e-15
7.1,0.09582894921774403,77.50000000000004,0,60,1.0,5,1.0031191563672002e-15
7.105,0.16937896721820658,77.50000000000003,0,60,1.0,5,6.687461042448002e-16
7.11,0.27661303008991756,77.50000000000001,0,60,1.0,5,3.343730521224001e-16
7.115,0.4173782800009149,77.5,0,60,1.0,5,0.0
7.12,0.5818720934538056,77.5,0,60,1.0,5,0.0
7.125,0.7494718801585675,77.5,0,60,1.0,5,0.0
7.13,0.891813020752378,77.5,0,60,1.0,5,0.0
7.135,0.9800361632936612,77.5,0,60,1.0,5,0.0
7.14,0.993574479225126,77.50000249379623,1,60,1.0,5,5.8677558372972485e-08
7.145,0.9263438449375362,77.50000382794776,0,60,1.0,5,9.006935917622125e-08
7.15,0.7873015962290536,77.50000600036053,0,60,1.0,5,1.4118495361050436e-07
7.155,0.5959516244629897,77.50000970943701,0,60,1.0,5,2.2845734138975198e-07
7.16,0.376910120078773,77.5000163868594,0,60,1.0,5,3.8557316235496463e-07
7.165,0.15739335672107918,77.50002902423199,0,60,1.0,5,6.829231056947131e-07
7.17,-0.033361226269301235,77.50005389476512,0,60,1.0,5,1.268112120388811e-06
7.175,-0.1680180840843834,77.50010404947875,0,60,1.0,5,2.4482230294191086e-06
7.18,-0.23069703190837854,77.50020622040319,0,60,1.0,5,4.852244780843595e-06
7.185,-0.22587267821131068,77.50041404783398,0,60,1.0,5,9.742301976115521e-06
7.19,-0.17718181630665902,77.50083263801669,0,60,1.0,5,1.959148274562829e-05
7.195,-0.11494332516451301,77.50166268015035,0,60,1.0,5,3.912188589050161e-05
7.2,-0.061810214049552864,77.5032770278292,0,60,1.0,5,7.710653715762687e-05
7.205,-0.026546104631500547,77.50634895429774,0,60,1.0,5,0.0001493871599467077
7.21,-0.00719600351942686,77.5120590120072,0,60,1.0,5,0.0002837414589929294
7.215,0.0022072757983807078,77.52241562190353,0,60,1.0,5,0.0005274263977302032
7.22,0.006917199873730717,77.54073109806174,0,60,1.0,5,0.0009583787779233182
7.225,0.01004859748264829,77.57229617891642,0,60,1.0,5,0.0017010865627392323
7.23,0.013037082251128167,77.62528706971409,0,60,1.0,6,0.0029479310520962505
7.235,0.01645163937690478,77.7119131132812,0,60,1.0,6,0.004986190900734086
7.24,0.020526639934696615,77.84976424958334,0,60,1.0,6,0.008229747049019874
7.245,0.02539629541761738,78.06324165455797,0,60,1.0,6,0.013252744813128709
7.25,0.031171612185577933,78.38485440731901,0,60,1.0,6,0.020820103701623793
7.255,0.03795853426638131,78.85605110071748,0,60,1.0,6,0.031907084722764226
7.26,0.0458588961882057,79.52715125776614,0,60,1.0,6,0.047697676653320836
7.265,0.054966995891435555,80.45588226229052,0,60,1.0,6,0.06955017087742389
7.27,0.06536491004445595,81.70405544530206,0,60,1.0,6,0.09891895165416613
7.275,0.07711726085088699,83.33206946519013,0,60,1.0,6,0.1372251638868266
7.28,0.09026570629555215,85.39123254573106,0,60,1.0,6,0.1856760598995543
7.285,0.10482339848670268,87.9143369512103,0,60,1.0,6,0.24504322238141887
7.29,0.12076968927580028,90.90544393360824,0,60,1.0,6,0.3154222102025468
7.295,0.13804539501007884,94.33034336266256,0,60,1.0,6,0.396008079121472
7.3,0.15654895051787066,98.10950421064753,0,60,1.0,6,0.4849295108387654
7.305,0.17613378141900526,102.11539119616134,0,60,1.0,6,0.5791856752037963
7.31,0.19660720058055794,106.17568759500095,0,60,1.0,6,0.6747220610588459
7.315,0.21773108748496234,110.08321153763839,0,60,1.0,6,0.7666638008856091
7.32,0.23922453870058807,113.61222628224048,0,60,1.0,6,0.8496994419350702
7.325,0.2607685857914563,116.53961398056285,0,60,1.0,6,0.9185791524838317
7.33,0.2820129681603682,118.66827111065578,0,60,1.0,6,0.9686652026036654
7.335,0.30258482867153996,119.84936740314373,0,60,1.0,6,0.9964557036033819
7.34,0.3220990771751686,120.0,0,60,1.0,6,1.0
7.345,0.3401700499968971,119.11335164043977,0,60,1.0,6,0.9791376856574064
7.35,0.3564239911198326,117.2596422087817,0,60,1.0,6,0.9355209931478047
7.355,0.3705118017738417,114.57771066593102,0,60,1.0,6,0.8724167215513182
7.36,0.3821214567925213,111.25864733544083,0,60,1.0,6,0.7943211137750783
7.365,0.39098947374066967,107.52417358062645,0,60,1.0,6,0.7064511430735636
7.37,0.3969108472035567,103.60317581973628,0,60,1.0,6,0.614192372229089
7.375,0.3997469255491936,99.70982687224779,0,60,1.0,6,0.5225841616999479
7.38,0.3994308076379137,96.02611916232044,0,60,1.0,6,0.43590868617224565
7.385,0.3959699661768434,92.69058107724302,0,60,1.0,6,0.3574254371116006
7.39,0.38944595408114946,89.79371843965717,0,60,1.0,6,0.28926396328605103
7.395,0.38001120995358023,87.37958938048318,0,60,1.0,6,0.2324609265996043
7.4,0.3678831374098315,85.45209135214775,0,60,1.0,6,0.1871080318152411
7.405,0.35333577933796634,83.98411918621723,0,60,1.0,6,0.15256751026393478
7.41,0.33668953221163944,82.92773974008752,0,60,1.0,6,0.12771152329617688
7.415,0.3182994390982644,82.22383282330381,0,60,1.0,6,0.11114900760714845
7.42,0.29854265738230645,81.81013488536829,0,60,1.0,6,0.10141493847925377
7.425,0.2778057157821067,81.62715266498432,0,60,1.0,6,0.09710947447021935
7.43,0.2564721553719815,81.62187846806819,0,60,1.0,6,0.09698537571925152
7.435,0.23491109433464996,81.74957199839405,0,60,1.0,6,0.09998992937397755
7.44,0.21346717185309805,81.9740569196691,0,60,1.0,6,0.10527192752162577
7.445,0.19245222055656455,82.2670305887381,0,60,1.0,6,0.11216542561736693
7.45,0.17213889801761392,82.6068399772209,0,60,1.0,6,0.12016094064049178
7.455,0.15275638501270183,82.97707830332679,0,60,1.0,6,0.12887243066651274
7.46,0.13448814019607322,83.36524231629802,0,60,1.0,6,0.13800570155995348
7.465,0.11747159495449566,83.76158527846451,0,60,1.0,6,0.14733141831681196
7.47,0.10179958433370105,84.15821910240557,0,60,1.0,6,0.156663978880131
7.475,0.08752324394101413,84.54846447631488,0,60,1.0,6,0.16584622297211474
7.48,0.07465606047174059,84.92641729835339,0,60,1.0,6,0.17473923054949142
7.485,0.0631787448609295,85.2866873918496,0,60,1.0,6,0.18321617392587286
7.49,0.05304460019959574,85.6242648120442,0,60,1.0,6,0.19115917204809887
7.495,0.044185078305849994,85.93447459191242,0,60,1.0,6,0.19845822569205693
7.5,0.03651525513023255,86.21298860076058,0,60,1.0,6,0.20501149648848427
7.505,0.0299390014708757,86.45587095455626,0,60,1.0,6,0.21072637540132377
7.51,0.024353677220580638,86.65963999461131,0,60,1.0,6,0.2155209410496779
7.515,0.01965423034339045,86.82133492105665,0,60,1.0,6,0.21932552755427404
7.52,0.015736632374757337,86.93857885017128,0,60,1.0,6,0.2220842082393243
7.525,0.012500627640593535,87.00963266008729,0,60,1.0,6,0.2237560625902892
7.53,0.009851811652115898,87.03343582049601,0,60,1.0,6,0.2243161369528473
7.535,0.007703084175428559,87.00963173891398,0,60,1.0,6,0.2237560409156231
7.54,0.005975544002062424,86.938576193165,0,60,1.0,6,0.22208414572152954
7.545,0.004598905818663047,86.82132827999462,0,60,1.0,6,0.219325371293991
7.55,0.0035115256454839104,86.65962406044066,0,60,1.0,6,0.2155205661280156
7.555,0.002660121266303676,86.45583375264079,0,60,1.0,6,0.21072550006213614
7.56,0.0019992692560877024,86.21290391749133,0,60,1.0,6,0.2050095039409725
7.565,0.0014907520044639367,85.93428659481444,0,60,1.0,6,0.19845380223092796
7.57,0.0011028178277539807,85.62385776540609,0,60,1.0,6,0.1911495944801432
7.575,0.0008094059938923333,85.28582782555713,0,60,1.0,6,0.18319594883663848
7.58,0.0005893771793717645,84.92464695644118,0,60,1.0,6,0.17469757544567482
7.585,0.0004257792353490551,84.54490834692771,0,60,1.0,6,0.1657625493394756
7.59,0.0003051686392901525,84.1512521860989,0,60,1.0,6,0.1565000514376212
7.595,0.00021699992642659966,83.74827318768754,0,60,1.0,6,0.14701819265147165
7.6,0.00015308884054097838,83.34043415451329,0,60,1.0,6,0.13742198010619505
7.605,0.00010714989329311098,82.93198775273756,0,60,1.0,6,0.1278114765350013
7.61,7.440535854020571e-05,82.52690826257488,0,60,1.0,6,0.11828019441352654
7.615,5.1260276743925106e-05,82.12883462523583,0,60,1.0,6,0.10891375588790177
7.62,3.503659887882241e-05,81.74102563739208,0,60,1.0,6,0.09978883852687258
7.625,2.375894748103639e-05,81.36632767600855,0,60,1.0,6,0.09097241590608358
7.63,1.5984413869232557e-05,81.00715488812935,0,60,1.0,6,0.08252129148539646
7.635,1.0669166579899869e-05,80.66548136982472,0,60,1.0,6,0.07448191458411102
7.64,7.06526633560511e-06,80.34284450049499,0,60,1.0,6,0.06689045883517625
7.645,4.641847214699205e-06,80.04035830388436,0,60,1.0,6,0.059773136561984956
7.65,3.025641074479182e-06,79.75873548233507,0,60,1.0,6,0.0531467172314134
7.655,1.9566278676921314e-06,79.4983166189272,0,60,1.0,6,0.04701921456299307
7.66,1.2553456560008793e-06,79.25910496239372,0,60,1.0,6,0.04139070499749932
7.665,7.990660428214668e-07,79.04080519796145,0,60,1.0,6,0.03625423995203405
7.67,5.046221251618276e-07,78.84286465667756,0,60,1.0,6,0.03159681545123677
7.675,3.1616527078858815e-07,78.66451551736972,0,60,1.0,6,0.02740036511458169
7.68,1.9652884407760343e-07,78.50481669878073,0,60,1.0,6,0.023642745853664215
7.685,1.2120002189836396e-07,78.36269431353409,0,60,1.0,6,0.020298689730213936
7.69,7.415549848886236e-08,78.23697974928406,0,60,1.0,6,0.01734069998315436
7.695,4.501406988770349e-08,78.12644464506172,0,60,1.0,6,0.014739874001452335
7.7,0.0,78.02983223281902,0,60,1.0,6,0.012466640772212191
7.705,0.0,77.94588470720849,0,60,1.0,6,0.010491404875493934
7.71,0.0,77.87336646401664,0,60,1.0,6,0.008785093270979788
7.715,0.0,77.81108320437647,0,60,1.0,6,0.00731960480885819
7.72,0.0,77.75789703460497,0,60,1.0,6,0.006068165520116843
7.725,0.0,77.7127377985272,0,60,1.0,6,0.0050055952594635425
7.73,0.0,77.67461096019198,0,60,1.0,6,0.0041084931809878605
7.735,0.0,77.64260241090227,0,60,1.0,6,0.003355350844759307
7.74,0.0,77.61588060740796,0,60,1.0,6,0.0027266025272461
7.745,0.0,77.5936964605813,0,60,1.0,6,0.0022046226019129147
7.75,0.0,77.57538138902093,0,60,1.0,6,0.0017736797416690105
7.755,0.0,77.56034393314094,0,60,1.0,6,0.001419857250375103
7.76,0.0,77.5480652957481,0,60,1.0,6,0.0011309481352494754
7.765,0.0,77.53809413809743,0,60,1.0,6,0.0008963326611161151
7.77,0.0,77.53004091886824,0,60,1.0,6,0.0007068451498408944
7.775,0.0,77.52357201997987,0,60,1.0,6,0.0005546357642321495
7.78,0.0,77.51840385980424,0,60,1.0,6,0.0004330319953938295
7.785,0.0,77.51429715282914,0,60,1.0,6,0.0003364035959798591
7.79,0.0,77.51105143644553,0,60,1.0,6,0.00026003379871828174
7.795,0.0,77.5084999511344,0,60,1.0,6,0.0001999988502210967
7.8,0.0,77.50650493041393,0,60,1.0,6,0.0001530571862100019
7.805,0.0,77.50495333166883,0,60,1.0,6,0.00011654898044305221
7.81,0.0,77.50375301836885,0,60,1.0,6,8.830631456128364e-05
7.815,0.0,77.50282938794548,0,60,1.0,6,6.65738340113448e-05
7.82,0.0,77.5021224273595,0,60,1.0,6,4.9939467282242466e-05
7.825,0.0,77.50158416968905,0,60,1.0,6,3.7274580918900775e-05
7.83,0.0,77.50117651939523,0,60,1.0,6,2.7682809299529468e-05
7.835,0.0,77.5008694107589,0,60,1.0,6,2.0456723738708902e-05
7.84,0.0,77.50063926283588,0,60,1.0,6,1.5041478491184535e-05
7.845,0.0,77.50046769468173,0,60,1.0,6,1.1004580746617542e-05
7.85,0.0,77.50034046614508,0,60,1.0,6,8.010968119432458e-06
7.855,0.0,77.50024661186245,0,60,1.0,6,5.80263205767337e-06
7.86,0.0,77.50017773891317,0,60,1.0,6,4.182092074496027e-06
7.865,0.0,77.5001274616702,0,60,1.0,6,2.9990981224326627e-06
7.87,0.0,77.50009095052647,0,60,1.0,6,2.1400123875323246e-06
7.875,0.0,77.500064574248,0,60,1.0,6,1.5193940705959155e-06
7.88,0.0,77.50004561860754,0,60,1.0,6,1.0733790010336259e-06
7.885,0.0,77.50003206662257,0,60,1.0,6,7.545087662626483e-07
7.89,0.0,77.5000224281237,0,60,1.0,6,5.277205576369263e-07
7.895,0.0,77.50001560850087,0,60,1.0,6,3.6725884409433465e-07
7.9,0.0,77.50001080831444,0,60,1.0,6,2.5431328100132624e-07
7.905,0.001684486749771458,77.50000744703297,0,60,1.0,6,1.7522430519367096e-07
7.91,0.003097557930867117,77.50000510548624,0,60,1.0,6,1.2012908795815533e-07
7.915,0.005475106668887023,77.5000034827273,0,60,1.0,6,8.194652456736282e-08
7.92,0.00930222931468658,77.50000236390684,0,60,1.0,6,5.5621337517496775e-08
7.925,0.01519157517868857,77.50000159650313,0,60,1.0,6,3.7564779417794744e-08
7.93,0.023847336626128316,77.50000107284681,0,60,1.0,6,2.5243454448333496e-08
7.935,0.0359830743700859,77.50000071735509,0,60,1.0,6,1.6878943356727284e-08
7.94,0.05218887796857759,77.50000047726456,0,60,1.0,6,1.1229754443989162e-08
7.945,0.0727577001223134,77.5000003159459,0,60,1.0,6,7.4340211058905185e-09
7.95,0.0974992498694751,77.50000020811088,0,60,1.0,6,4.89672649617954e-09
7.955,0.12558706050443358,77.50000013639716,0,60,1.0,6,3.209344988456852e-09
7.96,0.15549263588878245,77.50000008894969,0,60,1.0,6,2.092933888942592e-09
7.965,0.1850529723539114,77.50000005771811,0,60,1.0,6,1.358073204220786e-09
7.97,0.21169159439317053,77.50000003726561,0,60,1.0,6,8.768378232643419e-10
7.975,0.23277292922115492,77.50000002394049,0,60,1.0,6,5.633055747346267e-10
7.98,0.24602692519491282,77.50000001530334,0,60,1.0,6,3.6007864925041384e-10
7.985,0.24995056064839283,77.50000000973347,0,60,1.0,6,2.2902280333629974e-10
7.99,0.24408826520424054,77.50000000615996,0,60,1.0,6,1.4494035253044465e-10
7.995,0.22911894216865275,77.50000000387898,0,60,1.0,6,9.127013393427821e-11
8.0,0.20672661788705934,77.50000000243044,0,60,1.0,6,5.718681998533772e-11
8.005,0.17928878030241233,77.50000000151523,0,60,1.0,6,3.565252668255091e-11
8.01,0.14946211903866036,77.50000000093995,0,60,1.0,6,2.2116436786531908e-11
8.015,0.1197651512573837,77.50000000058017,0,60,1.0,6,1.3651114225949106e-11
8.02,0.09224675744988023,77.50000000035632,0,60,1.0,6,8.38406990891706e-12
8.025,0.06829565320281596,77.50000000021774,0,60,1.0,6,5.123263904619414e-12
8.03,0.04860224607515734,77.5000000001324,0,60,1.0,6,3.1153537266244016e-12
8.035,0.03324612389699793,77.5000000000801,0,60,1.0,6,1.884860894813969e-12
8.04,0.021859876340472782,77.50000000004822,0,60,1.0,6,1.1345277658513034e-12
8.045,0.01381595518554205,77.50000000002889,0,60,1.0,6,6.797804149648394e-13
8.05,0.008394095110402422,77.50000000001721,0,60,1.0,6,4.049257661202265e-13
8.055,0.0049052535271608,77.5000000000102,0,60,1.0,6,2.4007985142388327e-13
8.06,0.0027671663551903634,77.50000000000603,0,60,1.0,6,1.4177417409989764e-13
8.065,0.0015425553464444616,77.50000000000354,0,60,1.0,6,8.325888997847762e-14
8.07,0.0009638206637011801,77.50000000000206,0,60,1.0,6,4.848409255774801e-14
8.075,0.0009804935156568228,77.5000000000012,0,60,1.0,6,2.808733637828161e-14
8.08,0.0018793744894085216,77.5000000000007,0,60,1.0,6,1.6384279553997603e-14
8.085,0.004535525206900863,77.5000000000004,0,60,1.0,6,9.362445459427202e-15
8.09,0.010832767979632273,77.50000000000023,0,60,1.0,6,5.349968833958401e-15
8.095,0.024208003392322392,77.50000000000013,0,60,1.0,6,3.0093574691016007e-15
8.1,0.0500971897335304,77.50000000000007,0,60,1.0,6,1.6718652606120004e-15
8.105,0.09582894921774403,77.50000000000004,0,60,1.0,6,1.0031191563672002e-15
8.11,0.16937896721820658,77.50000000000003,0,60,1.0,6,6.687461042448002e-16
8.115,0.27661303008991756,77.50000000000001,0,60,1.0,6,3.343730521224001e-16
8.12,0.4173782800009149,77.5,0,60,1.0,6,0.0
8.125,0.5818720934538056,77.5,0,60,1.0,6,0.0
8.13,0.7494718801585675,77.5,0,60,1.0,6,0.0
8.135,0.891813020752378,77.5,0,60,1.0,6,0.0
8.14,0.9800361632936612,77.5,0,60,1.0,6,0.0
8.145,0.993574479225126,77.50000249379623,1,60,1.0,6,5.8677558372972485e-08
8.15,0.9263438449375362,77.50000387113866,0,60,1.0,6,9.108561551543329e-08
8.155,0.7873015962290536,77.50000614495686,0,60,1.0,6,1.44587220146979e-07
8.16,0.5959516244629897,77.50001009206693,0,60,1.0,6,2.3746039834590835e-07
8.165,0.376910120078773,77.5000173369902,0,60,1.0,6,4.079291811114458e-07
8.17,0.15739335672107918,77.50003134163862,0,60,1.0,6,7.37450320417231e-07
8.175,-0.033361226269301235,77.50005950089377,0,60,1.0,6,1.4000210298678105e-06
8.18,-0.1680180840843834,77.50011746182723,0,60,1.0,6,2.7638076995331443e-06
8.185,-0.23069703190837854,77.50023776471434,0,60,1.0,6,5.594463866868062e-06
8.19,-0.22587267821131068,77.50048658883156,0,60,1.0,6,1.1449148977964583e-05
8.195,-0.17718181630665902,77.50099513789219,0,60,1.0,6,2.341500922799402e-05
8.2,-0.11494332516451301,77.50201644570332,0,60,1.0,6,4.744578125456321e-05
8.205,-0.061810214049552864,77.50402451354624,0,60,1.0,6,9.469443638214911e-05
8.21,-0.026546104631500547,77.50788085207563,0,60,1.0,6,0.00018543181354422868
8.215,-0.00719600351942686,77.51510323642296,0,60,1.0,6,0.0003553702687755129
8.22,0.0022072757983807078,77.52828124048683,0,60,1.0,6,0.0006654409526313831
8.225,0.006917199873730717,77.55168968563063,0,60,1.0,6,0.001216227897191402
8.23,0.01004859748264829,77.59214923171803,0,60,1.0,6,0.002168217216894712
8.235,0.013037082251128167,77.66016563836381,0,60,1.0,6,0.0037686032556189944
8.24,0.01645163937690478,77.77133735087011,0,60,1.0,6,0.006384408255767352
8.245,0.020526639934696615,77.94794785355886,0,60,1.0,6,0.01053994949550255
8.25,0.02539629541761738,78.22055245920677,0,60,1.0,6,0.01695417551074757
8.255,0.031171612185577933,78.62923630281921,0,60,1.0,6,0.02657026594868726
8.26,0.03795853426638131,79.22408280415199,0,60,1.0,6,0.040566654215340954
8.265,0.0458588961882057,80.06428738171843,0,60,1.0,6,0.06033617368749246
8.27,0.054966995891435555,81.21533054261677,0,60,1.0,6,0.0874195421792181
8.275,0.06536491004445595,82.74374175486754,0,60,1.0,6,0.12338215893805983
8.28,0.07711726085088699,84.70928122426405,0,60,1.0,6,0.16963014645327168
8.285,0.09026570629555215,87.1548465652038,0,60,1.0,6,0.2271728603577364
8.29,0.10482339848670268,90.09502724164179,0,60,1.0,6,0.29635358215627733
8.295,0.12076968927580028,93.50487114298438,0,60,1.0,6,0.3765852033643385
8.3,0.13804539501007884,97.31093238205123,0,60,1.0,6,0.46613958546002904
8.305,0.15654895051787066,101.38685595826713,0,60,1.0,6,0.5620436696062855
8.31,0.17613378141900526,105.55547445391579,0,60,1.0,6,0.6601288106803715
8.315,0.19660720058055794,109.59858538401849,0,60,1.0,6,0.755260832565141
8.32,0.21773108748496234,113.27431955233847,0,60,1.0,6,0.8417486953491404
8.325,0.23922453870058807,116.34051861380365,0,60,1.0,6,0.9138945556189094
8.33,0.2607685857914563,118.58114006736284,0,60,1.0,6,0.9666150604085374
8.335,0.2820129681603682,119.8317565853096,0,60,1.0,6,0.9960413314190495
8.34,0.30258482867153996,120.0,0,60,1.0,6,1.0
8.345,0.3220990771751686,119.07744164457799,0,60,1.0,6,0.9782927445783056
8.35,0.3401700499968971,117.14080910839245,0,60,1.0,6,0.9327249201974693
8.355,0.3564239911198326,114.34232070302158,0,60,1.0,6,0.8668781341887432
8.36,0.3705118017738417,110.89084986176812,0,60,1.0,6,0.7856670555710146
8.365,0.3821214567925213,107.02717543587835,0,60,1.0,6,0.6947570690794905
8.37,0.39098947374066967,102.99739961797562,0,60,1.0,6,0.5999388145406027
8.375,0.3969108472035567,99.02858404930407,0,60,1.0,6,0.5065549188071546
8.38,0.3997469255491936,95.309845089302,0,60,1.0,6,0.4190551785718118
8.385,0.3994308076379137,91.98081845212747,0,60,1.0,6,0.340725140050058
8.39,0.3959699661768434,89.12790132529386,0,60,1.0,6,0.27359767824220854
8.395,0.38944595408114946,86.78734731342963,0,60,1.0,6,0.21852581913952082
8.4,0.38001120995358023,84.9533724015562,0,60,1.0,6,0.17537346827191044
8.405,0.3678831374098315,83.58903512890868,0,60,1.0,6,0.14327141479785122
8.41,0.35333577933796634,82.63774874869135,0,60,1.0,6,0.1208882058515612
8.415,0.33668953221163944,82.0337334377467,0,60,1.0,6,0.10667608088815775
8.42,0.3182994390982644,81.71034347243264,0,60,1.0,6,0.09906690523370919
8.425,0.29854265738230645,81.60583753471548,0,60,1.0,6,0.09660794199330533
8.43,0.2778057157821067,81.66667643687869,0,60,1.0,6,0.0980394455736162
8.435,0.2564721553719815,81.84876988678565,0,60,1.0,7,0.10232399733613286
8.44,0.23491109433464996,82.11724772973115,0,60,1.0,7,0.10864112305249758
8.445,0.21346717185309805,82.44533609838746,0,60,1.0,7,0.11636084937382253
8.45,0.19245222055656455,82.81282786982345,0,60,1.0,7,0.1250077145840812
8.455,0.17213889801761392,83.2045024139376,0,60,1.0,7,0.13422358621029656
8.46,0.15275638501270183,83.60871282730876,0,60,1.0,7,0.14373441946608856
8.465,0.13448814019607322,84.01624472320185,0,60,1.0,7,0.15332340525180826
8.47,0.11747159495449566,84.41946941505593,0,60,1.0,7,0.1628110450601395
8.475,0.10179958433370105,84.81176549258696,0,60,1.0,7,0.17204154100204605
8.48,0.08752324394101413,85.18715992974894,0,60,1.0,7,0.18087435128821044
8.485,0.07465606047174059,85.54013465057005,0,60,1.0,7,0.18917963883694242
8.49,0.0631787448609295,85.86554926666517,0,60,1.0,7,0.1968364533332981
8.495,0.05304460019959574,86.1586397512219,0,60,1.0,7,0.20373270002875055
8.5,0.044185078305849994,86.41506250951961,0,60,1.0,7,0.20976617669457917
8.505,0.03651525513023255,86.6309617919093,0,60,1.0,7,0.2148461598096306
8.51,0.0299390014708757,86.80304503126104,0,60,1.0,7,0.21889517720614202
8.515,0.024353677220580638,86.92865552465399,0,60,1.0,7,0.22185071822715272
8.52,0.01965423034339045,87.00583527328615,0,60,1.0,7,0.22366671231261534
8.525,0.015736632374757337,87.03337316307264,0,60,1.0,7,0.22431466266053268
8.53,0.012500627640593535,87.01083537210316,0,60,1.0,7,0.22378436169654492
8.535,0.009851811652115898,86.938576193165,0,60,1.0,7,0.22208414572152954
8.54,0.007703084175428559,86.81772852740197,0,60,1.0,7,0.2192406712329875
8.545,0.005975544002062424,86.65017423074696,0,60,1.0,7,0.21529821719404602
8.55,0.004598905818663047,86.43849531771997,0,60,1.0,7,0.2103175368875287
8.555,0.0035115256454839104,86.18590775527554,0,60,1.0,7,0.20437430012413027
8.56,0.002660121266303676,85.8961802035904,0,60,1.0,7,0.19755718126095068
8.565,0.0019992692560877024,85.57354056557351,0,60,1.0,7,0.1899656603664355
8.57,0.0014907520044639367,85.22257357723743,0,60,1.0,7,0.1817076135820571
8.575,0.0011028178277539807,84.84811289585821,0,60,1.0,7,0.17289677402019313
8.58,0.0008094059938923333,84.4551312173353,0,60,1.0,7,0.16365014629024252
8.585,0.0005893771793717645,84.04863188079896,0,60,1.0,7,0.15408545601879917
8.59,0.0004257792353490551,83.63354520691325,0,60,1.0,7,0.1443187107509001
8.595,0.0003051686392901525,83.21463248261027,0,60,1.0,7,0.13446194076730048
8.6,0.00021699992642659966,82.79640007066425,0,60,1.0,7,0.12462117813327642
8.605,0.00015308884054097838,82.38302561301214,0,60,1.0,7,0.11489472030616793
8.61,0.00010714989329311098,81.97829773979932,0,60,1.0,7,0.1053717115246898
8.615,7.440535854020571e-05,81.58557012016932,0,60,1.0,7,0.09613106165104288
8.62,5.1260276743925106e-05,81.20773012323724,0,60,1.0,7,0.08724070878205271
8.625,3.503659887882241e-05,80.84718182348887,0,60,1.0,7,0.07875721937620864
8.63,2.375894748103639e-05,80.50584260541186,0,60,1.0,7,0.07072570836263192
8.635,1.5984413869232557e-05,80.18515221437653,0,60,1.0,7,0.06318005210297717
8.64,1.0669166579899869e-05,79.88609277648273,0,60,1.0,7,0.05614335944665239
8.645,7.06526633560511e-06,79.60921807587849,0,60,1.0,7,0.0496286606089056
8.65,4.641847214699205e-06,79.35469023543456,0,60,1.0,7,0.04363977024551907
8.655,3.025641074479182e-06,79.12232189244838,0,60,1.0,7,0.03817227982231489
8.66,1.9566278676921314e-06,78.91162198804986,0,60,1.0,7,0.03321463501293786
8.665,1.2553456560008793e-06,78.72184338679695,0,60,1.0,7,0.02874925615992819
8.67,7.990660428214668e-07,78.55203069891354,0,60,1.0,7,0.024753663503848014
8.675,5.046221251618276e-07,78.4010668777479,0,60,1.0,7,0.021201573594068095
8.68,3.1616527078858815e-07,78.2677173949188,0,60,1.0,7,0.018063938703971872
8.685,1.9652884407760343e-07,78.15067104128426,0,60,1.0,7,0.015309906853747179
8.69,1.2120002189836396e-07,78.04857665043636,0,60,1.0,7,0.012907685892620226
8.695,7.415549848886236e-08,77.96007528166045,0,60,1.0,7,0.010825300744951792
8.7,4.501406988770349e-08,77.88382762196936,0,60,1.0,7,0.009031238163984934
8.705,0.0,77.81853656491259,0,60,1.0,7,0.007494977997943325
8.71,0.0,77.76296509259281,0,60,1.0,7,0.006187413943360177
8.715,0.0,77.71594972407637,0,60,1.0,7,0.005081169978267459
8.72,0.0,77.6764098974902,0,60,1.0,7,0.004150821117416533
8.725,0.0,77.64335372555104,0,60,1.0,7,0.003373028836494996
8.73,0.0,77.61588060740796,0,60,1.0,7,0.0027266025272461
8.735,0.0,77.59318119681424,0,60,1.0,7,0.002192498748570415
8.74,0.0,77.5745352217389,0,60,1.0,7,0.001753769923268197
8.745,0.0,77.55930762785665,0,60,1.0,7,0.0013954735966271582
8.75,0.0,77.54694348223622,0,60,1.0,7,0.001104552523205083
8.755,0.0,77.53696202809876,0,60,1.0,7,0.0008696947787942623
8.76,0.0,77.52895023050213,0,60,1.0,7,0.0006811818941678345
8.765,0.0,77.52255609948452,0,60,1.0,7,0.0005307317525768988
8.77,0.0,77.5174820242859,0,60,1.0,7,0.0004113417479034604
8.775,0.0,77.51347830188524,0,60,1.0,7,0.0003171365149468971
8.78,0.0,77.51033699680363,0,60,1.0,7,0.00024322345420306889
8.785,0.0,77.50788622796446,0,60,1.0,7,0.00018555830504617596
8.79,0.0,77.50598494293993,0,60,1.0,7,0.00014082218682193236
8.795,0.0,77.50451821032726,0,60,1.0,7,0.00010631083122970107
8.8,0.0,77.50339303715964,0,60,1.0,7,7.983616846211268e-05
8.805,0.0,77.50253469979884,0,60,1.0,7,5.963999526690767e-05
8.81,0.0,77.50188356315793,0,60,1.0,7,4.431913312781516e-05
8.815,0.0,77.5013923537419,0,60,1.0,7,3.276126451543646e-05
8.82,0.0,77.501023846212,0,60,1.0,7,2.4090499105715722e-05
8.825,0.0,77.50074892031576,0,60,1.0,7,1.7621654488413484e-05
