Time,ECG,Pressure,R_Peaks,mean_hr,hrv_scale,Phase_Bin,Normalized_Pressure
0.0,0.001684486749771458,77.5,0,60,1.0,0,0.0
0.005,0.003097557930867117,77.5,0,60,1.0,0,0.0
0.01,0.005475106668887023,77.5,0,60,1.0,0,0.0
0.015,0.00930222931468658,77.5,0,60,1.0,0,0.0
0.02,0.01519157517868857,77.5,0,60,1.0,0,0.0
0.025,0.023847336626128316,77.5,0,60,1.0,0,0.0
0.03,0.0359830743700859,77.5,0,60,1.0,0,0.0
0.035,0.05218887796857759,77.5,0,60,1.0,0,0.0
0.04,0.0727577001223134,77.5,0,60,1.0,0,0.0
0.045,0.0974992498694751,77.5,0,60,1.0,0,0.0
0.05,0.12558706050443358,77.5,0,60,1.0,0,0.0
0.055,0.15549263588878245,77.5,0,60,1.0,0,0.0
0.06,0.1850529723539114,77.5,0,60,1.0,0,0.0
0.065,0.21169159439317053,77.5,0,60,1.0,0,0.0
0.07,0.23277292922115492,77.5,0,60,1.0,0,0.0
0.075,0.24602692519491282,77.5,0,60,1.0,0,0.0
0.08,0.24995056064839283,77.5,0,60,1.0,0,0.0
0.085,0.24408826520424054,77.5,0,60,1.0,0,0.0
0.09,0.22911894216865275,77.5,0,60,1.0,0,0.0
0.095,0.20672661788705934,77.5,0,60,1.0,0,0.0
0.1,0.17928878030241233,77.5,0,60,1.0,0,0.0
0.105,0.14946211903866036,77.5,0,60,1.0,0,0.0
0.11,0.1197651512573837,77.5,0,60,1.0,0,0.0
0.115,0.09224675744988023,77.5,0,60,1.0,0,0.0
0.12,0.06829565320281596,77.5,0,60,1.0,0,0.0
0.125,0.04860224607515734,77.5,0,60,1.0,0,0.0
0.13,0.03324612389699793,77.5,0,60,1.0,0,0.0
0.135,0.021859876340472782,77.5,0,60,1.0,0,0.0
0.14,0.01381595518554205,77.5,0,60,1.0,0,0.0
0.145,0.008394095110402422,77.5,0,60,1.0,0,0.0
0.15,0.0049052535271608,77.5,0,60,1.0,0,0.0
0.155,0.0027671663551903634,77.5,0,60,1.0,0,0.0
0.16,0.0015425553464444616,77.5,0,60,1.0,0,0.0
0.165,0.0009638206637011801,77.5,0,60,1.0,0,0.0
0.17,0.0009804935156568228,77.5,0,60,1.0,0,0.0
0.175,0.0018793744894085216,77.5,0,60,1.0,0,0.0
0.18,0.004535525206900863,77.5,0,60,1.0,0,0.0
0.185,0.010832767979632273,77.5,0,60,1.0,0,0.0
0.19,0.024208003392322392,77.5,0,60,1.0,0,0.0
0.195,0.0500971897335304,77.5,0,60,1.0,0,0.0
0.2,0.09582894921774403,77.5,0,60,1.0,0,0.0
0.205,0.16937896721820658,77.5,0,60,1.0,0,0.0
0.21,0.27661303008991756,77.5,0,60,1.0,0,0.0
0.215,0.4173782800009149,77.5,0,60,1.0,0,0.0
0.22,0.5818720934538056,77.5,0,60,1.0,0,0.0
0.225,0.7494718801585675,77.5,0,60,1.0,0,0.0
0.23,0.891813020752378,77.5,0,60,1.0,0,0.0
0.235,0.9800361632936612,77.5,0,60,1.0,0,0.0
0.24,0.993574479225126,77.5,0,60,1.0,0,0.0
0.245,0.9263438449375362,77.5,0,60,1.0,0,0.0
0.25,0.7873015962290536,77.5,0,60,1.0,0,0.0
0.255,0.5959516244629897,77.5,0,60,1.0,0,0.0
0.26,0.376910120078773,77.5,0,60,1.0,0,0.0
0.265,0.15739335672107918,77.5,0,60,1.0,0,0.0
0.27,-0.033361226269301235,77.5,0,60,1.0,0,0.0
0.275,-0.1680180840843834,77.5,0,60,1.0,0,0.0
0.28,-0.23069703190837854,77.5,0,60,1.0,0,0.0
0.285,-0.22587267821131068,77.5,0,60,1.0,0,0.0
0.29,-0.17718181630665902,77.5,0,60,1.0,0,0.0
0.295,-0.11494332516451301,77.5,0,60,1.0,0,0.0
0.3,-0.061810214049552864,77.5,0,60,1.0,0,0.0
0.305,-0.026546104631500547,77.5,0,60,1.0,0,0.0
0.31,-0.00719600351942686,77.5,0,60,1.0,0,0.0
0.315,0.0022072757983807078,77.5,0,60,1.0,0,0.0
0.32,0.006917199873730717,77.5,0,60,1.0,0,0.0
0.325,0.01004859748264829,77.5,0,60,1.0,0,0.0
0.33,0.013037082251128167,77.5,0,60,1.0,0,0.0
0.335,0.01645163937690478,77.5,0,60,1.0,0,0.0
0.34,0.020526639934696615,77.5,0,60,1.0,0,0.0
0.345,0.02539629541761738,77.5,0,60,1.0,0,0.0
0.35,0.031171612185577933,77.5,0,60,1.0,0,0.0
0.355,0.03795853426638131,77.5,0,60,1.0,0,0.0
0.36,0.0458588961882057,77.5,0,60,1.0,0,0.0
0.365,0.054966995891435555,77.5,0,60,1.0,0,0.0
0.37,0.06536491004445595,77.5,0,60,1.0,0,0.0
0.375,0.07711726085088699,77.5,0,60,1.0,0,0.0
0.38,0.09026570629555215,77.5,0,60,1.0,0,0.0
0.385,0.10482339848670268,77.5,0,60,1.0,0,0.0
0.39,0.12076968927580028,77.5,0,60,1.0,0,0.0
0.395,0.13804539501007884,77.5,0,60,1.0,0,0.0
0.4,0.15654895051787066,77.5,0,60,1.0,0,0.0
0.405,0.17613378141900526,77.5,0,60,1.0,0,0.0
0.41,0.19660720058055794,77.5,0,60,1.0,0,0.0
0.415,0.21773108748496234,77.5,0,60,1.0,0,0.0
0.42,0.23922453870058807,77.5,0,60,1.0,0,0.0
0.425,0.2607685857914563,77.5,0,60,1.0,0,0.0
0.43,0.2820129681603682,77.5,0,60,1.0,0,0.0
0.435,0.30258482867153996,77.5,0,60,1.0,0,0.0
0.44,0.3220990771751686,77.5,0,60,1.0,0,0.0
0.445,0.3401700499968971,77.5,0,60,1.0,0,0.0
0.45,0.3564239911198326,77.5,0,60,1.0,0,0.0
0.455,0.3705118017738417,77.5,0,60,1.0,0,0.0
0.46,0.3821214567925213,77.5,0,60,1.0,0,0.0
0.465,0.39098947374066967,77.5,0,60,1.0,0,0.0
0.47,0.3969108472035567,77.5,0,60,1.0,0,0.0
0.475,0.3997469255491936,77.5,0,60,1.0,0,0.0
0.48,0.3994308076379137,77.5,0,60,1.0,0,0.0
0.485,0.3959699661768434,77.5,0,60,1.0,0,0.0
0.49,0.38944595408114946,77.5,0,60,1.0,0,0.0
0.495,0.38001120995358023,77.5,0,60,1.0,0,0.0
0.5,0.3678831374098315,77.5,0,60,1.0,0,0.0
0.505,0.35333577933796634,77.5,0,60,1.0,0,0.0
0.51,0.33668953221163944,77.5,0,60,1.0,0,0.0
0.515,0.3182994390982644,77.5,0,60,1.0,0,0.0
0.52,0.29854265738230645,77.5,0,60,1.0,0,0.0
0.525,0.2778057157821067,77.5,0,60,1.0,0,0.0
0.53,0.2564721553719815,77.5,0,60,1.0,0,0.0
0.535,0.23491109433464996,77.5,0,60,1.0,0,0.0
0.54,0.21346717185309805,77.5,0,60,1.0,0,0.0
0.545,0.19245222055656455,77.5,0,60,1.0,0,0.0
0.55,0.17213889801761392,77.5,0,60,1.0,0,0.0
0.555,0.15275638501270183,77.5,0,60,1.0,0,0.0
0.56,0.13448814019607322,77.5,0,60,1.0,0,0.0
0.565,0.11747159495449566,77.5,0,60,1.0,0,0.0
0.57,0.10179958433370105,77.5,0,60,1.0,0,0.0
0.575,0.08752324394101413,77.5,0,60,1.0,0,0.0
0.58,0.07465606047174059,77.5,0,60,1.0,0,0.0
0.585,0.0631787448609295,77.5,0,60,1.0,0,0.0
0.59,0.05304460019959574,77.5,0,60,1.0,0,0.0
0.595,0.044185078305849994,77.5,0,60,1.0,0,0.0
0.6,0.03651525513023255,77.5,0,60,1.0,0,0.0
0.605,0.0299390014708757,77.5,0,60,1.0,0,0.0
0.61,0.024353677220580638,77.5,0,60,1.0,0,0.0
0.615,0.01965423034339045,77.5,0,60,1.0,0,0.0
0.62,0.015736632374757337,77.5,0,60,1.0,0,0.0
0.625,0.012500627640593535,77.5,0,60,1.0,0,0.0
0.63,0.009851811652115898,77.5,0,60,1.0,0,0.0
0.635,0.007703084175428559,77.5,0,60,1.0,0,0.0
0.64,0.005975544002062424,77.5,0,60,1.0,0,0.0
0.645,0.004598905818663047,77.5,0,60,1.0,0,0.0
0.65,0.0035115256454839104,77.5,0,60,1.0,0,0.0
0.655,0.002660121266303676,77.5,0,60,1.0,0,0.0
0.66,0.0019992692560877024,77.5,0,60,1.0,0,0.0
0.665,0.0014907520044639367,77.5,0,60,1.0,0,0.0
0.67,0.0011028178277539807,77.5,0,60,1.0,0,0.0
0.675,0.0008094059938923333,77.5,0,60,1.0,0,0.0
0.68,0.0005893771793717645,77.5,0,60,1.0,0,0.0
0.685,0.0004257792353490551,77.5,0,60,1.0,0,0.0
0.69,0.0003051686392901525,77.5,0,60,1.0,0,0.0
0.695,0.00021699992642659966,77.5,0,60,1.0,0,0.0
0.7,0.00015308884054097838,77.5,0,60,1.0,0,0.0
0.705,0.00010714989329311098,77.5,0,60,1.0,0,0.0
0.71,7.440535854020571e-05,77.5,0,60,1.0,0,0.0
0.715,5.1260276743925106e-05,77.5,0,60,1.0,0,0.0
0.72,3.503659887882241e-05,77.5,0,60,1.0,0,0.0
0.725,2.375894748103639e-05,77.5,0,60,1.0,0,0.0
0.73,1.5984413869232557e-05,77.5,0,60,1.0,0,0.0
0.735,1.0669166579899869e-05,77.5,0,60,1.0,0,0.0
0.74,7.06526633560511e-06,77.5,0,60,1.0,0,0.0
0.745,4.641847214699205e-06,77.5,0,60,1.0,0,0.0
0.75,3.025641074479182e-06,77.5,0,60,1.0,0,0.0
0.755,1.9566278676921314e-06,77.5,0,60,1.0,0,0.0
0.76,1.2553456560008793e-06,77.5,0,60,1.0,0,0.0
0.765,7.990660428214668e-07,77.5,0,60,1.0,0,0.0
0.77,5.046221251618276e-07,77.5,0,60,1.0,0,0.0
0.775,3.1616527078858815e-07,77.5,0,60,1.0,0,0.0
0.78,1.9652884407760343e-07,77.5,0,60,1.0,0,0.0
0.785,1.2120002189836396e-07,77.5,0,60,1.0,0,0.0
0.79,7.415549848886236e-08,77.5,0,60,1.0,0,0.0
0.795,4.501406988770349e-08,77.5,0,60,1.0,0,0.0
0.8,0.0,77.5,0,60,1.0,0,0.0
0.805,0.0,77.5,0,60,1.0,0,0.0
0.81,0.0,77.5,0,60,1.0,0,0.0
0.815,0.0,77.5,0,60,1.0,0,0.0
0.82,0.0,77.5,0,60,1.0,0,0.0
0.825,0.0,77.5,0,60,1.0,0,0.0
0.83,0.0,77.5,0,60,1.0,0,0.0
0.835,0.0,77.5,0,60,1.0,0,0.0
0.84,0.0,77.5,0,60,1.0,0,0.0
0.845,0.0,77.5,0,60,1.0,0,0.0
0.85,0.0,77.5,0,60,1.0,0,0.0
0.855,0.0,77.5,0,60,1.0,0,0.0
0.86,0.0,77.5,0,60,1.0,0,0.0
0.865,0.0,77.5,0,60,1.0,0,0.0
0.87,0.0,77.5,0,60,1.0,0,0.0
0.875,0.0,77.5,0,60,1.0,0,0.0
0.88,0.0,77.5,0,60,1.0,0,0.0
0.885,0.0,77.5,0,60,1.0,0,0.0
0.89,0.0,77.5,0,60,1.0,0,0.0
0.895,0.0,77.5,0,60,1.0,0,0.0
0.9,0.0,77.5,0,60,1.0,0,0.0
0.905,0.0,77.5,0,60,1.0,0,0.0
0.91,0.0,77.5,0,60,1.0,0,0.0
0.915,0.0,77.5,0,60,1.0,0,0.0
0.92,0.0,77.5,0,60,1.0,0,0.0
0.925,0.0,77.5,0,60,1.0,0,0.0
0.93,0.0,77.5,0,60,1.0,0,0.0
0.935,0.0,77.5,0,60,1.0,0,0.0
0.94,0.0,77.5,0,60,1.0,0,0.0
0.945,0.0,77.5,0,60,1.0,0,0.0
0.95,0.0,77.5,0,60,1.0,0,0.0
0.955,0.0,77.5,0,60,1.0,0,0.0
0.96,0.0,77.5,0,60,1.0,0,0.0
0.965,0.0,77.5,0,60,1.0,0,0.0
0.97,0.0,77.5,0,60,1.0,0,0.0
0.975,0.0,77.5,0,60,1.0,0,0.0
0.98,0.0,77.5,0,60,1.0,0,0.0
0.985,0.0,77.5,0,60,1.0,0,0.0
0.99,0.0,77.5,0,60,1.0,0,0.0
0.995,0.0,77.5,0,60,1.0,0,0.0
1.0,0.0,77.5,0,60,1.0,0,0.0
1.005,0.0,77.5,0,60,1.0,0,0.0
1.01,0.001684486749771458,77.5,0,60,1.0,0,0.0
1.015,0.003097557930867117,77.5,0,60,1.0,0,0.0
1.02,0.005475106668887023,77.5,0,60,1.0,0,0.0
1.025,0.00930222931468658,77.5,0,60,1.0,0,0.0
1.03,0.01519157517868857,77.5,0,60,1.0,0,0.0
1.035,0.023847336626128316,77.5,0,60,1.0,0,0.0
1.04,0.0359830743700859,77.5,0,60,1.0,0,0.0
1.045,0.05218887796857759,77.5,0,60,1.0,0,0.0
1.05,0.0727577001223134,77.5,0,60,1.0,0,0.0
1.055,0.0974992498694751,77.5,0,60,1.0,0,0.0
1.06,0.12558706050443358,77.5,0,60,1.0,0,0.0
1.065,0.15549263588878245,77.5,0,60,1.0,0,0.0
1.07,0.1850529723539114,77.5,0,60,1.0,0,0.0
1.075,0.21169159439317053,77.5,0,60,1.0,0,0.0
1.08,0.23277292922115492,77.5,0,60,1.0,0,0.0
1.085,0.24602692519491282,77.5,0,60,1.0,0,0.0
1.09,0.24995056064839283,77.5,0,60,1.0,0,0.0
1.095,0.24408826520424054,77.5,0,60,1.0,0,0.0
1.1,0.22911894216865275,77.5,0,60,1.0,0,0.0
1.105,0.20672661788705934,77.5,0,60,1.0,0,0.0
1.11,0.17928878030241233,77.5,0,60,1.0,0,0.0
1.115,0.14946211903866036,77.5,0,60,1.0,0,0.0
1.12,0.1197651512573837,77.5,0,60,1.0,0,0.0
1.125,0.09224675744988023,77.5,0,60,1.0,0,0.0
1.13,0.06829565320281596,77.5,0,60,1.0,0,0.0
1.135,0.04860224607515734,77.5,0,60,1.0,0,0.0
1.14,0.03324612389699793,77.5,0,60,1.0,0,0.0
1.145,0.021859876340472782,77.5,0,60,1.0,0,0.0
1.15,0.01381595518554205,77.5,0,60,1.0,0,0.0
1.155,0.008394095110402422,77.5,0,60,1.0,0,0.0
1.16,0.0049052535271608,77.5,0,60,1.0,0,0.0
1.165,0.0027671663551903634,77.5,0,60,1.0,0,0.0
1.17,0.0015425553464444616,77.5,0,60,1.0,0,0.0
1.175,0.0009638206637011801,77.5,0,60,1.0,0,0.0
1.18,0.0009804935156568228,77.5,0,60,1.0,0,0.0
1.185,0.0018793744894085216,77.5,0,60,1.0,0,0.0
1.19,0.004535525206900863,77.5,0,60,1.0,0,0.0
1.195,0.010832767979632273,77.5,0,60,1.0,0,0.0
1.2,0.024208003392322392,77.5,0,60,1.0,0,0.0
1.205,0.0500971897335304,77.5,0,60,1.0,1,0.0
1.21,0.09582894921774403,77.5,0,60,1.0,1,0.0
1.215,0.16937896721820658,77.5,0,60,1.0,1,0.0
1.22,0.27661303008991756,77.5,0,60,1.0,1,0.0
1.225,0.4173782800009149,77.5,0,60,1.0,1,0.0
1.23,0.5818720934538056,77.5,0,60,1.0,1,0.0
1.235,0.7494718801585675,77.5,0,60,1.0,1,0.0
1.24,0.891813020752378,77.5,0,60,1.0,1,0.0
1.245,0.9800361632936612,77.5,0,60,1.0,1,0.0
1.25,0.993574479225126,77.50000249379623,1,60,1.0,1,5.8677558372972485e-08
1.255,0.9263438449375362,77.50000382794776,0,60,1.0,1,9.006935917622125e-08
1.26,0.7873015962290536,77.50000600036053,0,60,1.0,1,1.4118495361050436e-07
1.265,0.5959516244629897,77.50000970943701,0,60,1.0,1,2.2845734138975198e-07
1.27,0.376910120078773,77.5000163868594,0,60,1.0,1,3.8557316235496463e-07
1.275,0.15739335672107918,77.50002902423199,0,60,1.0,1,6.829231056947131e-07
1.28,-0.033361226269301235,77.50005389476512,0,60,1.0,1,1.268112120388811e-06
1.285,-0.1680180840843834,77.50010404947875,0,60,1.0,1,2.4482230294191086e-06
1.29,-0.23069703190837854,77.50020622040319,0,60,1.0,1,4.852244780843595e-06
1.295,-0.22587267821131068,77.50041404783398,0,60,1.0,1,9.742301976115521e-06
1.3,-0.17718181630665902,77.50083263801669,0,60,1.0,1,1.959148274562829e-05
1.305,-0.11494332516451301,77.50166268015035,0,60,1.0,1,3.912188589050161e-05
1.31,-0.061810214049552864,77.5032770278292,0,60,1.0,1,7.710653715762687e-05
1.315,-0.026546104631500547,77.50634895429774,0,60,1.0,1,0.0001493871599467077
1.32,-0.00719600351942686,77.5120590120072,0,60,1.0,1,0.0002837414589929294
1.325,0.0022072757983807078,77.52241562190353,0,60,1.0,1,0.0005274263977302032
1.33,0.006917199873730717,77.54073109806174,0,60,1.0,1,0.0009583787779233182
1.335,0.01004859748264829,77.57229617891642,0,60,1.0,1,0.0017010865627392323
1.34,0.013037082251128167,77.62528706971409,0,60,1.0,1,0.0029479310520962505
1.345,0.01645163937690478,77.7119131132812,0,60,1.0,1,0.004986190900734086
1.35,0.020526639934696615,77.84976424958334,0,60,1.0,1,0.008229747049019874
1.355,0.02539629541761738,78.06324165455797,0,60,1.0,1,0.013252744813128709
1.36,0.031171612185577933,78.38485440731901,0,60,1.0,1,0.020820103701623793
1.365,0.03795853426638131,78.85605110071748,0,60,1.0,1,0.031907084722764226
1.37,0.0458588961882057,79.52715125776614,0,60,1.0,1,0.047697676653320836
1.375,0.054966995891435555,80.45588226229052,0,60,1.0,1,0.06955017087742389
1.38,0.06536491004445595,81.70405544530206,0,60,1.0,1,0.09891895165416613
1.385,0.07711726085088699,83.33206946519013,0,60,1.0,1,0.1372251638868266
1.39,0.09026570629555215,85.39123254573106,0,60,1.0,1,0.1856760598995543
1.395,0.10482339848670268,87.9143369512103,0,60,1.0,1,0.24504322238141887
1.4,0.12076968927580028,90.90544393360824,0,60,1.0,1,0.3154222102025468
1.405,0.13804539501007884,94.33034336266256,0,60,1.0,1,0.396008079121472
1.41,0.15654895051787066,98.10950421064753,0,60,1.0,1,0.4849295108387654
1.415,0.17613378141900526,102.11539119616134,0,60,1.0,1,0.5791856752037963
1.42,0.19660720058055794,106.17568759500095,0,60,1.0,1,0.6747220610588459
1.425,0.21773108748496234,110.08321153763839,0,60,1.0,1,0.7666638008856091
1.43,0.23922453870058807,113.61222628224048,0,60,1.0,1,0.8496994419350702
1.435,0.2607685857914563,116.53961398056285,0,60,1.0,1,0.9185791524838317
1.44,0.2820129681603682,118.66827111065578,0,60,1.0,1,0.9686652026036654
1.445,0.30258482867153996,119.84936740314373,0,60,1.0,1,0.9964557036033819
1.45,0.3220990771751686,120.0,0,60,1.0,1,1.0
1.455,0.3401700499968971,119.11335164043977,0,60,1.0,1,0.9791376856574064
1.46,0.3564239911198326,117.2596422087817,0,60,1.0,1,0.9355209931478047
1.465,0.3705118017738417,114.57771066593102,0,60,1.0,1,0.8724167215513182
1.47,0.3821214567925213,111.25864733544083,0,60,1.0,1,0.7943211137750783
1.475,0.39098947374066967,107.52417358062645,0,60,1.0,1,0.7064511430735636
1.48,0.3969108472035567,103.60317581973628,0,60,1.0,1,0.614192372229089
1.485,0.3997469255491936,99.70982687224779,0,60,1.0,1,0.5225841616999479
1.49,0.3994308076379137,96.02611916232044,0,60,1.0,1,0.43590868617224565
1.495,0.3959699661768434,92.69058107724302,0,60,1.0,1,0.3574254371116006
1.5,0.38944595408114946,89.79371843965717,0,60,1.0,1,0.28926396328605103
1.505,0.38001120995358023,87.37958938048318,0,60,1.0,1,0.2324609265996043
1.51,0.3678831374098315,85.45209135214775,0,60,1.0,1,0.1871080318152411
1.515,0.35333577933796634,83.98411918621723,0,60,1.0,1,0.15256751026393478
1.52,0.33668953221163944,82.92773974008752,0,60,1.0,1,0.12771152329617688
1.525,0.3182994390982644,82.22383282330381,0,60,1.0,1,0.11114900760714845
1.53,0.29854265738230645,81.81013488536829,0,60,1.0,1,0.10141493847925377
1.535,0.2778057157821067,81.62715266498432,0,60,1.0,1,0.09710947447021935
1.54,0.2564721553719815,81.62187846806819,0,60,1.0,1,0.09698537571925152
1.545,0.23491109433464996,81.74957199839405,0,60,1.0,1,0.09998992937397755
1.55,0.21346717185309805,81.9740569196691,0,60,1.0,1,0.10527192752162577
1.555,0.19245222055656455,82.2670305887381,0,60,1.0,1,0.11216542561736693
1.56,0.17213889801761392,82.6068399772209,0,60,1.0,1,0.12016094064049178
1.565,0.15275638501270183,82.97707830332679,0,60,1.0,1,0.12887243066651274
1.57,0.13448814019607322,83.36524231629802,0,60,1.0,1,0.13800570155995348
1.575,0.11747159495449566,83.76158527846451,0,60,1.0,1,0.14733141831681196
1.58,0.10179958433370105,84.15821910240557,0,60,1.0,1,0.156663978880131
1.585,0.08752324394101413,84.54846447631488,0,60,1.0,1,0.16584622297211474
1.59,0.07465606047174059,84.92641729835339,0,60,1.0,1,0.17473923054949142
1.595,0.0631787448609295,85.2866873918496,0,60,1.0,1,0.18321617392587286
1.6,0.05304460019959574,85.6242648120442,0,60,1.0,1,0.19115917204809887
1.605,0.044185078305849994,85.93447459191242,0,60,1.0,1,0.19845822569205693
1.61,0.03651525513023255,86.21298860076058,0,60,1.0,1,0.20501149648848427
1.615,0.0299390014708757,86.45587095455626,0,60,1.0,1,0.21072637540132377
1.62,0.024353677220580638,86.65963999461131,0,60,1.0,1,0.2155209410496779
1.625,0.01965423034339045,86.82133492105665,0,60,1.0,1,0.21932552755427404
1.63,0.015736632374757337,86.93857885017128,0,60,1.0,1,0.2220842082393243
1.635,0.012500627640593535,87.00963266008729,0,60,1.0,1,0.2237560625902892
1.64,0.009851811652115898,87.03343582049601,0,60,1.0,1,0.2243161369528473
1.645,0.007703084175428559,87.00963173891398,0,60,1.0,1,0.2237560409156231
1.65,0.005975544002062424,86.938576193165,0,60,1.0,1,0.22208414572152954
1.655,0.004598905818663047,86.82132827999462,0,60,1.0,1,0.219325371293991
1.66,0.0035115256454839104,86.65962406044066,0,60,1.0,1,0.2155205661280156
1.665,0.002660121266303676,86.45583375264079,0,60,1.0,1,0.21072550006213614
1.67,0.0019992692560877024,86.21290391749133,0,60,1.0,1,0.2050095039409725
1.675,0.0014907520044639367,85.93428659481444,0,60,1.0,1,0.19845380223092796
1.68,0.0011028178277539807,85.62385776540609,0,60,1.0,1,0.1911495944801432
1.685,0.0008094059938923333,85.28582782555713,0,60,1.0,1,0.18319594883663848
1.69,0.0005893771793717645,84.92464695644118,0,60,1.0,1,0.17469757544567482
1.695,0.0004257792353490551,84.54490834692771,0,60,1.0,1,0.1657625493394756
1.7,0.0003051686392901525,84.1512521860989,0,60,1.0,1,0.1565000514376212
1.705,0.00021699992642659966,83.74827318768754,0,60,1.0,1,0.14701819265147165
1.71,0.00015308884054097838,83.34043415451329,0,60,1.0,1,0.13742198010619505
1.715,0.00010714989329311098,82.93198775273756,0,60,1.0,1,0.1278114765350013
1.72,7.440535854020571e-05,82.52690826257488,0,60,1.0,1,0.11828019441352654
1.725,5.1260276743925106e-05,82.12883462523583,0,60,1.0,1,0.10891375588790177
1.73,3.503659887882241e-05,81.74102563739208,0,60,1.0,1,0.09978883852687258
1.735,2.375894748103639e-05,81.36632767600855,0,60,1.0,1,0.09097241590608358
1.74,1.5984413869232557e-05,81.00715488812935,0,60,1.0,1,0.08252129148539646
1.745,1.0669166579899869e-05,80.66548136982472,0,60,1.0,1,0.07448191458411102
1.75,7.06526633560511e-06,80.34284450049499,0,60,1.0,1,0.06689045883517625
1.755,4.641847214699205e-06,80.04035830388436,0,60,1.0,1,0.059773136561984956
1.76,3.025641074479182e-06,79.75873548233507,0,60,1.0,1,0.0531467172314134
1.765,1.9566278676921314e-06,79.4983166189272,0,60,1.0,1,0.04701921456299307
1.77,1.2553456560008793e-06,79.25910496239372,0,60,1.0,1,0.04139070499749932
1.775,7.990660428214668e-07,79.04080519796145,0,60,1.0,1,0.03625423995203405
1.78,5.046221251618276e-07,78.84286465667756,0,60,1.0,1,0.03159681545123677
1.785,3.1616527078858815e-07,78.66451551736972,0,60,1.0,1,0.02740036511458169
1.79,1.9652884407760343e-07,78.50481669878073,0,60,1.0,1,0.023642745853664215
1.795,1.2120002189836396e-07,78.36269431353409,0,60,1.0,1,0.020298689730213936
1.8,7.415549848886236e-08,78.23697974928406,0,60,1.0,1,0.01734069998315436
1.805,4.501406988770349e-08,78.12644464506172,0,60,1.0,1,0.014739874001452335
1.81,0.0,78.02983223281902,0,60,1.0,1,0.012466640772212191
1.815,0.0,77.94588470720849,0,60,1.0,1,0.010491404875493934
1.82,0.0,77.87336646401664,0,60,1.0,1,0.008785093270979788
1.825,0.0,77.81108320437647,0,60,1.0,1,0.00731960480885819
1.83,0.0,77.75789703460497,0,60,1.0,1,0.006068165520116843
1.835,0.0,77.7127377985272,0,60,1.0,1,0.0050055952594635425
1.84,0.0,77.67461096019198,0,60,1.0,1,0.0041084931809878605
1.845,0.0,77.64260241090227,0,60,1.0,1,0.003355350844759307
1.85,0.0,77.61588060740796,0,60,1.0,1,0.0027266025272461
1.855,0.0,77.5936964605813,0,60,1.0,1,0.0022046226019129147
1.86,0.0,77.57538138902093,0,60,1.0,1,0.0017736797416690105
1.865,0.0,77.56034393314094,0,60,1.0,1,0.001419857250375103
1.87,0.0,77.5480652957481,0,60,1.0,1,0.0011309481352494754
1.875,0.0,77.53809413809743,0,60,1.0,1,0.0008963326611161151
1.88,0.0,77.53004091886824,0,60,1.0,1,0.0007068451498408944
1.885,0.0,77.52357201997987,0,60,1.0,1,0.0005546357642321495
1.89,0.0,77.51840385980424,0,60,1.0,1,0.0004330319953938295
1.895,0.0,77.51429715282914,0,60,1.0,1,0.0003364035959798591
1.9,0.0,77.51105143644553,0,60,1.0,1,0.00026003379871828174
1.905,0.0,77.5084999511344,0,60,1.0,1,0.0001999988502210967
1.91,0.0,77.50650493041393,0,60,1.0,1,0.0001530571862100019
1.915,0.0,77.50495333166883,0,60,1.0,1,0.00011654898044305221
1.92,0.0,77.50375301836885,0,60,1.0,1,8.830631456128364e-05
1.925,0.0,77.50282938794548,0,60,1.0,1,6.65738340113448e-05
1.93,0.0,77.5021224273595,0,60,1.0,1,4.9939467282242466e-05
1.935,0.0,77.50158416968905,0,60,1.0,1,3.7274580918900775e-05
1.94,0.0,77.50117651939523,0,60,1.0,1,2.7682809299529468e-05
1.945,0.0,77.5008694107589,0,60,1.0,1,2.0456723738708902e-05
1.95,0.0,77.50063926283588,0,60,1.0,1,1.5041478491184535e-05
1.955,0.0,77.50046769468173,0,60,1.0,1,1.1004580746617542e-05
1.96,0.0,77.50034046614508,0,60,1.0,1,8.010968119432458e-06
1.965,0.0,77.50024661186245,0,60,1.0,1,5.80263205767337e-06
1.97,0.0,77.50017773891317,0,60,1.0,1,4.182092074496027e-06
1.975,0.0,77.5001274616702,0,60,1.0,1,2.9990981224326627e-06
1.98,0.0,77.50009095052647,0,60,1.0,1,2.1400123875323246e-06
1.985,0.0,77.500064574248,0,60,1.0,1,1.5193940705959155e-06
1.99,0.0,77.50004561860754,0,60,1.0,1,1.0733790010336259e-06
1.995,0.0,77.50003206662257,0,60,1.0,1,7.545087662626483e-07
2.0,0.0,77.5000224281237,0,60,1.0,1,5.277205576369263e-07
2.005,0.0,77.50001560850087,0,60,1.0,1,3.6725884409433465e-07
2.01,0.0,77.50001080831444,0,60,1.0,1,2.5431328100132624e-07
2.015,0.001684486749771458,77.50000744703297,0,60,1.0,1,1.7522430519367096e-07
2.02,0.003097557930867117,77.50000510548624,0,60,1.0,1,1.2012908795815533e-07
2.025,0.005475106668887023,77.5000034827273,0,60,1.0,1,8.194652456736282e-08
2.03,0.00930222931468658,77.50000236390684,0,60,1.0,1,5.5621337517496775e-08
2.035,0.01519157517868857,77.50000159650313,0,60,1.0,1,3.7564779417794744e-08
2.04,0.023847336626128316,77.50000107284681,0,60,1.0,1,2.5243454448333496e-08
2.045,0.0359830743700859,77.50000071735509,0,60,1.0,1,1.6878943356727284e-08
2.05,0.05218887796857759,77.50000047726456,0,60,1.0,1,1.1229754443989162e-08
2.055,0.0727577001223134,77.5000003159459,0,60,1.0,1,7.4340211058905185e-09
2.06,0.0974992498694751,77.50000020811088,0,60,1.0,1,4.89672649617954e-09
2.065,0.12558706050443358,77.50000013639716,0,60,1.0,1,3.209344988456852e-09
2.07,0.15549263588878245,77.50000008894969,0,60,1.0,1,2.092933888942592e-09
2.075,0.1850529723539114,77.50000005771811,0,60,1.0,1,1.358073204220786e-09
2.08,0.21169159439317053,77.50000003726561,0,60,1.0,1,8.768378232643419e-10
2.085,0.23277292922115492,77.50000002394049,0,60,1.0,1,5.633055747346267e-10
2.09,0.24602692519491282,77.50000001530334,0,60,1.0,1,3.6007864925041384e-10
2.095,0.24995056064839283,77.50000000973347,0,60,1.0,1,2.2902280333629974e-10
2.1,0.24408826520424054,77.50000000615996,0,60,1.0,1,1.4494035253044465e-10
2.105,0.22911894216865275,77.50000000387898,0,60,1.0,1,9.127013393427821e-11
2.11,0.20672661788705934,77.50000000243044,0,60,1.0,1,5.718681998533772e-11
2.115,0.17928878030241233,77.50000000151523,0,60,1.0,1,3.565252668255091e-11
2.12,0.14946211903866036,77.50000000093995,0,60,1.0,1,2.2116436786531908e-11
2.125,0.1197651512573837,77.50000000058017,0,60,1.0,1,1.3651114225949106e-11
2.13,0.09224675744988023,77.50000000035632,0,60,1.0,1,8.38406990891706e-12
2.135,0.06829565320281596,77.50000000021774,0,60,1.0,1,5.123263904619414e-12
2.14,0.04860224607515734,77.5000000001324,0,60,1.0,1,3.1153537266244016e-12
2.145,0.03324612389699793,77.5000000000801,0,60,1.0,1,1.884860894813969e-12
2.15,0.021859876340472782,77.50000000004822,0,60,1.0,1,1.1345277658513034e-12
2.155,0.01381595518554205,77.50000000002889,0,60,1.0,1,6.797804149648394e-13
2.16,0.008394095110402422,77.50000000001721,0,60,1.0,1,4.049257661202265e-13
2.165,0.0049052535271608,77.5000000000102,0,60,1.0,1,2.4007985142388327e-13
2.17,0.0027671663551903634,77.50000000000603,0,60,1.0,1,1.4177417409989764e-13
2.175,0.0015425553464444616,77.50000000000354,0,60,1.0,1,8.325888997847762e-14
2.18,0.0009638206637011801,77.50000000000206,0,60,1.0,1,4.848409255774801e-14
2.185,0.0009804935156568228,77.5000000000012,0,60,1.0,1,2.808733637828161e-14
2.19,0.0018793744894085216,77.5000000000007,0,60,1.0,1,1.6384279553997603e-14
2.195,0.004535525206900863,77.5000000000004,0,60,1.0,1,9.362445459427202e-15
2.2,0.010832767979632273,77.50000000000023,0,60,1.0,1,5.349968833958401e-15
2.205,0.024208003392322392,77.50000000000013,0,60,1.0,1,3.0093574691016007e-15
2.21,0.0500971897335304,77.50000000000007,0,60,1.0,1,1.6718652606120004e-15
2.215,0.09582894921774403,77.50000000000004,0,60,1.0,1,1.0031191563672002e-15
2.22,0.16937896721820658,77.50000000000003,0,60,1.0,1,6.687461042448002e-16
2.225,0.27661303008991756,77.50000000000001,0,60,1.0,1,3.343730521224001e-16
2.23,0.4173782800009149,77.5,0,60,1.0,1,0.0
2.235,0.5818720934538056,77.5,0,60,1.0,1,0.0
2.24,0.7494718801585675,77.5,0,60,1.0,1,0.0
2.245,0.891813020752378,77.5,0,60,1.0,1,0.0
2.25,0.9800361632936612,77.5,0,60,1.0,1,0.0
2.255,0.993574479225126,77.50000249553136,1,60,1.0,1,5.871838498826358e-08
2.26,0.9263438449375362,77.5000037979206,0,60,1.0,1,8.936283761078598e-08
2.265,0.7873015962290536,77.50000589651982,0,60,1.0,1,1.387416429064187e-07
2.27,0.5959516244629897,77.5000094348155,0,60,1.0,1,2.2199565872891553e-07
2.275,0.376910120078773,77.50001571195249,0,60,1.0,1,3.6969299966425324e-07
2.28,0.15739335672107918,77.50002740197677,0,60,1.0,1,6.447523944911261e-07
2.285,-0.033361226269301235,77.5000500328844,0,60,1.0,1,1.177244338885644e-06
2.29,-0.1680180840843834,77.50009495573708,0,60,1.0,1,2.234252637248681e-06
2.295,-0.23069703190837854,77.50018514752661,0,60,1.0,1,4.356412390774601e-06
2.3,-0.22587267821131068,77.50036623180388,0,60,1.0,1,8.617218914838198e-06
2.305,-0.17718181630665902,77.50072678709442,0,60,1.0,1,1.710087280992625e-05
2.31,-0.11494332516451301,77.50143461155861,0,60,1.0,1,3.3755566084892054e-05
2.315,-0.061810214049552864,77.5027993939534,0,60,1.0,1,6.58680930210748e-05
2.32,-0.026546104631500547,77.50537738125638,0,60,1.0,1,0.0001265266177971866
2.325,-0.00719600351942686,77.5101400375162,0,60,1.0,1,0.0002385891180281038
2.33,0.0022072757983807078,77.51873573170647,0,60,1.0,1,0.00044084074603460975
2.335,0.006917199873730717,77.53387969714991,0,60,1.0,1,0.0007971693447038486
2.34,0.01004859748264829,77.55991023047092,0,60,1.0,1,0.0014096524816686858
2.345,0.013037082251128167,77.60354438392822,0,60,1.0,1,0.00243633844536997
2.35,0.01645163937690478,77.67484918417814,0,60,1.0,1,0.004114098451250423
2.355,0.020526639934696615,77.7884093308522,0,60,1.0,1,0.0067861019024047994
2.36,0.02539629541761738,77.96461536956245,0,60,1.0,1,0.01093212634264593
2.365,0.031171612185577933,78.23091721059663,0,60,1.0,1,0.017198052014038345
2.37,0.03795853426638131,78.6227928599652,0,60,1.0,1,0.02641865552859298
2.375,0.0458588961882057,79.18408665755831,0,60,1.0,1,0.03962556841313672
2.38,0.054966995891435555,79.96630039667855,0,60,1.0,1,0.058030597568907015
2.385,0.06536491004445595,81.02640747170874,0,60,1.0,1,0.08297429345197027
2.39,0.07711726085088699,82.42283947403011,0,60,1.0,1,0.11583151703600265
2.395,0.09026570629555215,84.20949296015137,0,60,1.0,1,0.15787042259179684
2.4,0.10482339848670268,86.42792724167438,0,60,1.0,1,0.21006887627469134
2.405,0.12076968927580028,89.09834551335945,0,60,1.0,1,0.2729022473731635
2.41,0.13804539501007884,92.21040668051529,0,60,1.0,2,0.3461272160121245
2.415,0.15654895051787066,95.71530488045332,0,60,1.0,2,0.4285954089518428
2.42,0.17613378141900526,99.52076142138833,0,60,1.0,2,0.518135562856196
2.425,0.19660720058055794,103.49049392863455,0,60,1.0,2,0.6115410336149306
2.43,0.21773108748496234,107.44929879905975,0,60,1.0,2,0.7046893835072882
2.435,0.23922453870058807,111.1941190293451,0,60,1.0,2,0.792802800690473
2.44,0.2607685857914563,114.51047262775617,0,60,1.0,2,0.8708346500648512
2.445,0.2820129681603682,117.1925695932531,0,60,1.0,2,0.9339428139588964
2.45,0.30258482867153996,119.06457506308963,0,60,1.0,2,0.977990001484462
2.455,0.3220990771751686,120.0,0,60,1.0,2,1.0
2.46,0.3401700499968971,119.93626626357627,0,60,1.0,2,0.9985003826723828
2.465,0.3564239911198326,118.88213103465766,0,60,1.0,2,0.9736972008154744
2.47,0.3705118017738417,116.91676286621725,0,60,1.0,2,0.9274532439109943
2.475,0.3821214567925213,114.18061934032266,0,60,1.0,2,0.8630733962428863
2.48,0.39098947374066967,110.85960266710498,0,60,1.0,2,0.7849318274612936
2.485,0.3969108472035567,107.16499075378253,0,60,1.0,2,0.6979997824419419
2.49,0.3997469255491936,103.31215997547778,0,60,1.0,2,0.6073449405994773
2.495,0.3994308076379137,99.50105733238124,0,60,1.0,2,0.5176719372324997
2.5,0.3959699661768434,95.90080270694628,0,60,1.0,2,0.43296006369285367
2.505,0.38944595408114946,92.63987384862794,0,60,1.0,2,0.35623232585006925
2.51,0.38001120995358023,89.80227211535595,0,60,1.0,2,0.2894652262436693
2.515,0.3678831374098315,87.429107562273,0,60,1.0,2,0.23362606028877655
2.52,0.35333577933796634,85.52434499291017,0,60,1.0,2,0.18880811748023937
2.525,0.33668953221163944,84.06310121889615,0,60,1.0,2,0.1544259110328506
2.53,0.3182994390982644,83.00087339718817,0,60,1.0,2,0.129432315227957
2.535,0.29854265738230645,82.28233533973716,0,60,1.0,2,0.11252553740558022
2.54,0.2778057157821067,81.84875222780497,0,60,1.0,2,0.10232358183070507
2.545,0.2564721553719815,81.64351943719842,0,60,1.0,2,0.09749457499290402
2.55,0.23491109433464996,81.61573561778272,0,60,1.0,2,0.09684083806547572
2.555,0.21346717185309805,81.7220173312601,0,60,1.0,2,0.09934158426494365
2.56,0.19245222055656455,81.92693369355118,0,60,1.0,2,0.10416314573061594
2.565,0.17213889801761392,82.20249593298601,0,60,1.0,2,0.1106469631290826
2.57,0.15275638501270183,82.52710789170109,0,60,1.0,2,0.11828489156943747
2.575,0.13448814019607322,82.88430441935833,0,60,1.0,2,0.12668951574960777
2.58,0.11747159495449566,83.26150706007847,0,60,1.0,2,0.1355648720018464
2.585,0.10179958433370105,83.64893355810317,0,60,1.0,2,0.14468078960242745
2.59,0.08752324394101413,84.03872273042094,0,60,1.0,2,0.1538522995393163
2.595,0.07465606047174059,84.42428381662813,0,60,1.0,2,0.16292432509713253
2.6,0.0631787448609295,84.79984820751459,0,60,1.0,2,0.17176113429446085
2.605,0.05304460019959574,85.16018700493531,0,60,1.0,2,0.18023969423377198
2.61,0.044185078305849994,85.50045479613394,0,60,1.0,2,0.18824599520315147
2.615,0.03651525513023255,85.81612348054294,0,60,1.0,2,0.1956734936598339
2.62,0.0299390014708757,86.10297630590426,0,60,1.0,2,0.20242297190362973
2.625,0.024353677220580638,86.35713909920837,0,60,1.0,2,0.20840327292254984
2.63,0.01965423034339045,86.5751317625649,0,60,1.0,2,0.21353251206035045
2.635,0.015736632374757337,86.75392796721998,0,60,1.0,2,0.21773948158164658
2.64,0.012500627640593535,86.89101460585793,0,60,1.0,2,0.22096504954959842
2.645,0.009851811652115898,86.98444515996042,0,60,1.0,2,0.22316341552848037
2.65,0.007703084175428559,87.0328829744056,0,60,1.0,2,0.22430312880954342
2.655,0.005975544002062424,87.03563175280645,0,60,1.0,2,0.22436780594838712
2.66,0.004598905818663047,86.99265158497569,0,60,1.0,2,0.22335650788178094
2.665,0.0035115256454839104,86.90455962174919,0,60,1.0,2,0.2212837558058632
2.67,0.002660121266303676,86.7726151996039,0,60,1.0,2,0.2181791811671507
2.675,0.0019992692560877024,86.5986898271919,0,60,1.0,2,0.21408681946333893
2.68,0.0014907520044639367,86.38522299196607,0,60,1.0,2,0.20906407039920175
2.685,0.0011028178277539807,86.13516522658897,0,60,1.0,2,0.20318035827268158
2.69,0.0008094059938923333,85.85191028364954,0,60,1.0,2,0.19651553608587163
2.695,0.0005893771793717645,85.53921859307545,0,60,1.0,2,0.1891580845429517
2.7,0.0004257792353490551,85.20113441032936,0,60,1.0,2,0.18120316259598493
2.705,0.0003051686392901525,84.84189919885794,0,60,1.0,2,0.17275056938489283
2.71,0.00021699992642659966,84.4658638252098,0,60,1.0,2,0.16390267824023047
2.715,0.00015308884054097838,84.07740208207215,0,60,1.0,2,0.15476240193110952
2.72,0.00010714989329311098,83.68082789985633,0,60,1.0,2,0.14543124470250177
2.725,7.440535854020571e-05,83.28031837196917,0,60,1.0,2,0.136007491105157
2.73,5.1260276743925106e-05,82.87984441636587,0,60,1.0,2,0.12658457450272637
2.735,3.503659887882241e-05,82.48311054260569,0,60,1.0,2,0.11724965982601615
2.74,2.375894748103639e-05,82.09350480709807,0,60,1.0,2,0.10808246604936639
2.745,1.5984413869232557e-05,81.71405963766578,0,60,1.0,2,0.09915434441566551
2.75,1.0669166579899869e-05,81.34742380962653,0,60,1.0,2,0.09052761905003609
2.755,7.06526633560511e-06,80.99584547562104,0,60,1.0,2,0.0822551876616715
2.76,4.641847214699205e-06,80.66116580464649,0,60,1.0,2,0.07438037187403498
2.765,3.025641074479182e-06,80.34482248380725,0,60,1.0,2,0.0669369996189941
2.77,1.9566278676921314e-06,80.04786208778954,0,60,1.0,2,0.05994969618328328
2.775,1.2553456560008793e-06,79.77096013143739,0,60,1.0,2,0.05343435603382097
2.78,7.990660428214668e-07,79.51444749231865,0,60,1.0,2,0.04739876452514476
2.785,5.046221251618276e-07,79.278341822098,0,60,1.0,2,0.041843336990541165
2.79,3.1616527078858815e-07,79.06238255449453,0,60,1.0,2,0.0367619424586949
2.795,1.9652884407760343e-07,78.86606815798669,0,60,1.0,2,0.03214278018792209
2.8,1.2120002189836396e-07,78.68869436592169,0,60,1.0,2,0.027969279198157438
2.805,7.415549848886236e-08,78.52939223681737,0,60,1.0,2,0.02422099380746759
2.81,4.501406988770349e-08,78.38716504432811,0,60,1.0,2,0.020874471631249742
2.815,0.0,78.26092316041584,0,60,1.0,2,0.017904074362725703
2.82,0.0,78.14951626792161,0,60,1.0,2,0.01528273571580264
2.825,0.0,78.05176241193382,0,60,1.0,2,0.012982644986678171
2.83,0.0,77.96647356610181,0,60,1.0,2,0.010975848614160268
2.835,0.0,77.89247754460511,0,60,1.0,2,0.009234765755414454
2.84,0.0,77.8286362284681,0,60,1.0,2,0.00773261714042586
2.845,0.0,77.77386019328746,0,60,1.0,2,0.0064437692538226255
2.85,0.0,77.72711992251153,0,60,1.0,2,0.005343998176741974
2.855,0.0,77.68745386566955,0,60,1.0,2,0.004410679192224787
2.86,0.0,77.65397365492345,0,60,1.0,2,0.003622909527610532
2.865,0.0,77.62586682737643,0,60,1.0,2,0.00296157240885711
2.87,0.0,77.60239741673563,0,60,1.0,2,0.0024093509820147575
2.875,0.0,77.58290477863605,0,60,1.0,2,0.0019507006737893896
2.88,0.0,77.56680100188535,0,60,1.0,2,0.0015717882796553462
2.885,0.0,77.55356723584703,0,60,1.0,2,0.0012604055493418
2.89,0.0,77.54274923483845,0,60,1.0,2,0.001005864349140077
2.895,0.0,77.5339523862881,0,60,1.0,2,0.000798879677367214
2.9,0.0,77.52683645271036,0,60,1.0,2,0.0006314459461260172
2.905,0.0,77.52111022023206,0,60,1.0,2,0.0004967110642837725
2.91,0.0,77.51652621000613,0,60,1.0,2,0.0003888520001443313
2.915,0.0,77.51287557458264,0,60,1.0,2,0.0003029546960620417
2.92,0.0,77.50998327004963,0,60,1.0,2,0.00023490047175601724
2.925,0.0,77.50770356706387,0,60,1.0,2,0.0001812604015028415
2.93,0.0,77.50591594005692,0,60,1.0,2,0.0001391985895746556
2.935,0.0,77.5045213539901,0,60,1.0,2,0.00010638479976705639
2.94,0.0,77.50343895192604,0,60,1.0,2,8.091651590689253e-05
2.945,0.0,77.50260313413699,0,60,1.0,2,6.125021498800218e-05
2.95,0.0,77.50196101013708,0,60,1.0,2,4.614141499012155e-05
2.955,0.0,77.50147019851048,0,60,1.0,2,3.459290612882422e-05
2.96,0.0,77.50109694528726,0,60,1.0,2,2.581047734726299e-05
2.965,0.0,77.50081452947285,0,60,1.0,2,1.9165399361126593e-05
2.97,0.0,77.50060192376263,0,60,1.0,2,1.4162912061893247e-05
2.975,0.0,77.50044267910418,0,60,1.0,2,1.041597892193589e-05
2.98,0.0,77.50032400327848,0,60,1.0,2,7.623606552442652e-06
2.985,0.0,77.5002360057779,0,60,1.0,2,5.553077126893079e-06
2.99,0.0,77.50017108373179,0,60,1.0,2,4.025499571432246e-06
2.995,0.0,77.50012342628081,0,60,1.0,2,2.9041477837247786e-06
3.0,0.0,77.50008861748469,0,60,1.0,2,2.0851172868841626e-06
3.005,0.0,77.50006332045746,0,60,1.0,2,1.4898931166338597e-06
3.01,0.0,77.50004502788177,0,60,1.0,2,1.0594795710136062e-06
3.015,0.0,77.50003186631457,0,60,1.0,2,7.49795636987555e-07
3.02,0.0,77.50002244372865,0,60,1.0,2,5.28087733019835e-07
3.025,0.0,77.50001573153237,0,60,1.0,2,3.701537028679441e-07
3.03,0.0,77.50001097387214,0,60,1.0,2,2.5820875614900773e-07
3.035,0.0,77.50000761836212,0,60,1.0,2,1.7925557926901092e-07
3.04,0.001684486749771458,77.50000526351877,0,60,1.0,2,1.2384750053730815e-07
3.045,0.003097557930867117,77.50000361912504,0,60,1.0,2,8.51558832651148e-08
3.05,0.005475106668887023,77.50000247653146,0,60,1.0,2,5.827132855194898e-08
3.055,0.00930222931468658,77.50000168654122,0,60,1.0,2,3.9683322938799394e-08
3.06,0.01519157517868857,77.50000114304392,0,60,1.0,2,2.6895150995187578e-08
3.065,0.023847336626128316,77.50000077097754,0,60,1.0,2,1.814064790671503e-08
3.07,0.0359830743700859,77.50000051752744,0,60,1.0,2,1.2177116225168849e-08
3.075,0.05218887796857759,77.50000034573065,0,60,1.0,2,8.134838935802691e-09
3.08,0.0727577001223134,77.50000022985567,0,60,1.0,2,5.408368759376839e-09
3.085,0.0974992498694751,77.50000015208467,0,60,1.0,2,3.5784627444252904e-09
3.09,0.12558706050443358,77.50000010014482,0,60,1.0,2,2.3563486325549412e-09
3.095,0.15549263588878245,77.50000006562728,0,60,1.0,2,1.544171201363925e-09
3.1,0.1850529723539114,77.50000004280092,0,60,1.0,2,1.0070804739156944e-09
3.105,0.21169159439317053,77.50000002778016,0,60,1.0,2,6.536508328067344e-10
3.11,0.23277292922115492,77.50000001794442,0,60,1.0,2,4.222215466143098e-10
3.115,0.24602692519491282,77.5000000115355,0,60,1.0,2,2.714236469567849e-10
3.12,0.24995056064839283,77.50000000738001,0,60,1.0,2,1.7364728217430907e-10
3.125,0.24408826520424054,77.50000000469883,0,60,1.0,2,1.1056078405732371e-10
3.13,0.22911894216865275,77.50000000297739,0,60,1.0,2,7.005617001542466e-11
3.135,0.20672661788705934,77.50000000187757,0,60,1.0,2,4.417803639251575e-11
3.14,0.17928878030241233,77.50000000117832,0,60,1.0,2,2.7725210362833048e-11
3.145,0.14946211903866036,77.50000000073595,0,60,1.0,2,1.7316511623314855e-11
3.15,0.1197651512573837,77.50000000045745,0,60,1.0,2,1.0763468547820058e-11
3.155,0.09224675744988023,77.50000000028298,0,60,1.0,2,6.658370586913353e-12
3.16,0.06829565320281596,77.50000000017421,0,60,1.0,2,4.0990792459685025e-12
3.165,0.04860224607515734,77.50000000010674,0,60,1.0,2,2.511475994491347e-12
3.17,0.03324612389699793,77.50000000006509,0,60,1.0,2,1.5314285787205924e-12
3.175,0.021859876340472782,77.50000000003949,0,60,1.0,2,9.292227118481499e-13
3.18,0.01381595518554205,77.50000000002385,0,60,1.0,2,5.610779814613874e-13
3.185,0.008394095110402422,77.50000000001434,0,60,1.0,2,3.373824095915017e-13
3.19,0.0049052535271608,77.50000000000857,0,60,1.0,2,2.0162695042980724e-13
3.195,0.0027671663551903634,77.5000000000051,0,60,1.0,2,1.2003992571194163e-13
3.2,0.0015425553464444616,77.50000000000303,0,60,1.0,2,7.122146010207122e-14
3.205,0.0009638206637011801,77.50000000000178,0,60,1.0,2,4.1796631515300014e-14
3.21,0.0009804935156568228,77.50000000000105,0,60,1.0,2,2.4743605857057607e-14
3.215,0.0018793744894085216,77.50000000000061,0,60,1.0,2,1.4378041241263203e-14
3.22,0.004535525206900863,77.50000000000036,0,60,1.0,2,8.359326303060002e-15
3.225,0.010832767979632273,77.5000000000002,0,60,1.0,2,4.681222729713601e-15
3.23,0.024208003392322392,77.50000000000011,0,60,1.0,2,2.6749844169792007e-15
3.235,0.0500971897335304,77.50000000000007,0,60,1.0,2,1.6718652606120004e-15
3.24,0.09582894921774403,77.50000000000004,0,60,1.0,2,1.0031191563672002e-15
3.245,0.16937896721820658,77.50000000000001,0,60,1.0,2,3.343730521224001e-16
3.25,0.27661303008991756,77.50000000000001,0,60,1.0,2,3.343730521224001e-16
3.255,0.4173782800009149,77.5,0,60,1.0,2,0.0
3.26,0.5818720934538056,77.5,0,60,1.0,2,0.0
3.265,0.7494718801585675,77.5,0,60,1.0,2,0.0
3.27,0.891813020752378,77.5,0,60,1.0,2,0.0
3.275,0.9800361632936612,77.5,0,60,1.0,2,0.0
3.28,0.993574479225126,77.50000249074864,1,60,1.0,2,5.8605850400079576e-08
3.285,0.9263438449375362,77.50000373719767,0,60,1.0,2,8.793406289655917e-08
3.29,0.7873015962290536,77.50000571125484,0,60,1.0,2,1.3438246690063405e-07
3.295,0.5959516244629897,77.50000897156823,0,60,1.0,2,2.1109572317607885e-07
3.3,0.376910120078773,77.50001461785887,0,60,1.0,2,3.43949620387588e-07
3.305,0.15739335672107918,77.50002485761756,0,60,1.0,2,5.848851190769304e-07
3.31,-0.033361226269301235,77.5000441468857,0,60,1.0,2,1.0387502517433485e-06
3.315,-0.1680180840843834,77.50008143641718,0,60,1.0,2,1.9161509923753115e-06
3.32,-0.23069703190837854,77.50015448638096,0,60,1.0,2,3.6349736697449024e-06
3.325,-0.22587267821131068,77.50029793771368,0,60,1.0,2,7.0102991454699375e-06
3.33,-0.17718181630665902,77.50057799534659,0,60,1.0,2,1.3599890507975942e-05
3.335,-0.11494332516451301,77.50111837318384,0,60,1.0,2,2.6314663149244498e-05
3.34,-0.061810214049552864,77.5021447712547,0,60,1.0,2,5.046520599307769e-05
3.345,-0.026546104631500547,77.50405875758024,0,60,1.0,2,9.550017835856712e-05
3.35,-0.00719600351942686,77.50755652220829,0,60,1.0,2,0.00017780052254800146
3.355,0.0022072757983807078,77.5138132687215,0,60,1.0,2,0.00032501808756485256
3.36,0.006917199873730717,77.52475921295319,0,60,1.0,2,0.000582569716545536
3.365,0.01004859748264829,77.54347674592255,0,60,1.0,2,0.0010229822570011037
3.37,0.013037082251128167,77.57474787349175,0,60,1.0,2,0.001758773493923413
3.375,0.01645163937690478,77.62577327415069,0,60,1.0,2,0.0029593711564867885
3.38,0.020526639934696615,77.70706537776042,0,60,1.0,2,0.0048721265355391764
3.385,0.02539629541761738,77.83348417583925,0,60,1.0,2,0.007846686490335193
3.39,0.031171612185577933,78.02533403405856,0,60,1.0,2,0.01236080080137787
3.395,0.03795853426638131,78.30937397061481,0,60,1.0,2,0.019044093426230924
3.4,0.0458588961882057,78.71951933566189,0,60,1.0,2,0.02869457260380908
3.405,0.054966995891435555,79.29694287055824,0,60,1.0,2,0.04228100871901742
3.41,0.06536491004445595,80.08923773111762,0,60,1.0,2,0.06092324073217931
3.415,0.07711726085088699,81.14830879222492,0,60,1.0,2,0.08584255981705703
3.42,0.09026570629555215,82.52673576022178,0,60,1.0,2,0.11827613553463018
3.425,0.10482339848670268,84.27251918352495,0,60,1.0,2,0.1593533925535282
3.43,0.12076968927580028,86.42237931349577,0,60,1.0,2,0.2099383367881357
3.435,0.13804539501007884,88.99410554557689,0,60,1.0,2,0.2704495422488679
3.44,0.15654895051787066,91.9788018156371,0,60,1.0,2,0.3406776897796964
3.445,0.17613378141900526,95.334168598068,0,60,1.0,2,0.41962749642512953
3.45,0.19660720058055794,98.98012138918452,0,60,1.0,2,0.5054146209219886
3.455,0.21773108748496234,102.79799284778882,0,60,1.0,2,0.5952468905362075
3.46,0.23922453870058807,106.63425574998296,0,60,1.0,2,0.6855118999995989
3.465,0.2607685857914563,110.3091421021212,0,60,1.0,2,0.7719798141675577
3.47,0.2820129681603682,113.62978726267669,0,60,1.0,2,0.8501126414747455
3.475,0.30258482867153996,116.40672107938641,0,60,1.0,2,0.915452260691445
3.48,0.3220990771751686,118.47182096137549,0,60,1.0,2,0.9640428461500115
3.485,0.3401700499968971,119.6953952366045,0,60,1.0,2,0.9928328290965764
3.49,0.3564239911198326,120.0,0,60,1.0,2,1.0
3.495,0.3705118017738417,119.36895538564825,0,60,1.0,2,0.9851518914270176
3.5,0.3821214567925213,117.8482718652806,0,60,1.0,2,0.9493711027124846
3.505,0.39098947374066967,115.54169086462247,0,60,1.0,2,0.8950986085793522
3.51,0.3969108472035567,112.59959541754621,0,60,1.0,2,0.8258728333540285
3.515,0.3997469255491936,109.20345077779993,0,60,1.0,2,0.7459635477129395
3.52,0.3994308076379137,105.54802170749046,0,60,1.0,2,0.6599534519409521
3.525,0.3959699661768434,101.8237860184662,0,60,1.0,2,0.572324376905087
3.53,0.38944595408114946,98.20171874166881,0,60,1.0,2,0.4870992645098544
3.535,0.38001120995358023,94.82204096605442,0,60,1.0,2,0.407577434495398
3.54,0.3678831374098315,91.78775541635707,0,60,1.0,2,0.3361824803848723
3.545,0.35333577933796634,89.16299261618758,0,60,1.0,2,0.27442335567500187
3.55,0.33668953221163944,86.97551489147115,0,60,1.0,2,0.22295329156402705
3.555,0.3182994390982644,85.22227107932854,0,60,1.0,2,0.18170049598420085
3.56,0.29854265738230645,83.87670192276543,0,60,1.0,2,0.15004004524153963
3.565,0.2778057157821067,82.89654561652101,0,60,1.0,2,0.12697754391814142
3.57,0.2564721553719815,82.23112307730574,0,60,1.0,2,0.11132054299542915
3.575,0.23491109433464996,81.82741116257147,0,60,1.0,2,0.10182143911932859
3.58,0.21346717185309805,81.63455867864775,0,60,1.0,2,0.09728373361524117
3.585,0.19245222055656455,81.60680170223023,0,60,1.0,2,0.09663062828777008
3.59,0.17213889801761392,81.70495430565997,0,60,1.0,2,0.0989401013096463
3.595,0.15275638501270183,81.89677692135083,0,60,1.0,2,0.10345357462001964
3.6,0.13448814019607322,82.15656636018309,0,60,1.0,2,0.1095662672984257
3.605,0.11747159495449566,82.46429012245926,0,60,1.0,2,0.11680682641080613
3.61,0.10179958433370105,82.8045283196595,0,60,1.0,2,0.12481243105081169
3.615,0.08752324394101413,83.16541222644258,0,60,1.0,3,0.13330381709276667
3.62,0.07465606047174059,83.53767634330968,0,60,1.0,3,0.14206297278375726
3.625,0.0631787448609295,83.91388111514495,0,60,1.0,3,0.15091484976811637
3.63,0.05304460019959574,84.28782021906059,0,60,1.0,3,0.15971341691907276
3.635,0.044185078305849994,84.65409926224211,0,60,1.0,3,0.16833174734687326
3.64,0.03651525513023255,85.0078589300795,0,60,1.0,3,0.17665550423716456
3.645,0.0299390014708757,85.34461127744662,0,60,1.0,3,0.18457908888109686
3.65,0.024353677220580638,85.66015930774962,0,60,1.0,3,0.1920037484176382
3.655,0.01965423034339045,85.95057432507056,0,60,1.0,3,0.19883704294283674
3.66,0.015736632374757337,86.21221077831807,0,60,1.0,3,0.2049931947839545
3.665,0.012500627640593535,86.44174327657818,0,60,1.0,3,0.21039395944889835
3.67,0.009851811652115898,86.63621460417082,0,60,1.0,3,0.21496975539225452
3.675,0.007703084175428559,86.79308677227421,0,60,1.0,3,0.21866086522998135
3.68,0.005975544002062424,86.91028950286497,0,60,1.0,3,0.2214185765379993
3.685,0.004598905818663047,86.98626223109395,0,60,1.0,3,0.22320617014338695
3.69,0.0035115256454839104,87.01998692484162,0,60,1.0,3,0.22399969234921455
3.695,0.002660121266303676,87.01100991632812,0,60,1.0,3,0.22378846861948518
3.7,0.0019992692560877024,86.95945163913956,0,60,1.0,3,0.22257533268563667
3.705,0.0014907520044639367,86.86600374296489,0,60,1.0,3,0.22037655865799746
3.71,0.0011028178277539807,86.73191356296712,0,60,1.0,3,0.2172214955992264
3.715,0.0008094059938923333,86.55895637276944,0,60,1.0,3,0.2131519146533987
3.72,0.0005893771793717645,86.34939625601568,0,60,1.0,3,0.20822108837683953
3.725,0.0004257792353490551,86.1059367891027,0,60,1.0,3,0.2024926303318282
3.73,0.0003051686392901525,85.83166303058954,0,60,1.0,3,0.19603913013151855
3.735,0.00021699992642659966,85.52997655357439,0,60,1.0,3,0.18894062478998555
3.74,0.00015308884054097838,85.20452542960692,0,60,1.0,3,0.18128295128486865
3.745,0.00010714989329311098,84.8591311722773,0,60,1.0,3,0.17315602758299534
3.75,7.440535854020571e-05,84.49771467412947,0,60,1.0,3,0.1646521099795169
3.755,5.1260276743925106e-05,84.12422312368471,0,60,1.0,3,0.15586407349846387
3.76,3.503659887882241e-05,83.74255977482709,0,60,1.0,3,0.14688375940769613
3.765,2.375894748103639e-05,83.3565182660101,0,60,1.0,3,0.1378004297884729
3.77,1.5984413869232557e-05,82.9697229613804,0,60,1.0,3,0.12869936379718586
3.775,1.0669166579899869e-05,82.58557652138303,0,60,1.0,3,0.11966062403254193
3.78,7.06526633560511e-06,82.20721561920514,0,60,1.0,3,0.1107580145695328
3.785,4.641847214699205e-06,81.83747541445932,0,60,1.0,3,0.10205824504610164
3.79,3.025641074479182e-06,81.47886308952788,0,60,1.0,3,0.09362030798889123
3.795,1.9566278676921314e-06,81.13354045891697,0,60,1.0,3,0.08549506962157573
3.8,1.2553456560008793e-06,80.80331538843093,0,60,1.0,3,0.07772506796308074
3.805,7.990660428214668e-07,80.48964151788857,0,60,1.0,3,0.07034450630326052
3.81,5.046221251618276e-07,80.1936255753785,0,60,1.0,3,0.06337942530302364
3.815,3.1616527078858815e-07,79.91604140743877,0,60,1.0,3,0.05684803311620633
3.82,1.9652884407760343e-07,79.65734973059041,0,60,1.0,3,0.050761170131539086
3.825,1.2120002189836396e-07,79.41772253577084,0,60,1.0,3,0.04512288319460789
3.83,7.415549848886236e-08,79.19707104686094,0,60,1.0,3,0.039931083455551554
3.835,4.501406988770349e-08,78.99507614445564,0,60,1.0,3,0.035178262222485594
3.84,0.0,78.81122021168667,0,60,1.0,3,0.030852240274980566
3.845,0.0,78.64481943465971,0,60,1.0,3,0.0269369278743461
3.85,0.0,78.49505568965337,0,60,1.0,3,0.023413075050667524
3.855,0.0,78.36100726610847,0,60,1.0,3,0.02025899449666995
3.86,0.0,78.24167780211948,0,60,1.0,3,0.017451242402811363
3.865,0.0,78.13602294148403,0,60,1.0,3,0.014965245681977154
3.87,0.0,78.04297435280705,0,60,1.0,3,0.012775867124871772
3.875,0.0,77.96146087689337,0,60,1.0,3,0.010857902985726335
3.88,0.0,77.89042668477981,0,60,1.0,3,0.009186510230113206
3.885,0.0,77.82884643227335,0,60,1.0,3,0.007737563112314159
3.89,0.0,77.77573748574355,0,60,1.0,3,0.006487940841024657
3.895,0.0,77.73016936702706,0,60,1.0,3,0.0054157498124014
3.9,0.0,77.69127062232624,0,60,1.0,3,0.004500485231205724
3.905,0.0,77.6582333613129,0,60,1.0,3,0.0037231379132445937
3.91,0.0,77.63031573925792,0,60,1.0,3,0.0030662526884217348
3.915,0.0,77.60684266831569,0,60,1.0,3,0.0025139451368398325
3.92,0.0,77.58720504582733,0,60,1.0,3,0.002051883431231344
3.925,0.0,77.57085777957612,0,60,1.0,3,0.001667241872379196
3.93,0.0,77.55731687430486,0,60,1.0,3,0.0013486323365849357
3.935,0.0,77.54615582242496,0,60,1.0,3,0.0010860193511756306
3.94,0.0,77.53700151653213,0,60,1.0,3,0.0008706239184030384
3.945,0.0,77.52952987374293,0,60,1.0,3,0.0006948205586571904
3.95,0.0,77.52346133340869,0,60,1.0,3,0.0005520313743221215
3.955,0.0,77.51855636164399,0,60,1.0,3,0.0004366202739761855
3.96,0.0,77.51461106927293,0,60,1.0,3,0.0003437898652454324
3.965,0.0,77.51145302495763,0,60,1.0,3,0.00026948294017957404
3.97,0.0,77.50893732291566,0,60,1.0,3,0.0002102899509566214
3.975,0.0,77.50694294504625,0,60,1.0,3,0.00016336341285289242
3.98,0.0,77.50536944058639,0,60,1.0,3,0.00012633977850334626
3.985,0.0,77.50413393258488,0,60,1.0,3,9.7269001997133e-05
3.99,0.0,77.50316844938739,0,60,1.0,3,7.455175029148824e-05
3.995,0.0,77.50241757075612,0,60,1.0,3,5.6884017791122355e-05
4.0,0.0,77.50183637194186,0,60,1.0,3,4.320875157324789e-05
4.005,0.0,77.50138864469302,0,60,1.0,3,3.267399277700968e-05
4.01,0.0,77.50104537152076,0,60,1.0,3,2.4596976959066844e-05
4.015,0.0,77.50078342824536,0,60,1.0,3,1.8433605773078158e-05
4.02,0.0,77.5005844896453,0,60,1.0,3,1.3752697536601237e-05
4.025,0.0,77.50043411366167,0,60,1.0,3,1.0214439098089155e-05
4.03,0.0,77.5003209808483,0,60,1.0,3,7.552490548251251e-06
4.035,0.0,77.50023626741132,0,60,1.0,3,5.559233207631062e-06
4.04,0.0,77.50017313208562,0,60,1.0,3,4.073696132255624e-06
4.045,0.0,77.50012629912273,0,60,1.0,3,2.9717440641514474e-06
4.05,0.0,77.50009172170994,0,60,1.0,3,2.1581578808389383e-06
4.055,0.0,77.50006631213128,0,60,1.0,3,1.5602854419097745e-06
4.06,0.0,77.50004772686034,0,60,1.0,3,1.1229849492872958e-06
4.065,0.0,77.5000341965096,0,60,1.0,3,8.046237553571701e-07
4.07,0.0,77.50002439213024,0,60,1.0,3,5.739324762998877e-07
4.075,0.0,77.5000173207509,0,60,1.0,3,4.0754707998423647e-07
4.08,0.0,77.50001224426546,0,60,1.0,3,2.8810036383219996e-07
4.085,0.0,77.50000861683532,0,60,1.0,3,2.0274906626796378e-07
4.09,0.0,77.50000603687084,0,60,1.0,3,1.4204401984042145e-07
4.095,0.0,77.50000421041604,0,60,1.0,3,9.906861263890973e-08
4.1,0.001684486749771458,77.5000029233928,0,60,1.0,3,6.878571291642455e-08
4.105,0.003097557930867117,77.50000202068385,0,60,1.0,3,4.7545502384844656e-08
4.11,0.005475106668887023,77.50000139046033,0,60,1.0,3,3.2716713563144474e-08
4.115,0.00930222931468658,77.50000095250633,0,60,1.0,3,2.2411913558993118e-08
4.12,0.01519157517868857,77.50000064957032,0,60,1.0,3,1.5284007638590135e-08
4.125,0.023847336626128316,77.50000044099485,0,60,1.0,3,1.0376349484217558e-08
4.13,0.0359830743700859,77.50000029805052,0,60,1.0,3,7.012953480679083e-09
4.135,0.05218887796857759,77.50000020053736,0,60,1.0,3,4.71852605615448e-09
4.14,0.0727577001223134,77.5000001343228,0,60,1.0,3,3.1605365540385452e-09
4.145,0.0974992498694751,77.50000008956808,0,60,1.0,3,2.1074841323056984e-09
4.15,0.12558706050443358,77.50000005945738,0,60,1.0,3,1.3989971220700468e-09
4.155,0.15549263588878245,77.50000003929229,0,60,1.0,3,9.24524436092778e-10
4.16,0.1850529723539114,77.50000002584984,0,60,1.0,3,6.082316036447403e-10
4.165,0.21169159439317053,77.50000001693002,0,60,1.0,3,3.983533294077086e-10
4.17,0.23277292922115492,77.5000000110384,0,60,1.0,3,2.5972694322049124e-10
4.175,0.24602692519491282,77.5000000071648,0,60,1.0,3,1.6858353667296744e-10
4.18,0.24995056064839283,77.50000000462967,0,60,1.0,3,1.08933390412644e-10
4.185,0.24408826520424054,77.50000000297815,0,60,1.0,3,7.007422616023926e-11
4.19,0.22911894216865275,77.50000000190718,0,60,1.0,3,4.487486983313883e-11
4.195,0.20672661788705934,77.50000000121587,0,60,1.0,3,2.860862396654043e-11
4.2,0.17928878030241233,77.50000000077166,0,60,1.0,3,1.8156791103298448e-11
4.205,0.14946211903866036,77.50000000048755,0,60,1.0,3,1.1471670672215302e-11
4.21,0.1197651512573837,77.50000000030666,0,60,1.0,3,7.215436091749272e-12
4.215,0.09224675744988023,77.50000000019202,0,60,1.0,3,4.51804868027787e-12
4.22,0.06829565320281596,77.5000000001197,0,60,1.0,3,2.816424218026976e-12
4.225,0.04860224607515734,77.50000000007428,0,60,1.0,3,1.7477679434437852e-12
4.23,0.03324612389699793,77.50000000004589,0,60,1.0,3,1.0796905853032298e-12
4.235,0.021859876340472782,77.50000000002822,0,60,1.0,3,6.640648815150865e-13
4.24,0.01381595518554205,77.50000000001728,0,60,1.0,3,4.0659763138083853e-13
4.245,0.008394095110402422,77.50000000001053,0,60,1.0,3,2.4777043162269844e-13
4.25,0.0049052535271608,77.5000000000064,0,60,1.0,3,1.5046787345508003e-13
4.255,0.0027671663551903634,77.50000000000387,0,60,1.0,3,9.094947017729283e-14
4.26,0.0015425553464444616,77.50000000000232,0,60,1.0,3,5.4502807495951216e-14
4.265,0.0009638206637011801,77.50000000000139,0,60,1.0,3,3.2768559107995206e-14
4.27,0.0009804935156568228,77.50000000000082,0,60,1.0,3,1.9393637023099206e-14
4.275,0.0018793744894085216,77.5000000000005,0,60,1.0,3,1.1703056824284003e-14
4.28,0.004535525206900863,77.50000000000028,0,60,1.0,3,6.687461042448002e-15
4.285,0.010832767979632273,77.50000000000017,0,60,1.0,3,4.012476625468801e-15
4.29,0.024208003392322392,77.5000000000001,0,60,1.0,3,2.3406113648568006e-15
4.295,0.0500971897335304,77.50000000000006,0,60,1.0,3,1.3374922084896003e-15
4.3,0.09582894921774403,77.50000000000003,0,60,1.0,3,6.687461042448002e-16
4.305,0.16937896721820658,77.50000000000001,0,60,1.0,3,3.343730521224001e-16
4.31,0.27661303008991756,77.50000000000001,0,60,1.0,3,3.343730521224001e-16
4.315,0.4173782800009149,77.5,0,60,1.0,3,0.0
4.32,0.5818720934538056,77.5,0,60,1.0,3,0.0
4.325,0.7494718801585675,77.5,0,60,1.0,3,0.0
4.33,0.891813020752378,77.5,0,60,1.0,3,0.0
4.335,0.9800361632936612,77.5,0,60,1.0,3,0.0
4.34,0.993574479225126,77.50000249065474,1,60,1.0,3,5.860364086295115e-08
4.345,0.9263438449375362,77.50000381481783,0,60,1.0,3,8.976041954156244e-08
4.35,0.7873015962290536,77.50000596523532,0,60,1.0,3,1.4035847805323155e-07
4.355,0.5959516244629897,77.50000962503476,0,60,1.0,3,2.2647140620874244e-07
4.36,0.376910120078773,77.50001618917643,0,60,1.0,3,3.809217984700594e-07
4.365,0.15739335672107918,77.5000285614158,0,60,1.0,3,6.720333130140395e-07
4.37,-0.033361226269301235,77.50005280883279,0,60,1.0,3,1.2425607715559796e-06
4.375,-0.1680180840843834,77.50010151190543,0,60,1.0,3,2.388515421818524e-06
4.38,-0.23069703190837854,77.50020036214238,0,60,1.0,3,4.714403350108649e-06
4.385,-0.22587267821131068,77.50040077561245,0,60,1.0,3,9.430014410541202e-06
4.39,-0.17718181630665902,77.50080326727193,0,60,1.0,3,1.8900406398442475e-05
4.395,-0.11494332516451301,77.50159937912407,0,60,1.0,3,3.763244997819182e-05
4.4,-0.061810214049552864,77.50314438198903,0,60,1.0,3,7.398545856544308e-05
4.405,-0.026546104631500547,77.5060789517361,0,60,1.0,3,0.00014303415849647481
4.41,-0.00719600351942686,77.5115253796782,0,60,1.0,3,0.00027118540419304043
4.415,0.0022072757983807078,77.5213917627598,0,60,1.0,3,0.0005033355943483537
4.42,0.006917199873730717,77.53882411894206,0,60,1.0,3,0.0009135086809896406
4.425,0.01004859748264829,77.56884815932884,0,60,1.0,3,0.0016199566900902884
4.43,0.013037082251128167,77.6192346558676,0,60,1.0,3,0.002805521314531782
4.435,0.01645163937690478,77.70159894500465,0,60,1.0,3,0.004743504588344649
4.44,0.020526639934696615,77.83270008287926,0,60,1.0,3,0.007828237244217797
4.445,0.02539629541761738,78.03583465142736,0,60,1.0,3,0.012607874151232115
4.45,0.031171612185577933,78.34212553437393,0,60,1.0,3,0.019814718455857288
4.455,0.03795853426638131,78.79139701937089,0,60,1.0,3,0.030385812220491543
4.46,0.0458588961882057,79.43222533468237,0,60,1.0,3,0.045464125521938153
4.465,0.054966995891435555,80.32069048739088,0,60,1.0,3,0.06636918793860887
4.47,0.06536491004445595,81.5173707975343,0,60,1.0,3,0.09452637170668936
4.475,0.07711726085088699,83.08225427174436,0,60,1.0,3,0.13134715933516145
4.48,0.09026570629555215,85.06751487992965,0,60,1.0,3,0.17805917364540344
4.485,0.10482339848670268,87.50851138218808,0,60,1.0,3,0.23549438546324883
4.49,0.12076968927580028,90.41386466435996,0,60,1.0,3,0.3038556391614109
4.495,0.13804539501007884,93.75596504105044,0,60,1.0,3,0.38249329508353985
4.5,0.15654895051787066,97.4636280918179,0,60,1.0,3,0.4697324256898328
4.505,0.17613378141900526,101.41872257270964,0,60,1.0,3,0.5627934722990504
4.51,0.19660720058055794,105.45833242352343,0,60,1.0,3,0.6578431158476101
4.515,0.21773108748496234,109.38335163215552,0,60,1.0,3,0.7501965089918947
4.52,0.23922453870058807,112.9734084393601,0,60,1.0,3,0.8346684338672965
4.525,0.2607685857914563,116.00683982528938,0,60,1.0,3,0.9060432900068088
4.53,0.2820129681603682,118.28333120453613,0,60,1.0,3,0.9596077930479089
4.535,0.30258482867153996,119.646064803065,0,60,1.0,3,0.9916721130132942
4.54,0.3220990771751686,120.0,0,60,1.0,3,1.0
4.545,0.3401700499968971,119.32334270778719,0,60,1.0,3,0.9840786519479339
4.55,0.3564239911198326,117.6702984466819,0,60,1.0,3,0.9451834928631034
4.555,0.3705118017738417,115.1646448291192,0,60,1.0,3,0.8862269371557459
4.56,0.3821214567925213,111.9851997850634,0,60,1.0,3,0.8114164655309035
4.565,0.39098947374066967,108.34557221481842,0,60,1.0,3,0.7257781697604334
4.57,0.3969108472035567,104.47139174943496,0,60,1.0,3,0.634620982339646
4.575,0.3997469255491936,100.57838099842344,0,60,1.0,3,0.5430207293746692
4.58,0.3994308076379137,96.85417087272945,0,60,1.0,3,0.45539225582892834
4.585,0.3959699661768434,93.44582268957237,0,60,1.0,3,0.37519582798993806
4.59,0.38944595408114946,90.45385471397468,0,60,1.0,3,0.30479658150528655
4.595,0.38001120995358023,87.93243962502166,0,60,1.0,3,0.24546916764756843
4.6,0.3678831374098315,85.89455992933536,0,60,1.0,3,0.19751905716083196
4.605,0.35333577933796634,84.32040601189054,0,60,1.0,3,0.160480141456248
4.61,0.33668953221163944,83.16719725117376,0,60,1.0,3,0.13334581767467674
4.615,0.3182994390982644,82.37883285219493,0,60,1.0,3,0.114796067110469
4.62,0.29854265738230645,81.89421459224894,0,60,1.0,3,0.10339328452350455
4.625,0.2778057157821067,81.65359406235096,0,60,1.0,3,0.09773162499649321
4.63,0.2564721553719815,81.60276811068044,0,60,1.0,3,0.09653572025130455
4.635,0.23491109433464996,81.6953041114732,0,60,1.0,3,0.0987130379170166
4.64,0.21346717185309805,81.89319219750705,0,60,1.0,3,0.10336922817663642
4.645,0.19245222055656455,82.16640283127366,0,60,1.0,3,0.10979771367702724
4.65,0.17213889801761392,82.49180664386697,0,60,1.0,3,0.11745427397334036
4.655,0.15275638501270183,82.85182970057085,0,60,1.0,3,0.12592540471931402
4.66,0.13448814019607322,83.23310877819486,0,60,1.0,3,0.13489667713399672
4.665,0.11747159495449566,83.62530580186197,0,60,1.0,3,0.14412484239675222
4.67,0.10179958433370105,84.02015461343919,0,60,1.0,3,0.15341540266915737
4.675,0.08752324394101413,84.41075278688982,0,60,1.0,3,0.1626059479268192
4.68,0.07465606047174059,84.79107511020709,0,60,1.0,3,0.17155470847546092
4.685,0.0631787448609295,85.15566858139451,0,60,1.0,3,0.18013337838575313
4.69,0.05304460019959574,85.49948511358731,0,60,1.0,3,0.18822317914323086
4.695,0.044185078305849994,85.81781198508382,0,60,1.0,3,0.19571322317844286
4.7,0.03651525513023255,86.1062671685372,0,60,1.0,3,0.2025004039655812
4.705,0.0299390014708757,86.36083432317702,0,60,1.0,3,0.20849021936887097
4.71,0.024353677220580638,86.57791901100559,0,60,1.0,3,0.21359809437660213
4.715,0.01965423034339045,86.75441307651025,0,60,1.0,3,0.21775089591788815
4.72,0.015736632374757337,86.88775811124916,0,60,1.0,3,0.22088842614703896
4.725,0.012500627640593535,86.97600175641713,0,60,1.0,3,0.2229647472098149
4.73,0.009851811652115898,87.017842589161,0,60,1.0,3,0.2239492373920237
4.735,0.007703084175428559,87.012660771883,0,60,1.0,3,0.22382731227960015
4.74,0.005975544002062424,86.96053273007563,0,60,1.0,3,0.22260077011942653
4.745,0.004598905818663047,86.86222900437889,0,60,1.0,3,0.2202877412795033
4.75,0.0035115256454839104,86.719195178689,0,60,1.0,3,0.21692223949856484
4.755,0.002660121266303676,86.53351645798008,0,60,1.0,3,0.21255332842306082
4.76,0.0019992692560877024,86.30786706938648,0,60,1.0,3,0.20724393104438765
4.765,0.0014907520044639367,86.04544618487417,0,60,1.0,3,0.2010693219970392
4.77,0.0011028178277539807,85.74990250322291,0,60,1.0,3,0.19411535301700972
4.775,0.0008094059938923333,85.42524997119911,0,60,1.0,3,0.18647646991056724
4.78,0.0005893771793717645,85.0757773587906,0,60,1.0,3,0.17825358491272006
4.785,0.0004257792353490551,84.70595452519278,0,60,1.0,3,0.1695518711810066
4.79,0.0003051686392901525,84.32033821979824,0,60,1.0,3,0.160478546348194
4.795,0.00021699992642659966,83.92348015988665,0,60,1.0,3,0.1511407096443918
4.8,0.00015308884054097838,83.51983992315786,0,60,1.0,3,0.1416432923095967
4.805,0.00010714989329311098,83.11370490220835,0,60,1.0,3,0.13208717416960833
4.81,7.440535854020571e-05,82.70911920653026,0,60,1.0,3,0.12256751074188849
4.815,5.1260276743925106e-05,82.30982298507394,0,60,1.0,3,0.11317230553115143
4.82,3.503659887882241e-05,81.91920319962112,0,60,1.0,4,0.10398125175579112
4.825,2.375894748103639e-05,81.5402564270607,0,60,1.0,4,0.09506485710731052
4.83,1.5984413869232557e-05,81.1755638270808,0,60,1.0,4,0.0864838547548422
4.835,1.0669166579899869e-05,80.82727799879292,0,60,1.0,4,0.07828889408924523
4.84,7.06526633560511e-06,80.49712108066727,0,60,1.0,4,0.07052049601570047
4.845,4.641847214699205e-06,80.18639313486506,0,60,1.0,4,0.06320925023211899
4.85,3.025641074479182e-06,79.89598960793784,0,60,1.0,4,0.05637622606912554
4.855,1.9566278676921314e-06,79.6264264795071,0,60,1.0,4,0.050033564223696536
4.86,1.2553456560008793e-06,79.37787159987418,0,60,1.0,4,0.04418521411468666
4.865,7.990660428214668e-07,79.15018067413585,0,60,1.0,4,0.03882778056790244
4.87,5.046221251618276e-07,78.94293636900822,0,60,1.0,4,0.03395144397666406
4.875,3.1616527078858815e-07,78.75548909159917,0,60,1.0,4,0.029540919802333494
4.88,1.9652884407760343e-07,78.58699810755667,0,60,1.0,4,0.025576426060156872
4.885,1.2120002189836396e-07,78.43647181909245,0,60,1.0,4,0.022034631037469325
4.89,7.415549848886236e-08,78.30280620070539,0,60,1.0,4,0.018889557663656246
4.895,4.501406988770349e-08,78.18482058158935,0,60,1.0,4,0.01611342544916116
4.9,0.0,78.08129015900583,0,60,1.0,4,0.01367741550601957
4.905,0.0,77.99097481773615,0,60,1.0,4,0.011552348652615178
4.91,0.0,77.91264400989799,0,60,1.0,4,0.00970927082112914
4.915,0.0,77.84509761126496,0,60,1.0,4,0.008119943794469679
4.92,0.0,77.7871828107303,0,60,1.0,4,0.00675724260541883
4.925,0.0,77.73780720624384,0,60,1.0,4,0.005595463676325728
4.93,0.0,77.69594837242065,0,60,1.0,4,0.004610549939309294
4.935,0.0,77.66066023234221,0,60,1.0,4,0.0037802407609931646
4.94,0.0,77.63107661018051,0,60,1.0,4,0.00308415553365916
4.945,0.0,77.60641236432045,0,60,1.0,4,0.0025038203369517225
4.95,0.0,77.58596250536276,0,60,1.0,4,0.002022647185006075
4.955,0.0,77.56909969282334,0,60,1.0,4,0.0016258751252551332
4.96,0.0,77.55527048169948,0,60,1.0,4,0.0013004819223407166
4.965,0.0,77.54399065849753,0,60,1.0,4,0.0010350743175890516
4.97,0.0,77.53483996875943,0,60,1.0,4,0.0008197639708100724
4.975,0.0,77.52745649724005,0,60,1.0,4,0.0006460352291777086
4.98,0.0,77.52153091995265,0,60,1.0,4,0.000506609881238894
4.985,0.0,77.51680080618708,0,60,1.0,4,0.00039531308675477437
4.99,0.0,77.51304510977057,0,60,1.0,4,0.0003069437593076012
4.995,0.0,77.51007895333593,0,60,1.0,4,0.00023715184319846283
5.0,0.0,77.50774877787383,0,60,1.0,4,0.00018232418526655932
5.005,0.0,77.50592790273667,0,60,1.0,4,0.00013948006439230032
5.01,0.0,77.50451251862505,0,60,1.0,4,0.00010617690882467662
5.015,0.0,77.50341811780184,0,60,1.0,4,8.042630121983219e-05
5.02,0.0,77.50257635156204,0,60,1.0,4,6.062003675390984e-05
5.025,0.0,77.50193229444417,0,60,1.0,4,4.5465751627622974e-05
5.03,0.0,77.50144208734422,0,60,1.0,4,3.3931466922735235e-05
5.035,0.0,77.5010709270944,0,60,1.0,4,2.519828457419702e-05
5.04,0.0,77.50079136771336,0,60,1.0,4,1.862041678497703e-05
5.045,0.0,77.50058189795325,0,60,1.0,4,1.3691716547140567e-05
5.05,0.0,77.50042576054396,0,60,1.0,4,1.0017895152045373e-05
5.055,0.0,77.5003099802863,0,60,1.0,4,7.293653795373115e-06
5.06,0.0,77.50022457055825,0,60,1.0,4,5.284013135183962e-06
5.065,0.0,77.5001618906037,0,60,1.0,4,3.809190675450308e-06
5.07,0.0,77.5001161289628,0,60,1.0,4,2.7324461835659724e-06
5.075,0.0,77.50008289141098,0,60,1.0,4,1.950386140780371e-06
5.08,0.0,77.5000588746852,0,60,1.0,4,1.3852867104614074e-06
5.085,0.0,77.50004161000271,0,60,1.0,4,9.7905888731689e-07
5.09,0.0,77.50002926287357,0,60,1.0,4,6.885382015966838e-07
5.095,0.0,77.50002047794057,0,60,1.0,4,4.818338956791943e-07
5.1,0.0,77.50001425954493,0,60,1.0,4,3.3551870414532246e-07
5.105,0.0,77.50000988041381,0,60,1.0,4,2.3248032501963763e-07
5.11,0.001684486749771458,77.5000068123144,0,60,1.0,4,1.6028975049748088e-07
5.115,0.003097557930867117,77.50000467373745,0,60,1.0,4,1.0997029295033237e-07
5.12,0.005475106668887023,77.50000319068567,0,60,1.0,4,7.507495705367012e-08
5.125,0.00930222931468658,77.50000216747358,0,60,1.0,4,5.099937839879524e-08
5.13,0.01519157517868857,77.50000146512164,0,60,1.0,4,3.447345039496534e-08
5.135,0.023847336626128316,77.50000098547052,0,60,1.0,4,2.318754167497579e-08
5.14,0.0359830743700859,77.50000065957421,0,60,1.0,4,1.5519393226735273e-08
5.145,0.05218887796857759,77.50000043927226,0,60,1.0,4,1.0335817785958438e-08
5.15,0.0727577001223134,77.50000029110788,0,60,1.0,4,6.849597197929945e-09
5.155,0.0974992498694751,77.50000019196597,0,60,1.0,4,4.516846274782438e-09
5.16,0.12558706050443358,77.50000012596347,0,60,1.0,4,2.963846287350273e-09
5.165,0.15549263588878245,77.50000008224605,0,60,1.0,4,1.9352010921840486e-09
5.17,0.1850529723539114,77.5000000534362,0,60,1.0,4,1.2573222567666295e-09
5.175,0.21169159439317053,77.50000003454666,0,60,1.0,4,8.128625615748152e-10
5.18,0.23277292922115492,77.50000002222423,0,60,1.0,4,5.229230068567524e-10
5.185,0.24602692519491282,77.50000001422649,0,60,1.0,4,3.3474086247973474e-10
5.19,0.24995056064839283,77.50000000906188,0,60,1.0,4,2.1322066726604723e-10
5.195,0.24408826520424054,77.50000000574367,0,60,1.0,4,1.3514522834157106e-10
5.2,0.22911894216865275,77.50000000362252,0,60,1.0,4,8.523570346262525e-11
5.205,0.20672661788705934,77.50000000227342,0,60,1.0,4,5.349233213243732e-11
5.21,0.17928878030241233,77.50000000141972,0,60,1.0,4,3.3405205399236256e-11
5.215,0.14946211903866036,77.50000000088221,0,60,1.0,4,2.0757879075758598e-11
5.22,0.1197651512573837,77.5000000005455,0,60,1.0,4,1.283524397877045e-11
5.225,0.09224675744988023,77.50000000033563,0,60,1.0,4,7.897222745026846e-12
5.23,0.06829565320281596,77.50000000020549,0,60,1.0,4,4.8350343336899055e-12
5.235,0.04860224607515734,77.50000000012518,0,60,1.0,4,2.9454922161462225e-12
5.24,0.03324612389699793,77.50000000007589,0,60,1.0,4,1.7855520983336164e-12
5.245,0.021859876340472782,77.50000000004577,0,60,1.0,4,1.0770156008862506e-12
5.25,0.01381595518554205,77.50000000002747,0,60,1.0,4,6.463431097525994e-13
5.255,0.008394095110402422,77.50000000001641,0,60,1.0,4,3.862008752013721e-13
5.26,0.0049052535271608,77.50000000000975,0,60,1.0,4,2.2937991375596645e-13
5.265,0.0027671663551903634,77.50000000000577,0,60,1.0,4,1.3575545916169443e-13
5.27,0.0015425553464444616,77.5000000000034,0,60,1.0,4,7.991515945725361e-14
5.275,0.0009638206637011801,77.50000000000199,0,60,1.0,4,4.681222729713601e-14
5.28,0.0009804935156568228,77.50000000000115,0,60,1.0,4,2.7084217221914406e-14
5.285,0.0018793744894085216,77.50000000000067,0,60,1.0,4,1.5715533449752805e-14
5.29,0.004535525206900863,77.50000000000038,0,60,1.0,4,9.028072407304802e-15
5.295,0.010832767979632273,77.50000000000023,0,60,1.0,4,5.349968833958401e-15
5.3,0.024208003392322392,77.50000000000013,0,60,1.0,4,3.0093574691016007e-15
5.305,0.0500971897335304,77.50000000000007,0,60,1.0,4,1.6718652606120004e-15
5.31,0.09582894921774403,77.50000000000004,0,60,1.0,4,1.0031191563672002e-15
5.315,0.16937896721820658,77.50000000000003,0,60,1.0,4,6.687461042448002e-16
5.32,0.27661303008991756,77.50000000000001,0,60,1.0,4,3.343730521224001e-16
5.325,0.4173782800009149,77.5,0,60,1.0,4,0.0
5.33,0.5818720934538056,77.5,0,60,1.0,4,0.0
5.335,0.7494718801585675,77.5,0,60,1.0,4,0.0
5.34,0.891813020752378,77.5,0,60,1.0,4,0.0
5.345,0.9800361632936612,77.5,0,60,1.0,4,0.0
5.35,0.993574479225126,77.50000249379623,1,60,1.0,4,5.8677558372972485e-08
5.355,0.9263438449375362,77.50000387113866,0,60,1.0,4,9.108561551543329e-08
5.36,0.7873015962290536,77.50000614495686,0,60,1.0,4,1.44587220146979e-07
5.365,0.5959516244629897,77.50001009206693,0,60,1.0,4,2.3746039834590835e-07
5.37,0.376910120078773,77.5000173369902,0,60,1.0,4,4.079291811114458e-07
5.375,0.15739335672107918,77.50003134163862,0,60,1.0,4,7.37450320417231e-07
5.38,-0.033361226269301235,77.50005950089377,0,60,1.0,4,1.4000210298678105e-06
5.385,-0.1680180840843834,77.50011746182723,0,60,1.0,4,2.7638076995331443e-06
5.39,-0.23069703190837854,77.50023776471434,0,60,1.0,4,5.594463866868062e-06
5.395,-0.22587267821131068,77.50048658883156,0,60,1.0,4,1.1449148977964583e-05
5.4,-0.17718181630665902,77.50099513789219,0,60,1.0,4,2.341500922799402e-05
5.405,-0.11494332516451301,77.50201644570332,0,60,1.0,4,4.744578125456321e-05
5.41,-0.061810214049552864,77.50402451354624,0,60,1.0,4,9.469443638214911e-05
5.415,-0.026546104631500547,77.50788085207563,0,60,1.0,4,0.00018543181354422868
5.42,-0.00719600351942686,77.51510323642296,0,60,1.0,4,0.0003553702687755129
5.425,0.0022072757983807078,77.52828124048683,0,60,1.0,4,0.0006654409526313831
5.43,0.006917199873730717,77.55168968563063,0,60,1.0,4,0.001216227897191402
5.435,0.01004859748264829,77.59214923171803,0,60,1.0,4,0.002168217216894712
5.44,0.013037082251128167,77.66016563836381,0,60,1.0,4,0.0037686032556189944
5.445,0.01645163937690478,77.77133735087011,0,60,1.0,4,0.006384408255767352
5.45,0.020526639934696615,77.94794785355886,0,60,1.0,4,0.01053994949550255
5.455,0.02539629541761738,78.22055245920677,0,60,1.0,4,0.01695417551074757
5.46,0.031171612185577933,78.62923630281921,0,60,1.0,4,0.02657026594868726
5.465,0.03795853426638131,79.22408280415199,0,60,1.0,4,0.040566654215340954
5.47,0.0458588961882057,80.06428738171843,0,60,1.0,4,0.06033617368749246
5.475,0.054966995891435555,81.21533054261677,0,60,1.0,4,0.0874195421792181
5.48,0.06536491004445595,82.74374175486754,0,60,1.0,4,0.12338215893805983
5.485,0.07711726085088699,84.70928122426405,0,60,1.0,4,0.16963014645327168
5.49,0.09026570629555215,87.1548465652038,0,60,1.0,4,0.2271728603577364
5.495,0.10482339848670268,90.09502724164179,0,60,1.0,4,0.29635358215627733
5.5,0.12076968927580028,93.50487114298438,0,60,1.0,4,0.3765852033643385
5.505,0.13804539501007884,97.31093238205123,0,60,1.0,4,0.46613958546002904
5.51,0.15654895051787066,101.38685595826713,0,60,1.0,4,0.5620436696062855
5.515,0.17613378141900526,105.55547445391579,0,60,1.0,4,0.6601288106803715
5.52,0.19660720058055794,109.59858538401849,0,60,1.0,4,0.755260832565141
5.525,0.21773108748496234,113.27431955233847,0,60,1.0,4,0.8417486953491404
5.53,0.23922453870058807,116.34051861380365,0,60,1.0,4,0.9138945556189094
5.535,0.2607685857914563,118.58114006736284,0,60,1.0,4,0.9666150604085374
5.54,0.2820129681603682,119.8317565853096,0,60,1.0,4,0.9960413314190495
5.545,0.30258482867153996,120.0,0,60,1.0,4,1.0
5.55,0.3220990771751686,119.07744164457799,0,60,1.0,4,0.9782927445783056
5.555,0.3401700499968971,117.14080910839245,0,60,1.0,4,0.9327249201974693
5.56,0.3564239911198326,114.34232070302158,0,60,1.0,4,0.8668781341887432
5.565,0.3705118017738417,110.89084986176812,0,60,1.0,4,0.7856670555710146
5.57,0.3821214567925213,107.02717543587835,0,60,1.0,4,0.6947570690794905
5.575,0.39098947374066967,102.99739961797562,0,60,1.0,4,0.5999388145406027
5.58,0.3969108472035567,99.02858404930407,0,60,1.0,4,0.5065549188071546
5.585,0.3997469255491936,95.309845089302,0,60,1.0,4,0.4190551785718118
5.59,0.3994308076379137,91.98081845212747,0,60,1.0,4,0.340725140050058
5.595,0.3959699661768434,89.12790132529386,0,60,1.0,4,0.27359767824220854
5.6,0.38944595408114946,86.78734731342963,0,60,1.0,4,0.21852581913952082
5.605,0.38001120995358023,84.9533724015562,0,60,1.0,4,0.17537346827191044
5.61,0.3678831374098315,83.58903512890868,0,60,1.0,4,0.14327141479785122
5.615,0.35333577933796634,82.63774874869135,0,60,1.0,4,0.1208882058515612
5.62,0.33668953221163944,82.0337334377467,0,60,1.0,4,0.10667608088815775
5.625,0.3182994390982644,81.71034347243264,0,60,1.0,4,0.09906690523370919
5.63,0.29854265738230645,81.60583753471548,0,60,1.0,4,0.09660794199330533
5.635,0.2778057157821067,81.66667643687869,0,60,1.0,4,0.0980394455736162
5.64,0.2564721553719815,81.84876988678565,0,60,1.0,4,0.10232399733613286
5.645,0.23491109433464996,82.11724772973115,0,60,1.0,4,0.10864112305249758
5.65,0.21346717185309805,82.44533609838746,0,60,1.0,4,0.11636084937382253
5.655,0.19245222055656455,82.81282786982345,0,60,1.0,4,0.1250077145840812
5.66,0.17213889801761392,83.2045024139376,0,60,1.0,4,0.13422358621029656
5.665,0.15275638501270183,83.60871282730876,0,60,1.0,4,0.14373441946608856
5.67,0.13448814019607322,84.01624472320185,0,60,1.0,4,0.15332340525180826
5.675,0.11747159495449566,84.41946941505593,0,60,1.0,4,0.1628110450601395
5.68,0.10179958433370105,84.81176549258696,0,60,1.0,4,0.17204154100204605
5.685,0.08752324394101413,85.18715992974894,0,60,1.0,4,0.18087435128821044
5.69,0.07465606047174059,85.54013465057005,0,60,1.0,4,0.18917963883694242
5.695,0.0631787448609295,85.86554926666517,0,60,1.0,4,0.1968364533332981
5.7,0.05304460019959574,86.1586397512219,0,60,1.0,4,0.20373270002875055
5.705,0.044185078305849994,86.41506250951961,0,60,1.0,4,0.20976617669457917
5.71,0.03651525513023255,86.6309617919093,0,60,1.0,4,0.2148461598096306
5.715,0.0299390014708757,86.80304503126104,0,60,1.0,4,0.21889517720614202
5.72,0.024353677220580638,86.92865552465399,0,60,1.0,4,0.22185071822715272
5.725,0.01965423034339045,87.00583527328615,0,60,1.0,4,0.22366671231261534
5.73,0.015736632374757337,87.03337316307264,0,60,1.0,4,0.22431466266053268
5.735,0.012500627640593535,87.01083537210316,0,60,1.0,4,0.22378436169654492
5.74,0.009851811652115898,86.938576193165,0,60,1.0,4,0.22208414572152954
5.745,0.007703084175428559,86.81772852740197,0,60,1.0,4,0.2192406712329875
5.75,0.005975544002062424,86.65017423074696,0,60,1.0,4,0.21529821719404602
5.755,0.004598905818663047,86.43849531771997,0,60,1.0,4,0.2103175368875287
5.76,0.0035115256454839104,86.18590775527554,0,60,1.0,4,0.20437430012413027
5.765,0.002660121266303676,85.8961802035904,0,60,1.0,4,0.19755718126095068
5.77,0.0019992692560877024,85.57354056557351,0,60,1.0,4,0.1899656603664355
5.775,0.0014907520044639367,85.22257357723743,0,60,1.0,4,0.1817076135820571
5.78,0.0011028178277539807,84.84811289585821,0,60,1.0,4,0.17289677402019313
5.785,0.0008094059938923333,84.4551312173353,0,60,1.0,4,0.16365014629024252
5.79,0.0005893771793717645,84.04863188079896,0,60,1.0,4,0.15408545601879917
5.795,0.0004257792353490551,83.63354520691325,0,60,1.0,4,0.1443187107509001
5.8,0.0003051686392901525,83.21463248261027,0,60,1.0,4,0.13446194076730048
5.805,0.00021699992642659966,82.79640007066425,0,60,1.0,4,0.12462117813327642
5.81,0.00015308884054097838,82.38302561301214,0,60,1.0,4,0.11489472030616793
5.815,0.00010714989329311098,81.97829773979932,0,60,1.0,4,0.1053717115246898
5.82,7.440535854020571e-05,81.58557012016932,0,60,1.0,4,0.09613106165104288
5.825,5.1260276743925106e-05,81.20773012323724,0,60,1.0,4,0.08724070878205271
5.83,3.503659887882241e-05,80.84718182348887,0,60,1.0,4,0.07875721937620864
5.835,2.375894748103639e-05,80.50584260541186,0,60,1.0,4,0.07072570836263192
5.84,1.5984413869232557e-05,80.18515221437653,0,60,1.0,4,0.06318005210297717
5.845,1.0669166579899869e-05,79.88609277648273,0,60,1.0,4,0.05614335944665239
5.85,7.06526633560511e-06,79.60921807587849,0,60,1.0,4,0.0496286606089056
5.855,4.641847214699205e-06,79.35469023543456,0,60,1.0,4,0.04363977024551907
5.86,3.025641074479182e-06,79.12232189244838,0,60,1.0,4,0.03817227982231489
5.865,1.9566278676921314e-06,78.91162198804986,0,60,1.0,4,0.03321463501293786
5.87,1.2553456560008793e-06,78.72184338679695,0,60,1.0,4,0.02874925615992819
5.875,7.990660428214668e-07,78.55203069891354,0,60,1.0,4,0.024753663503848014
5.88,5.046221251618276e-07,78.4010668777479,0,60,1.0,4,0.021201573594068095
5.885,3.1616527078858815e-07,78.2677173949188,0,60,1.0,4,0.018063938703971872
5.89,1.9652884407760343e-07,78.15067104128426,0,60,1.0,4,0.015309906853747179
5.895,1.2120002189836396e-07,78.04857665043636,0,60,1.0,4,0.012907685892620226
5.9,7.415549848886236e-08,77.96007528166045,0,60,1.0,4,0.010825300744951792
5.905,4.501406988770349e-08,77.88382762196936,0,60,1.0,4,0.009031238163984934
5.91,0.0,77.81853656491259,0,60,1.0,4,0.007494977997943325
5.915,0.0,77.76296509259281,0,60,1.0,4,0.006187413943360177
5.92,0.0,77.71594972407637,0,60,1.0,4,0.005081169978267459
5.925,0.0,77.6764098974902,0,60,1.0,4,0.004150821117416533
5.93,0.0,77.64335372555104,0,60,1.0,4,0.003373028836494996
5.935,0.0,77.61588060740796,0,60,1.0,4,0.0027266025272461
5.94,0.0,77.59318119681424,0,60,1.0,4,0.002192498748570415
5.945,0.0,77.5745352217389,0,60,1.0,4,0.001753769923268197
5.95,0.0,77.55930762785665,0,60,1.0,4,0.0013954735966271582
5.955,0.0,77.54694348223622,0,60,1.0,4,0.001104552523205083
5.96,0.0,77.53696202809876,0,60,1.0,4,0.0008696947787942623
5.965,0.0,77.52895023050213,0,60,1.0,4,0.0006811818941678345
5.97,0.0,77.52255609948452,0,60,1.0,4,0.0005307317525768988
5.975,0.0,77.5174820242859,0,60,1.0,4,0.0004113417479034604
5.98,0.0,77.51347830188524,0,60,1.0,4,0.0003171365149468971
5.985,0.0,77.51033699680363,0,60,1.0,4,0.00024322345420306889
5.99,0.0,77.50788622796446,0,60,1.0,4,0.00018555830504617596
5.995,0.0,77.50598494293993,0,60,1.0,4,0.00014082218682193236
6.0,0.0,77.50451821032726,0,60,1.0,4,0.00010631083122970107
6.005,0.0,77.50339303715964,0,60,1.0,4,7.983616846211268e-05
6.01,0.0,77.50253469979884,0,60,1.0,4,5.963999526690767e-05
6.015,0.0,77.50188356315793,0,60,1.0,4,4.431913312781516e-05
6.02,0.0,77.5013923537419,0,60,1.0,4,3.276126451543646e-05
6.025,0.0,77.501023846212,0,60,1.0,5,2.4090499105715722e-05
6.03,0.0,77.50074892031576,0,60,1.0,5,1.7621654488413484e-05
6.035,0.0,77.5005449444552,0,60,1.0,5,1.2822222475292353e-05
6.04,0.0,77.50039444332097,0,60,1.0,5,9.281019316965873e-06
6.045,0.0,77.50028400940215,0,60,1.0,5,6.682574168253803e-06
6.05,0.0,77.5002034213682,0,60,1.0,5,4.786385134072107e-06
6.055,0.0,77.50014493596511,0,60,1.0,5,3.410258002598793e-06
6.06,0.0,77.50010272390129,0,60,1.0,5,2.417032971593739e-06
6.065,0.0,77.50007242401301,0,60,1.0,5,1.704094423824726e-06
6.07,0.0,77.50005079364838,0,60,1.0,5,1.1951446678642029e-06
6.075,0.0,77.50003543659405,0,60,1.0,5,8.338022128635417e-07
6.08,0.0,77.50002459293042,0,60,1.0,5,5.786571862512681e-07
6.085,0.0,77.50001697791406,0,60,1.0,5,3.994803307705297e-07
6.09,0.001684486749771458,77.5000116593442,0,60,1.0,5,2.7433751049155786e-07
6.095,0.003097557930867117,77.50000796488771,0,60,1.0,5,1.874091226989763e-07
6.1,0.005475106668887023,77.5000054125377,0,60,1.0,5,1.2735382831445296e-07
6.105,0.00930222931468658,77.50000365879397,0,60,1.0,5,8.608926992458103e-08
6.11,0.01519157517868857,77.50000246031502,0,60,1.0,5,5.7889765096607495e-08
6.115,0.023847336626128316,77.50000164573241,0,60,1.0,5,3.8723115548076324e-08
6.12,0.0359830743700859,77.500001095074,0,60,1.0,5,2.5766447004785092e-08
6.125,0.05218887796857759,77.50000072484218,0,60,1.0,5,1.7055110139849337e-08
6.13,0.0727577001223134,77.50000047726456,0,60,1.0,5,1.1229754443989162e-08
6.135,0.0974992498694751,77.50000031260122,0,60,1.0,5,7.355322729969938e-09
6.14,0.12558706050443358,77.50000020367507,0,60,1.0,5,4.79235462294395e-09
6.145,0.15549263588878245,77.50000013200818,0,60,1.0,5,3.106074874428005e-09
6.15,0.1850529723539114,77.50000008510979,0,60,1.0,5,2.0025832809016505e-09
6.155,0.21169159439317053,77.50000005458509,0,60,1.0,5,1.284354980538517e-09
6.16,0.23277292922115492,77.50000003482444,0,60,1.0,5,8.193985516246518e-10
6.165,0.24602692519491282,77.5000000221009,0,60,1.0,5,5.200213175104342e-10
6.17,0.24995056064839283,77.50000001395249,0,60,1.0,5,3.2829381566176274e-10
6.175,0.24408826520424054,77.50000000876211,0,60,1.0,5,2.0616740210457733e-10
6.18,0.22911894216865275,77.50000000547372,0,60,1.0,5,1.2879347784345396e-10
6.185,0.20672661788705934,77.50000000340151,0,60,1.0,5,8.003553375601768e-11
6.19,0.17928878030241233,77.5000000021027,0,60,1.0,5,4.9475174284238806e-11
6.195,0.14946211903866036,77.50000000129299,0,60,1.0,5,3.0423266520408696e-11
6.2,0.1197651512573837,77.50000000079092,0,60,1.0,5,1.86098665889243e-11
6.205,0.09224675744988023,77.50000000048126,0,60,1.0,5,1.1323877783177202e-11
6.21,0.06829565320281596,77.50000000029131,0,60,1.0,5,6.854313195457079e-12
6.215,0.04860224607515734,77.5000000001754,0,60,1.0,5,4.1271665823467845e-12
6.22,0.03324612389699793,77.50000000010506,0,60,1.0,5,2.4720199743409036e-12
6.225,0.021859876340472782,77.5000000000626,0,60,1.0,5,1.4729132945991723e-12
6.23,0.01381595518554205,77.5000000000371,0,60,1.0,5,8.730480390915867e-13
6.235,0.008394095110402422,77.50000000002187,0,60,1.0,5,5.146001272163737e-13
6.24,0.0049052535271608,77.50000000001283,0,60,1.0,5,3.0193886606652727e-13
6.245,0.0027671663551903634,77.50000000000749,0,60,1.0,5,1.7621459846850485e-13
6.25,0.0015425553464444616,77.50000000000435,0,60,1.0,5,1.0231815394945443e-13
6.255,0.0009638206637011801,77.5000000000025,0,60,1.0,5,5.884965717354242e-14
6.26,0.0009804935156568228,77.50000000000144,0,60,1.0,5,3.377167826436241e-14
6.265,0.0018793744894085216,77.50000000000082,0,60,1.0,5,1.9393637023099206e-14
6.27,0.004535525206900863,77.50000000000047,0,60,1.0,5,1.1034310720039203e-14
6.275,0.010832767979632273,77.50000000000027,0,60,1.0,5,6.353087990325602e-15
6.28,0.024208003392322392,77.50000000000014,0,60,1.0,5,3.343730521224001e-15
6.285,0.0500971897335304,77.50000000000009,0,60,1.0,5,2.0062383127344005e-15
6.29,0.09582894921774403,77.50000000000004,0,60,1.0,5,1.0031191563672002e-15
6.295,0.16937896721820658,77.50000000000003,0,60,1.0,5,6.687461042448002e-16
6.3,0.27661303008991756,77.50000000000001,0,60,1.0,5,3.343730521224001e-16
6.305,0.4173782800009149,77.5,0,60,1.0,5,0.0
6.31,0.5818720934538056,77.5,0,60,1.0,5,0.0
6.315,0.7494718801585675,77.5,0,60,1.0,5,0.0
6.32,0.891813020752378,77.5,0,60,1.0,5,0.0
6.325,0.9800361632936612,77.5,0,60,1.0,5,0.0
6.33,0.993574479225126,77.50000249206059,1,60,1.0,5,5.8636719720251515e-08
6.335,0.9263438449375362,77.50000388649308,0,60,1.0,5,9.144689590143303e-08
6.34,0.7873015962290536,77.50000620174501,0,60,1.0,5,1.4592341197866892e-07
6.345,0.5959516244629897,77.50001024868433,0,60,1.0,5,2.411455137221577e-07
6.35,0.376910120078773,77.50001773713392,0,60,1.0,5,4.1734432744199103e-07
6.355,0.15739335672107918,77.50003234050088,0,60,1.0,5,7.609529618816047e-07
6.36,-0.033361226269301235,77.50006196542242,0,60,1.0,5,1.4580099392493568e-06
6.365,-0.1680180840843834,77.50012345839556,0,60,1.0,5,2.9049034250259437e-06
6.37,-0.23069703190837854,77.50025207253846,0,60,1.0,5,5.93111855196452e-06
6.375,-0.22587267821131068,77.50051989833095,0,60,1.0,5,1.2232901904700852e-05
6.38,-0.17718181630665902,77.50107053879677,0,60,1.0,5,2.5189148159236486e-05
6.385,-0.11494332516451301,77.50218205581817,0,60,1.0,5,5.134248983923124e-05
6.39,-0.061810214049552864,77.50437705138005,0,60,1.0,5,0.00010298944423639382
6.395,-0.026546104631500547,77.50860779491533,0,60,1.0,5,0.00020253635094905697
6.4,-0.00719600351942686,77.5165549676137,0,60,1.0,5,0.00038952864973412836
6.405,0.0022072757983807078,77.53108897869964,0,60,1.0,5,0.0007315053811680627
6.41,0.006917199873730717,77.55694911283238,0,60,1.0,5,0.0013399791254678748
6.415,0.01004859748264829,77.60169183598806,0,60,1.0,5,0.0023927490820720805
6.42,0.013037082251128167,77.67693707547176,0,60,1.0,5,0.0041632253052177794
6.425,0.01645163937690478,77.7998909378598,0,60,1.0,5,0.0070562573614070595
6.43,0.020526639934696615,77.99503777956711,0,60,1.0,5,0.011647947754520306
6.435,0.02539629541761738,78.29577278054447,0,60,1.0,5,0.01872406542457571
6.44,0.031171612185577933,78.74559890656192,0,60,1.0,5,0.029308209566162906
6.445,0.03795853426638131,79.39836652237483,0,60,1.0,5,0.04466744758529009
6.45,0.0458588961882057,80.3169349302758,0,60,1.0,5,0.0662808218888425
6.455,0.054966995891435555,81.56964085920548,0,60,1.0,5,0.09575625551071713
6.46,0.06536491004445595,83.22412774219025,0,60,1.0,5,0.13468535863977055
6.465,0.07711726085088699,85.33845947360807,0,60,1.0,5,0.18443434055548397
6.47,0.09026570629555215,87.95000681664004,0,60,1.0,5,0.24588251333270686
6.475,0.10482339848670268,91.06328339863445,0,60,1.0,5,0.3191360799678695
6.48,0.12076968927580028,94.63858211835603,0,60,1.0,5,0.40326075572602416
6.485,0.13804539501007884,98.5837320054619,0,60,1.0,5,0.4960878118932211
6.49,0.15654895051787066,102.75136341377669,0,60,1.0,5,0.5941497273829809
6.495,0.17613378141900526,106.94359409913197,0,60,1.0,5,0.6927904493913405
6.5,0.19660720058055794,110.92500582405262,0,60,1.0,5,0.7864707252718264
6.505,0.21773108748496234,114.44330342499879,0,60,1.0,5,0.8692541982352656
6.51,0.23922453870058807,117.25542188596262,0,60,1.0,5,0.9354216914344146
6.515,0.2607685857914563,119.15545481965574,0,60,1.0,5,0.9801283486977822
6.52,0.2820129681603682,120.0,0,60,1.0,5,1.0
6.525,0.30258482867153996,119.72661680769721,0,60,1.0,5,0.9935674542987579
6.53,0.3220990771751686,118.36212003966133,0,60,1.0,5,0.9614616479920314
6.535,0.3401700499968971,116.0192046826335,0,60,1.0,5,0.9063342278266706
6.54,0.3564239911198326,112.88201428084409,0,60,1.0,5,0.8325179830786844
6.545,0.3705118017738417,109.18324133098602,0,60,1.0,5,0.7454880313173181
6.55,0.3821214567925213,105.17673159742563,0,60,1.0,5,0.6512172140570737
6.555,0.39098947374066967,101.1100694710858,0,60,1.0,5,0.5555310463784893
6.56,0.3969108472035567,97.20119773854125,0,60,1.0,5,0.46355759384802947
6.565,0.3997469255491936,93.62195394509827,0,60,1.0,5,0.37934009282584163
6.57,0.3994308076379137,90.48983035382798,0,60,1.0,5,0.3056430671488937
6.575,0.3959699661768434,87.86768093596174,0,60,1.0,5,0.24394543378733516
6.58,0.38944595408114946,85.76984429058865,0,60,1.0,5,0.19458457154326236
6.585,0.38001120995358023,84.17242779702583,0,60,1.0,5,0.15699830110649018
6.59,0.3678831374098315,83.02534578800257,0,60,1.0,5,0.1300081361882957
6.595,0.35333577933796634,82.26402464586049,0,60,1.0,5,0.11209469754965853
6.6,0.33668953221163944,81.8192991437891,0,60,1.0,5,0.10163056808915519
6.605,0.3182994390982644,81.62472762003841,0,60,1.0,5,0.09705241458913914
6.61,0.29854265738230645,81.62118407871675,0,60,1.0,5,0.09696903714627651
6.615,0.2778057157821067,81.75904264873614,0,60,1.0,5,0.10021276820555626
6.62,0.2564721553719815,81.9985219925281,0,60,1.0,5,0.10584757629477876
6.625,0.23491109433464996,82.30882611113378,0,60,1.0,5,0.11314884967373606
6.63,0.21346717185309805,82.66665602002601,0,60,1.0,5,0.12156837694178849
6.635,0.19245222055656455,83.05453424588724,0,60,1.0,5,0.13069492343264094
6.64,0.17213889801761392,83.45923266320771,0,60,1.0,5,0.14021723913429918
6.645,0.15275638501270183,83.87045877227034,0,60,1.0,5,0.1498931475828315
6.65,0.13448814019607322,84.2798534333411,0,60,1.0,5,0.15952596313743772
6.655,0.11747159495449566,84.68028767641711,0,60,1.0,5,0.16894794532746138
6.66,0.10179958433370105,85.06541226325399,0,60,1.0,5,0.1780097003118586
6.665,0.08752324394101413,85.42940233018484,0,60,1.0,5,0.18657417247493746
6.67,0.07465606047174059,85.76684174356433,0,60,1.0,5,0.19451392337798418
6.675,0.0631787448609295,86.07270061918209,0,60,1.0,5,0.20171060280428438
6.68,0.05304460019959574,86.34237003707361,0,60,1.0,5,0.20805576557820252
6.685,0.044185078305849994,86.57172770912837,0,60,1.0,5,0.21345241668537335
6.69,0.03651525513023255,86.75721616923929,0,60,1.0,5,0.21781685104092435
6.695,0.0299390014708757,86.89592083331073,0,60,1.0,5,0.2210804901955465
6.7,0.024353677220580638,86.98563934776703,0,60,1.0,5,0.22319151406510668
6.705,0.01965423034339045,87.02493647066403,0,60,1.0,5,0.22411615225091838
6.71,0.015736632374757337,87.01318073228062,0,60,1.0,5,0.22383954664189687
6.715,0.012500627640593535,86.95056062220486,0,60,1.0,5,0.2223661322871732
6.72,0.009851811652115898,86.83807925732597,0,60,1.0,5,0.2197195119370817
6.725,0.007703084175428559,86.67752751899921,0,60,1.0,5,0.21594182397645206
6.73,0.005975544002062424,86.47143656288762,0,60,1.0,5,0.21109262500912043
6.735,0.004598905818663047,86.22301141626089,0,60,1.0,5,0.20524732744143268
6.74,0.0035115256454839104,85.9360480776319,0,60,1.0,5,0.19849524888545636
6.745,0.002660121266303676,85.61483710619105,0,60,1.0,5,0.19093734367508344
6.75,0.0019992692560877024,85.26405711630112,0,60,1.0,5,0.18268369685414393
6.755,0.0014907520044639367,84.88866186212869,0,60,1.0,5,0.17385086734420438
6.76,0.0011028178277539807,84.49376470286529,0,60,1.0,5,0.16455916947918334
6.765,0.0008094059938923333,84.08452418143106,0,60,1.0,5,0.15492998073955444
6.77,0.0005893771793717645,83.66603423862483,0,60,1.0,5,0.1450831585558784
6.775,0.0004257792353490551,83.24322223736209,0,60,1.0,5,0.135134640879108
6.78,0.0003051686392901525,82.82075751109831,0,60,1.0,5,0.1251942943787837
6.785,0.00021699992642659966,82.40297260454615,0,60,1.0,5,0.11536406128343883
6.79,0.00015308884054097838,81.9937987739174,0,60,1.0,5,0.10573644173923305
6.795,0.00010714989329311098,81.5967166896027,0,60,1.0,5,0.09639333387300472
6.8,7.440535854020571e-05,81.21472266694637,0,60,1.0,5,0.08740523922226758
6.805,5.1260276743925106e-05,80.85031016848625,0,60,1.0,5,0.07883082749379401
6.81,3.503659887882241e-05,80.50546579764779,0,60,1.0,5,0.07071684229759499
6.815,2.375894748103639e-05,80.18167855835483,0,60,1.0,5,0.0630983190201137
6.82,1.5984413869232557e-05,79.87996080067171,0,60,1.0,5,0.055999077662863786
6.825,1.0669166579899869e-05,79.60087901688703,0,60,1.0,5,0.049432447456165526
6.83,7.06526633560511e-06,79.34459249714048,0,60,1.0,5,0.04340217640330546
6.835,4.641847214699205e-06,79.1108977952886,0,60,1.0,5,0.037903477536202206
6.84,3.025641074479182e-06,78.8992769862145,0,60,1.0,5,0.032924164381517705
6.845,1.9566278676921314e-06,78.70894780365752,0,60,1.0,5,0.028445830674294657
6.85,1.2553456560008793e-06,78.53891391879662,0,60,1.0,5,0.024445033383449968
6.855,7.990660428214668e-07,78.38801383874541,0,60,1.0,5,0.02089444326459784
6.86,5.046221251618276e-07,78.25496715486534,0,60,1.0,5,0.017763933055655077
6.865,3.1616527078858815e-07,78.13841713794321,0,60,1.0,5,0.015021579716310766
6.87,1.9652884407760343e-07,78.03696894665431,0,60,1.0,5,0.012634563450689699
6.875,1.2120002189836396e-07,77.94922297505981,0,60,1.0,5,0.010569952354348502
6.88,7.415549848886236e-08,77.8738031041554,0,60,1.0,5,0.008795367156597636
6.885,4.501406988770349e-08,77.8093798341656,0,60,1.0,5,0.007279525509778751
6.89,0.0,77.75468845334072,0,60,1.0,5,0.005992669490369869
6.895,0.0,77.7085425428285,0,60,1.0,5,0.004906883360670503
6.9,0.0,77.6698432252712,0,60,1.0,5,0.003996311182851621
6.905,0.0,77.63758463845281,0,60,1.0,5,0.0032372856106542927
6.91,0.0,77.6108561573609,0,60,1.0,5,0.002608380173197635
6.915,0.0,77.5888419022451,0,60,1.0,5,0.002090397699884547
6.92,0.0,77.5708180611178,0,60,1.0,5,0.0016663073204189432
6.925,0.0,77.55614852741415,0,60,1.0,5,0.0013211418215094534
6.93,0.0,77.54427931196614,0,60,1.0,5,0.001041866163909082
6.935,0.0,77.53473213754465,0,60,1.0,5,0.000817226765756499
6.94,0.0,77.52709756803894,0,60,1.0,5,0.0006375898362103485
6.945,0.0,77.52102796635984,0,60,1.0,5,0.0004947756790550236
6.95,0.0,77.5162305182252,0,60,1.0,5,0.0003818945464752901
6.955,0.0,77.51246050531307,0,60,1.0,5,0.0002931883603075809
6.96,0.0,77.50951496242737,0,60,1.0,5,0.00022388146887939966
6.965,0.0,77.50722681031257,0,60,1.0,5,0.0001700425955899685
6.97,0.0,77.50545951908494,0,60,1.0,5,0.00012845927258675093
6.975,0.0,77.50410232700878,0,60,1.0,5,9.652534138307173e-05
6.98,0.0,77.50306601530963,0,60,1.0,5,7.214153669712473e-05
6.985,0.0,77.50227922141525,0,60,1.0,5,5.362873918235945e-05
6.99,0.0,77.50168525983179,0,60,1.0,5,3.965317251266456e-05
6.995,0.0,77.50123941108798,0,60,1.0,5,2.916261383481523e-05
7.0,0.0,77.50090663407934,0,60,1.0,5,2.1332566572763266e-05
7.005,0.0,77.5006596549978,0,60,1.0,5,1.5521294065980756e-05
7.01,0.0,77.50047738616604,0,60,1.0,5,1.1232615671521189e-05
7.015,0.0,77.50034362990894,0,60,1.0,5,8.085409622120043e-06
7.02,0.0,77.50024602556587,0,60,1.0,5,5.788836844043116e-06
7.025,0.0,77.50017520144215,0,60,1.0,5,4.122386874047044e-06
7.03,0.0,77.50012409756755,0,60,1.0,5,2.919942765883581e-06
7.035,0.0,77.500087429303,0,60,1.0,5,2.057160070441622e-06
7.04,0.0,77.50006126591418,0,60,1.0,5,1.4415509219682409e-06
7.045,0.0,77.50004270207464,0,60,1.0,5,1.004754697345668e-06
7.05,0.0,77.50002960378131,0,60,1.0,5,6.96559560337311e-07
7.055,0.0,77.5000204133158,0,60,1.0,5,4.803133128247924e-07
7.06,0.001684486749771458,77.50001400064605,0,60,1.0,5,3.294269658106393e-07
7.065,0.003097557930867117,77.50000955104196,0,60,1.0,5,2.247303989540395e-07
7.07,0.005475106668887023,77.50000648069503,0,60,1.0,5,1.5248694199619744e-07
7.075,0.00930222931468658,77.50000437381664,0,60,1.0,5,1.0291333263226346e-07
7.08,0.01519157517868857,77.50000293607884,0,60,1.0,5,6.908420807442727e-08
7.085,0.023847336626128316,77.5000019603924,0,60,1.0,5,4.6126879905226385e-08
7.09,0.0359830743700859,77.50000130192649,0,60,1.0,5,3.063356443282614e-08
7.095,0.05218887796857759,77.50000085999925,0,60,1.0,5,2.0235276398285778e-08
7.1,0.0727577001223134,77.50000056503822,0,60,1.0,5,1.3295016956630313e-08
7.105,0.0974992498694751,77.50000036925445,0,60,1.0,5,8.688340023902984e-09
7.11,0.12558706050443358,77.5000002400169,0,60,1.0,5,5.6474565259550755e-09
7.115,0.15549263588878245,77.50000015517654,0,60,1.0,5,3.6512126237486133e-09
7.12,0.1850529723539114,77.50000009978802,0,60,1.0,5,2.347953528335304e-09
7.125,0.21169159439317053,77.50000006382619,0,60,1.0,5,1.5017927607379319e-09
7.13,0.23277292922115492,77.50000004060576,0,60,1.0,5,9.55429534181295e-10
7.135,0.24602692519491282,77.50000002569476,0,60,1.0,5,6.045825905269286e-10
7.14,0.24995056064839283,77.50000001617221,0,60,1.0,5,3.805225520302295e-10
7.145,0.24408826520424054,77.50000001012424,0,60,1.0,5,2.382173935235615e-10
7.15,0.22911894216865275,77.5000000063041,0,60,1.0,5,1.4833189839812215e-10
7.155,0.20672661788705934,77.50000000390439,0,60,1.0,5,9.186799295147306e-11
7.16,0.17928878030241233,77.5000000024052,0,60,1.0,5,5.659297344476834e-11
7.165,0.14946211903866036,77.50000000147372,0,60,1.0,5,3.467582299730138e-11
7.17,0.1197651512573837,77.50000000089815,0,60,1.0,5,2.113304564023993e-11
7.175,0.09224675744988023,77.50000000054445,0,60,1.0,5,1.2810500372913393e-11
7.18,0.06829565320281596,77.50000000032826,0,60,1.0,5,7.72368313097532e-12
7.185,0.04860224607515734,77.50000000019686,0,60,1.0,5,4.632069891051608e-12
7.19,0.03324612389699793,77.50000000011742,0,60,1.0,5,2.762924529687392e-12
7.195,0.021859876340472782,77.50000000006968,0,60,1.0,5,1.6394310745561276e-12
7.2,0.01381595518554205,77.50000000004111,0,60,1.0,5,9.673412397901036e-13
7.205,0.008394095110402422,77.50000000002413,0,60,1.0,5,5.677654425038354e-13
7.21,0.0049052535271608,77.50000000001408,0,60,1.0,5,3.3136369465329847e-13
7.215,0.0027671663551903634,77.50000000000819,0,60,1.0,5,1.9259887802250245e-13
7.22,0.0015425553464444616,77.50000000000472,0,60,1.0,5,1.1101185330463683e-13
7.225,0.0009638206637011801,77.50000000000271,0,60,1.0,5,6.386525295537842e-14
7.23,0.0009804935156568228,77.50000000000155,0,60,1.0,6,3.644666268134161e-14
7.235,0.0018793744894085216,77.50000000000088,0,60,1.0,6,2.0731129231588804e-14
7.24,0.004535525206900863,77.5000000000005,0,60,1.0,6,1.1703056824284003e-14
7.245,0.010832767979632273,77.50000000000028,0,60,1.0,6,6.687461042448002e-15
7.25,0.024208003392322392,77.50000000000016,0,60,1.0,6,3.678103573346401e-15
7.255,0.0500971897335304,77.50000000000009,0,60,1.0,6,2.0062383127344005e-15
7.26,0.09582894921774403,77.50000000000004,0,60,1.0,6,1.0031191563672002e-15
7.265,0.16937896721820658,77.50000000000003,0,60,1.0,6,6.687461042448002e-16
7.27,0.27661303008991756,77.50000000000001,0,60,1.0,6,3.343730521224001e-16
7.275,0.4173782800009149,77.50000000000001,0,60,1.0,6,3.343730521224001e-16
7.28,0.5818720934538056,77.5,0,60,1.0,6,0.0
7.285,0.7494718801585675,77.5,0,60,1.0,6,0.0
7.29,0.891813020752378,77.5,0,60,1.0,6,0.0
7.295,0.9800361632936612,77.5,0,60,1.0,6,0.0
7.3,0.993574479225126,77.50000249553136,1,60,1.0,6,5.871838498826358e-08
7.305,0.9263438449375362,77.5000037979206,0,60,1.0,6,8.936283761078598e-08
7.31,0.7873015962290536,77.50000589651982,0,60,1.0,6,1.387416429064187e-07
7.315,0.5959516244629897,77.5000094348155,0,60,1.0,6,2.2199565872891553e-07
7.32,0.376910120078773,77.50001571195249,0,60,1.0,6,3.6969299966425324e-07
7.325,0.15739335672107918,77.50002740197677,0,60,1.0,6,6.447523944911261e-07
7.33,-0.033361226269301235,77.5000500328844,0,60,1.0,6,1.177244338885644e-06
7.335,-0.1680180840843834,77.50009495573708,0,60,1.0,6,2.234252637248681e-06
7.34,-0.23069703190837854,77.50018514752661,0,60,1.0,6,4.356412390774601e-06
7.345,-0.22587267821131068,77.50036623180388,0,60,1.0,6,8.617218914838198e-06
7.35,-0.17718181630665902,77.50072678709442,0,60,1.0,6,1.710087280992625e-05
7.355,-0.11494332516451301,77.50143461155861,0,60,1.0,6,3.3755566084892054e-05
7.36,-0.061810214049552864,77.5027993939534,0,60,1.0,6,6.58680930210748e-05
7.365,-0.026546104631500547,77.50537738125638,0,60,1.0,6,0.0001265266177971866
7.37,-0.00719600351942686,77.5101400375162,0,60,1.0,6,0.0002385891180281038
7.375,0.0022072757983807078,77.51873573170647,0,60,1.0,6,0.00044084074603460975
7.38,0.006917199873730717,77.53387969714991,0,60,1.0,6,0.0007971693447038486
7.385,0.01004859748264829,77.55991023047092,0,60,1.0,6,0.0014096524816686858
7.39,0.013037082251128167,77.60354438392822,0,60,1.0,6,0.00243633844536997
7.395,0.01645163937690478,77.67484918417814,0,60,1.0,6,0.004114098451250423
7.4,0.020526639934696615,77.7884093308522,0,60,1.0,6,0.0067861019024047994
7.405,0.02539629541761738,77.96461536956245,0,60,1.0,6,0.01093212634264593
7.41,0.031171612185577933,78.23091721059663,0,60,1.0,6,0.017198052014038345
7.415,0.03795853426638131,78.6227928599652,0,60,1.0,6,0.02641865552859298
7.42,0.0458588961882057,79.18408665755831,0,60,1.0,6,0.03962556841313672
7.425,0.054966995891435555,79.96630039667855,0,60,1.0,6,0.058030597568907015
7.43,0.06536491004445595,81.02640747170874,0,60,1.0,6,0.08297429345197027
7.435,0.07711726085088699,82.42283947403011,0,60,1.0,6,0.11583151703600265
7.44,0.09026570629555215,84.20949296015137,0,60,1.0,6,0.15787042259179684
7.445,0.10482339848670268,86.42792724167438,0,60,1.0,6,0.21006887627469134
7.45,0.12076968927580028,89.09834551335945,0,60,1.0,6,0.2729022473731635
7.455,0.13804539501007884,92.21040668051529,0,60,1.0,6,0.3461272160121245
7.46,0.15654895051787066,95.71530488045332,0,60,1.0,6,0.4285954089518428
7.465,0.17613378141900526,99.52076142138833,0,60,1.0,6,0.518135562856196
7.47,0.19660720058055794,103.49049392863455,0,60,1.0,6,0.6115410336149306
7.475,0.21773108748496234,107.44929879905975,0,60,1.0,6,0.7046893835072882
7.48,0.23922453870058807,111.1941190293451,0,60,1.0,6,0.792802800690473
7.485,0.2607685857914563,114.51047262775617,0,60,1.0,6,0.8708346500648512
7.49,0.2820129681603682,117.1925695932531,0,60,1.0,6,0.9339428139588964
7.495,0.30258482867153996,119.06457506308963,0,60,1.0,6,0.977990001484462
7.5,0.3220990771751686,120.0,0,60,1.0,6,1.0
7.505,0.3401700499968971,119.93626626357627,0,60,1.0,6,0.9985003826723828
7.51,0.3564239911198326,118.88213103465766,0,60,1.0,6,0.9736972008154744
7.515,0.3705118017738417,116.91676286621725,0,60,1.0,6,0.9274532439109943
7.52,0.3821214567925213,114.18061934032266,0,60,1.0,6,0.8630733962428863
7.525,0.39098947374066967,110.85960266710498,0,60,1.0,6,0.7849318274612936
7.53,0.3969108472035567,107.16499075378253,0,60,1.0,6,0.6979997824419419
7.535,0.3997469255491936,103.31215997547778,0,60,1.0,6,0.6073449405994773
7.54,0.3994308076379137,99.50105733238124,0,60,1.0,6,0.5176719372324997
7.545,0.3959699661768434,95.90080270694628,0,60,1.0,6,0.43296006369285367
7.55,0.38944595408114946,92.63987384862794,0,60,1.0,6,0.35623232585006925
7.555,0.38001120995358023,89.80227211535595,0,60,1.0,6,0.2894652262436693
7.56,0.3678831374098315,87.429107562273,0,60,1.0,6,0.23362606028877655
7.565,0.35333577933796634,85.52434499291017,0,60,1.0,6,0.18880811748023937
7.57,0.33668953221163944,84.06310121889615,0,60,1.0,6,0.1544259110328506
7.575,0.3182994390982644,83.00087339718817,0,60,1.0,6,0.129432315227957
7.58,0.29854265738230645,82.28233533973716,0,60,1.0,6,0.11252553740558022
7.585,0.2778057157821067,81.84875222780497,0,60,1.0,6,0.10232358183070507
7.59,0.2564721553719815,81.64351943719842,0,60,1.0,6,0.09749457499290402
7.595,0.23491109433464996,81.61573561778272,0,60,1.0,6,0.09684083806547572
7.6,0.21346717185309805,81.7220173312601,0,60,1.0,6,0.09934158426494365
7.605,0.19245222055656455,81.92693369355118,0,60,1.0,6,0.10416314573061594
7.61,0.17213889801761392,82.20249593298601,0,60,1.0,6,0.1106469631290826
7.615,0.15275638501270183,82.52710789170109,0,60,1.0,6,0.11828489156943747
7.62,0.13448814019607322,82.88430441935833,0,60,1.0,6,0.12668951574960777
7.625,0.11747159495449566,83.26150706007847,0,60,1.0,6,0.1355648720018464
7.63,0.10179958433370105,83.64893355810317,0,60,1.0,6,0.14468078960242745
7.635,0.08752324394101413,84.03872273042094,0,60,1.0,6,0.1538522995393163
7.64,0.07465606047174059,84.42428381662813,0,60,1.0,6,0.16292432509713253
7.645,0.0631787448609295,84.79984820751459,0,60,1.0,6,0.17176113429446085
7.65,0.05304460019959574,85.16018700493531,0,60,1.0,6,0.18023969423377198
7.655,0.044185078305849994,85.50045479613394,0,60,1.0,6,0.18824599520315147
7.66,0.03651525513023255,85.81612348054294,0,60,1.0,6,0.1956734936598339
7.665,0.0299390014708757,86.10297630590426,0,60,1.0,6,0.20242297190362973
7.67,0.024353677220580638,86.35713909920837,0,60,1.0,6,0.20840327292254984
7.675,0.01965423034339045,86.5751317625649,0,60,1.0,6,0.21353251206035045
7.68,0.015736632374757337,86.75392796721998,0,60,1.0,6,0.21773948158164658
7.685,0.012500627640593535,86.89101460585793,0,60,1.0,6,0.22096504954959842
7.69,0.009851811652115898,86.98444515996042,0,60,1.0,6,0.22316341552848037
7.695,0.007703084175428559,87.0328829744056,0,60,1.0,6,0.22430312880954342
7.7,0.005975544002062424,87.03563175280645,0,60,1.0,6,0.22436780594838712
7.705,0.004598905818663047,86.99265158497569,0,60,1.0,6,0.22335650788178094
7.71,0.0035115256454839104,86.90455962174919,0,60,1.0,6,0.2212837558058632
7.715,0.002660121266303676,86.7726151996039,0,60,1.0,6,0.2181791811671507
7.72,0.0019992692560877024,86.5986898271919,0,60,1.0,6,0.21408681946333893
7.725,0.0014907520044639367,86.38522299196607,0,60,1.0,6,0.20906407039920175
7.73,0.0011028178277539807,86.13516522658897,0,60,1.0,6,0.20318035827268158
7.735,0.0008094059938923333,85.85191028364954,0,60,1.0,6,0.19651553608587163
7.74,0.0005893771793717645,85.53921859307545,0,60,1.0,6,0.1891580845429517
7.745,0.0004257792353490551,85.20113441032936,0,60,1.0,6,0.18120316259598493
7.75,0.0003051686392901525,84.84189919885794,0,60,1.0,6,0.17275056938489283
7.755,0.00021699992642659966,84.4658638252098,0,60,1.0,6,0.16390267824023047
7.76,0.00015308884054097838,84.07740208207215,0,60,1.0,6,0.15476240193110952
7.765,0.00010714989329311098,83.68082789985633,0,60,1.0,6,0.14543124470250177
7.77,7.440535854020571e-05,83.28031837196917,0,60,1.0,6,0.136007491105157
7.775,5.1260276743925106e-05,82.87984441636587,0,60,1.0,6,0.12658457450272637
7.78,3.503659887882241e-05,82.48311054260569,0,60,1.0,6,0.11724965982601615
7.785,2.375894748103639e-05,82.09350480709807,0,60,1.0,6,0.10808246604936639
7.79,1.5984413869232557e-05,81.71405963766578,0,60,1.0,6,0.09915434441566551
7.795,1.0669166579899869e-05,81.34742380962653,0,60,1.0,6,0.09052761905003609
7.8,7.06526633560511e-06,80.99584547562104,0,60,1.0,6,0.0822551876616715
7.805,4.641847214699205e-06,80.66116580464649,0,60,1.0,6,0.07438037187403498
7.81,3.025641074479182e-06,80.34482248380725,0,60,1.0,6,0.0669369996189941
7.815,1.9566278676921314e-06,80.04786208778954,0,60,1.0,6,0.05994969618328328
7.82,1.2553456560008793e-06,79.77096013143739,0,60,1.0,6,0.05343435603382097
7.825,7.990660428214668e-07,79.51444749231865,0,60,1.0,6,0.04739876452514476
7.83,5.046221251618276e-07,79.278341822098,0,60,1.0,6,0.041843336990541165
7.835,3.1616527078858815e-07,79.06238255449453,0,60,1.0,6,0.0367619424586949
7.84,1.9652884407760343e-07,78.86606815798669,0,60,1.0,6,0.03214278018792209
7.845,1.2120002189836396e-07,78.68869436592169,0,60,1.0,6,0.027969279198157438
7.85,7.415549848886236e-08,78.52939223681737,0,60,1.0,6,0.02422099380746759
7.855,4.501406988770349e-08,78.38716504432811,0,60,1.0,6,0.020874471631249742
7.86,0.0,78.26092316041584,0,60,1.0,6,0.017904074362725703
7.865,0.0,78.14951626792161,0,60,1.0,6,0.01528273571580264
7.87,0.0,78.05176241193382,0,60,1.0,6,0.012982644986678171
7.875,0.0,77.96647356610181,0,60,1.0,6,0.010975848614160268
7.88,0.0,77.89247754460511,0,60,1.0,6,0.009234765755414454
7.885,0.0,77.8286362284681,0,60,1.0,6,0.00773261714042586
7.89,0.0,77.77386019328746,0,60,1.0,6,0.0064437692538226255
7.895,0.0,77.72711992251153,0,60,1.0,6,0.005343998176741974
7.9,0.0,77.68745386566955,0,60,1.0,6,0.004410679192224787
7.905,0.0,77.65397365492345,0,60,1.0,6,0.003622909527610532
7.91,0.0,77.62586682737643,0,60,1.0,6,0.00296157240885711
7.915,0.0,77.60239741673563,0,60,1.0,6,0.0024093509820147575
7.92,0.0,77.58290477863605,0,60,1.0,6,0.0019507006737893896
7.925,0.0,77.56680100188535,0,60,1.0,6,0.0015717882796553462
7.93,0.0,77.55356723584703,0,60,1.0,6,0.0012604055493418
7.935,0.0,77.54274923483845,0,60,1.0,6,0.001005864349140077
7.94,0.0,77.5339523862881,0,60,1.0,6,0.000798879677367214
7.945,0.0,77.52683645271036,0,60,1.0,6,0.0006314459461260172
7.95,0.0,77.52111022023206,0,60,1.0,6,0.0004967110642837725
7.955,0.0,77.51652621000613,0,60,1.0,6,0.0003888520001443313
7.96,0.0,77.51287557458264,0,60,1.0,6,0.0003029546960620417
7.965,0.0,77.50998327004963,0,60,1.0,6,0.00023490047175601724
7.97,0.0,77.50770356706387,0,60,1.0,6,0.0001812604015028415
7.975,0.0,77.50591594005692,0,60,1.0,6,0.0001391985895746556
7.98,0.0,77.5045213539901,0,60,1.0,6,0.00010638479976705639
7.985,0.0,77.50343895192604,0,60,1.0,6,8.091651590689253e-05
7.99,0.0,77.50260313413699,0,60,1.0,6,6.125021498800218e-05
7.995,0.0,77.50196101013708,0,60,1.0,6,4.614141499012155e-05
8.0,0.0,77.50147019851048,0,60,1.0,6,3.459290612882422e-05
8.005,0.0,77.50109694528726,0,60,1.0,6,2.581047734726299e-05
8.01,0.0,77.50081452947285,0,60,1.0,6,1.9165399361126593e-05
8.015,0.0,77.50060192376263,0,60,1.0,6,1.4162912061893247e-05
8.02,0.0,77.50044267910418,0,60,1.0,6,1.041597892193589e-05
8.025,0.0,77.50032400327848,0,60,1.0,6,7.623606552442652e-06
8.03,0.0,77.5002360057779,0,60,1.0,6,5.553077126893079e-06
8.035,0.0,77.50017108373179,0,60,1.0,6,4.025499571432246e-06
8.04,0.0,77.50012342628081,0,60,1.0,6,2.9041477837247786e-06
8.045,0.0,77.50008861748469,0,60,1.0,6,2.0851172868841626e-06
8.05,0.0,77.50006332045746,0,60,1.0,6,1.4898931166338597e-06
8.055,0.0,77.50004502788177,0,60,1.0,6,1.0594795710136062e-06
8.06,0.0,77.50003186631457,0,60,1.0,6,7.49795636987555e-07
8.065,0.0,77.50002244372865,0,60,1.0,6,5.28087733019835e-07
8.07,0.0,77.50001573153237,0,60,1.0,6,3.701537028679441e-07
8.075,0.0,77.50001097387214,0,60,1.0,6,2.5820875614900773e-07
8.08,0.0,77.50000761836212,0,60,1.0,6,1.7925557926901092e-07
8.085,0.001684486749771458,77.50000526351877,0,60,1.0,6,1.2384750053730815e-07
8.09,0.003097557930867117,77.50000361912504,0,60,1.0,6,8.51558832651148e-08
8.095,0.005475106668887023,77.50000247653146,0,60,1.0,6,5.827132855194898e-08
8.1,0.00930222931468658,77.50000168654122,0,60,1.0,6,3.9683322938799394e-08
8.105,0.01519157517868857,77.50000114304392,0,60,1.0,6,2.6895150995187578e-08
8.11,0.023847336626128316,77.50000077097754,0,60,1.0,6,1.814064790671503e-08
8.115,0.0359830743700859,77.50000051752744,0,60,1.0,6,1.2177116225168849e-08
8.12,0.05218887796857759,77.50000034573065,0,60,1.0,6,8.134838935802691e-09
8.125,0.0727577001223134,77.50000022985567,0,60,1.0,6,5.408368759376839e-09
8.13,0.0974992498694751,77.50000015208467,0,60,1.0,6,3.5784627444252904e-09
8.135,0.12558706050443358,77.50000010014482,0,60,1.0,6,2.3563486325549412e-09
8.14,0.15549263588878245,77.50000006562728,0,60,1.0,6,1.544171201363925e-09
8.145,0.1850529723539114,77.50000004280092,0,60,1.0,6,1.0070804739156944e-09
8.15,0.21169159439317053,77.50000002778016,0,60,1.0,6,6.536508328067344e-10
8.155,0.23277292922115492,77.50000001794442,0,60,1.0,6,4.222215466143098e-10
8.16,0.24602692519491282,77.5000000115355,0,60,1.0,6,2.714236469567849e-10
8.165,0.24995056064839283,77.50000000738001,0,60,1.0,6,1.7364728217430907e-10
8.17,0.24408826520424054,77.50000000469883,0,60,1.0,6,1.1056078405732371e-10
8.175,0.22911894216865275,77.50000000297739,0,60,1.0,6,7.005617001542466e-11
8.18,0.20672661788705934,77.50000000187757,0,60,1.0,6,4.417803639251575e-11
8.185,0.17928878030241233,77.50000000117832,0,60,1.0,6,2.7725210362833048e-11
8.19,0.14946211903866036,77.50000000073595,0,60,1.0,6,1.7316511623314855e-11
8.195,0.1197651512573837,77.50000000045745,0,60,1.0,6,1.0763468547820058e-11
8.2,0.09224675744988023,77.50000000028298,0,60,1.0,6,6.658370586913353e-12
8.205,0.06829565320281596,77.50000000017421,0,60,1.0,6,4.0990792459685025e-12
8.21,0.04860224607515734,77.50000000010674,0,60,1.0,6,2.511475994491347e-12
8.215,0.03324612389699793,77.50000000006509,0,60,1.0,6,1.5314285787205924e-12
8.22,0.021859876340472782,77.50000000003949,0,60,1.0,6,9.292227118481499e-13
8.225,0.01381595518554205,77.50000000002385,0,60,1.0,6,5.610779814613874e-13
8.23,0.008394095110402422,77.50000000001434,0,60,1.0,6,3.373824095915017e-13
8.235,0.0049052535271608,77.50000000000857,0,60,1.0,6,2.0162695042980724e-13
8.24,0.0027671663551903634,77.5000000000051,0,60,1.0,6,1.2003992571194163e-13
8.245,0.0015425553464444616,77.50000000000303,0,60,1.0,6,7.122146010207122e-14
8.25,0.0009638206637011801,77.50000000000178,0,60,1.0,6,4.1796631515300014e-14
8.255,0.0009804935156568228,77.50000000000105,0,60,1.0,6,2.4743605857057607e-14
8.26,0.0018793744894085216,77.50000000000061,0,60,1.0,6,1.4378041241263203e-14
8.265,0.004535525206900863,77.50000000000036,0,60,1.0,6,8.359326303060002e-15
8.27,0.010832767979632273,77.5000000000002,0,60,1.0,6,4.681222729713601e-15
8.275,0.024208003392322392,77.50000000000011,0,60,1.0,6,2.6749844169792007e-15
8.28,0.0500971897335304,77.50000000000007,0,60,1.0,6,1.6718652606120004e-15
8.285,0.09582894921774403,77.50000000000004,0,60,1.0,6,1.0031191563672002e-15
8.29,0.16937896721820658,77.50000000000001,0,60,1.0,6,3.343730521224001e-16
8.295,0.27661303008991756,77.50000000000001,0,60,1.0,6,3.343730521224001e-16
8.3,0.4173782800009149,77.5,0,60,1.0,6,0.0
8.305,0.5818720934538056,77.5,0,60,1.0,6,0.0
8.31,0.7494718801585675,77.5,0,60,1.0,6,0.0
8.315,0.891813020752378,77.5,0,60,1.0,6,0.0
8.32,0.9800361632936612,77.5,0,60,1.0,6,0.0
8.325,0.993574479225126,77.50000249606323,1,60,1.0,6,5.8730899568485364e-08
8.33,0.9263438449375362,77.5000038398575,0,60,1.0,6,9.034958820313264e-08
8.335,0.7873015962290536,77.500006033868,0,60,1.0,6,1.4197336480826967e-07
8.34,0.5959516244629897,77.50000979196264,0,60,1.0,6,2.303991209373635e-07
8.345,0.376910120078773,77.50001658325932,0,60,1.0,6,3.9019433703448587e-07
8.35,0.15739335672107918,77.50002948944842,0,60,1.0,6,6.938693746526362e-07
8.355,-0.033361226269301235,77.50005499618474,0,60,1.0,6,1.2940278763300524e-06
8.36,-0.1680180840843834,77.50010664152244,0,60,1.0,6,2.509212292606582e-06
8.365,-0.23069703190837854,77.50021223841208,0,60,1.0,6,4.993844990006919e-06
8.37,-0.22587267821131068,77.50042774487464,0,60,1.0,6,1.006458528569751e-05
8.375,-0.17718181630665902,77.50086306382961,0,60,1.0,6,2.0307384226177473e-05
8.38,-0.11494332516451301,77.50172846110615,0,60,1.0,6,4.0669673085978825e-05
8.385,-0.061810214049552864,77.5034152292072,0,60,1.0,6,8.035833428721162e-05
8.39,-0.026546104631500547,77.5066308676186,0,60,1.0,6,0.00015602041455522073
8.395,-0.00719600351942686,77.51261714788687,0,60,1.0,6,0.0002968740679263834
8.4,0.0022072757983807078,77.5234879390857,0,60,1.0,6,0.000552657390251705
8.405,0.006917199873730717,77.5427303078502,0,60,1.0,6,0.00100541900824015
8.41,0.01004859748264829,77.57591328443115,0,60,1.0,6,0.001786194927791819
8.415,0.013037082251128167,77.63163821024733,0,60,1.0,6,0.0030973696528783824
8.42,0.01645163937690478,77.7227359889992,0,60,1.0,6,0.005240846799981281
8.425,0.020526639934696615,77.86766338596527,0,60,1.0,6,0.008650903199182882
8.43,0.02539629541761738,78.09196918540792,0,60,1.0,6,0.013928686715480447
8.435,0.031171612185577933,78.42959438652437,0,60,1.0,7,0.021872809094691092
8.44,0.03795853426638131,78.9236517302522,0,60,1.0,7,0.03349768777064007
8.445,0.0458588961882057,79.62622444184039,0,60,1.0,7,0.05002881039624453
8.45,0.054966995891435555,80.5966700411891,0,60,1.0,7,0.07286282449856706
8.455,0.06536491004445595,81.89795705296187,0,60,1.0,7,0.10348134242263227
8.46,0.07711726085088699,83.590740736457,0,60,1.0,7,0.14331154674016455
8.465,0.09026570629555215,85.72521884287897,0,60,1.0,7,0.19353456100891703
8.47,0.10482339848670268,88.3312835786459,0,60,1.0,7,0.25485373126225636
8.475,0.12076968927580028,91.40803681418913,0,60,1.0,7,0.32724792503974426
8.48,0.13804539501007884,94.91424919828907,0,60,1.0,7,0.4097470399597428
8.485,0.15654895051787066,98.7616754538298,0,60,1.0,7,0.5002747165607011
8.49,0.17613378141900526,102.81314459839467,0,60,1.0,7,0.5956034023151687
8.495,0.19660720058055794,106.88692793605124,0,60,1.0,7,0.6914571279070879
8.5,0.21773108748496234,110.76804090701927,0,60,1.0,7,0.7827774331063357
8.505,0.23922453870058807,114.22596317855158,0,60,1.0,7,0.8641403100835666
8.51,0.2607685857914563,117.0369802382121,0,60,1.0,7,0.9302818879579317
8.515,0.2820129681603682,119.00824368351186,0,60,1.0,7,0.9766645572591027
8.52,0.30258482867153996,120.0,0,60,1.0,7,1.0
8.525,0.3220990771751686,119.94245116636986,0,60,1.0,7,0.998645909796938
8.53,0.3401700499968971,118.84443995887491,0,60,1.0,7,0.9728103519735274
8.535,0.3564239911198326,116.79247804582917,0,60,1.0,7,0.9245288951959805
8.54,0.3705118017738417,113.94028233815197,0,60,1.0,7,0.857418407956517
8.545,0.3821214567925213,110.4905961503334,0,60,1.0,7,0.7762493211843153
8.55,0.39098947374066967,106.67229771772733,0,60,1.0,7,0.686407005122996
8.555,0.3969108472035567,102.71639188641603,0,60,1.0,7,0.5933268679156714
8.56,0.3997469255491936,98.83435529010902,0,60,1.0,7,0.5019848303555062
8.565,0.3994308076379137,95.20154861737079,0,60,1.0,7,0.4165070262910774
8.57,0.3959699661768434,91.94724589020063,0,60,1.0,7,0.3399351974164855
8.575,0.38944595408114946,89.1515501373611,0,60,1.0,7,0.2741541208790847
8.58,0.38001120995358023,86.84834318674413,0,60,1.0,7,0.21996101615868544
8.585,0.3678831374098315,85.03265064487029,0,60,1.0,7,0.17723883870283028
8.59,0.35333577933796634,83.67047424017679,0,60,1.0,7,0.1451876291806303
8.595,0.33668953221163944,82.70922389874646,0,60,1.0,7,0.12256997408815196
8.6,0.3182994390982644,82.08726133343396,0,60,1.0,7,0.10793556078668136
8.605,0.29854265738230645,81.74159879534122,0,60,1.0,7,0.09980232459626397
8.61,0.2778057157821067,81.61334027722147,0,60,1.0,7,0.09678447711109336
8.615,0.2564721553719815,81.6509036668351,0,60,1.0,7,0.09766832157259073
8.62,0.23491109433464996,81.81136644357802,0,60,1.0,7,0.10144391631948291
8.625,0.21346717185309805,82.06042651697676,0,60,1.0,7,0.10730415334062968
8.63,0.19245222055656455,82.37148928088116,0,60,1.0,7,0.11462327719720386
8.635,0.17213889801761392,82.72432417484066,0,60,1.0,7,0.12292527470213319
8.64,0.15275638501270183,83.10362302191093,0,60,1.0,7,0.13184995345672787
8.645,0.13448814019607322,83.49767392349987,0,60,1.0,7,0.14112173937646763
8.65,0.11747159495449566,83.89726171789964,0,60,1.0,7,0.15052380512705033
8.655,0.10179958433370105,84.29482974674242,0,60,1.0,7,0.15987834698217465
8.66,0.08752324394101413,84.68388923933297,0,60,1.0,7,0.16903268798430518
8.665,0.07465606047174059,85.05863764443257,0,60,1.0,7,0.17785029751606035
8.67,0.0631787448609295,85.41373904216793,0,60,1.0,7,0.18620562452159842
8.675,0.05304460019959574,85.74422176195922,0,60,1.0,7,0.19398168851668762
8.68,0.044185078305849994,86.0454552613927,0,60,1.0,7,0.20106953556218127
8.685,0.03651525513023255,86.31317664893982,0,60,1.0,7,0.20736886232799567
8.69,0.0299390014708757,86.54354497329876,0,60,1.0,7,0.2127892934893827
8.695,0.024353677220580638,86.73320770957436,0,60,1.0,7,0.21725194610763196
8.7,0.01965423034339045,86.87936861096367,0,60,1.0,7,0.22069102614032157
8.705,0.015736632374757337,86.97984948291244,0,60,1.0,7,0.223055281950881
8.71,0.012500627640593535,87.03314081261668,0,60,1.0,7,0.2243091955909807
8.715,0.009851811652115898,87.03843787511315,0,60,1.0,7,0.22443383235560344
8.72,0.007703084175428559,86.99566019345913,0,60,1.0,7,0.2234272986696266
8.725,0.005975544002062424,86.90545322943116,0,60,1.0,7,0.22130478186896846
8.73,0.004598905818663047,86.76917202771214,0,60,1.0,7,0.2180981653579328
8.735,0.0035115256454839104,86.58884728386485,0,60,1.0,7,0.21385523020858474
8.74,0.002660121266303676,86.36713497361453,0,60,1.0,7,0.2086384699674006
8.745,0.0019992692560877024,86.10725126733229,0,60,1.0,7,0.20252355923134793
8.75,0.0014907520044639367,85.81289494876535,0,60,1.0,7,0.19559752820624346
8.755,0.0011028178277539807,85.48815994788507,0,60,1.0,7,0.1879567046561192
8.76,0.0008094059938923333,85.13744087266727,0,60,1.0,7,0.17970449112158282
8.765,0.0005893771793717645,84.76533457621503,0,60,1.0,7,0.17094904885211823
8.77,0.0004257792353490551,84.37654082180066,0,60,1.0,7,0.1618009605129567
8.775,0.0003051686392901525,83.97576501288177,0,60,1.0,7,0.15237094147957095
8.78,0.00021699992642659966,83.5676257473155,0,60,1.0,7,0.14276766464271773
8.785,0.00015308884054097838,83.1565696492459,0,60,1.0,7,0.1330957564528446
8.79,0.00010714989329311098,82.74679554691296,0,60,1.0,7,0.12345401286854031
8.795,7.440535854020571e-05,82.34218962124325,0,60,1.0,7,0.11393387344101764
8.8,5.1260276743925106e-05,81.94627267143458,0,60,1.0,7,0.10461818050434317
8.805,3.503659887882241e-05,81.5621601530088,0,60,1.0,7,0.0955802388943248
8.81,2.375894748103639e-05,81.19253516317026,0,60,1.0,7,0.08688318030988854
8.815,1.5984413869232557e-05,80.83963409787519,0,60,1.0,7,0.07857962583235743
8.82,1.0669166579899869e-05,80.5052443018934,0,60,1.0,7,0.07071163063278585
8.825,7.06526633560511e-06,80.19071269077197,0,60,1.0,7,0.06331088684169352
8.83,4.641847214699205e-06,79.89696405136633,0,60,1.0,7,0.056399154149795884
8.835,3.025641074479182e-06,79.6245275306656,0,60,1.0,7,0.04998888307448477
8.84,1.9566278676921314e-06,79.37356970210506,0,60,1.0,7,0.044083992990707255
8.845,1.2553456560008793e-06,79.14393255178399,0,60,1.0,7,0.03868076592432919
