Time,ECG,Pressure,R_Peaks,mean_hr,hrv_scale,Phase_Bin,Normalized_Pressure
0.0,0.001684486749771458,77.5,0,60,3.0,0,0.0
0.005,0.003097557930867117,77.5,0,60,3.0,0,0.0
0.01,0.005475106668887023,77.5,0,60,3.0,0,0.0
0.015,0.00930222931468658,77.5,0,60,3.0,0,0.0
0.02,0.01519157517868857,77.5,0,60,3.0,0,0.0
0.025,0.023847336626128316,77.5,0,60,3.0,0,0.0
0.03,0.0359830743700859,77.5,0,60,3.0,0,0.0
0.035,0.05218887796857759,77.5,0,60,3.0,0,0.0
0.04,0.0727577001223134,77.5,0,60,3.0,0,0.0
0.045,0.0974992498694751,77.5,0,60,3.0,0,0.0
0.05,0.12558706050443358,77.5,0,60,3.0,0,0.0
0.055,0.15549263588878245,77.5,0,60,3.0,0,0.0
0.06,0.1850529723539114,77.5,0,60,3.0,0,0.0
0.065,0.21169159439317053,77.5,0,60,3.0,0,0.0
0.07,0.23277292922115492,77.5,0,60,3.0,0,0.0
0.075,0.24602692519491282,77.5,0,60,3.0,0,0.0
0.08,0.24995056064839283,77.5,0,60,3.0,0,0.0
0.085,0.24408826520424054,77.5,0,60,3.0,0,0.0
0.09,0.22911894216865275,77.5,0,60,3.0,0,0.0
0.095,0.20672661788705934,77.5,0,60,3.0,0,0.0
0.1,0.17928878030241233,77.5,0,60,3.0,0,0.0
0.105,0.14946211903866036,77.5,0,60,3.0,0,0.0
0.11,0.1197651512573837,77.5,0,60,3.0,0,0.0
0.115,0.09224675744988023,77.5,0,60,3.0,0,0.0
0.12,0.06829565320281596,77.5,0,60,3.0,0,0.0
0.125,0.04860224607515734,77.5,0,60,3.0,0,0.0
0.13,0.03324612389699793,77.5,0,60,3.0,0,0.0
0.135,0.021859876340472782,77.5,0,60,3.0,0,0.0
0.14,0.01381595518554205,77.5,0,60,3.0,0,0.0
0.145,0.008394095110402422,77.5,0,60,3.0,0,0.0
0.15,0.0049052535271608,77.5,0,60,3.0,0,0.0
0.155,0.0027671663551903634,77.5,0,60,3.0,0,0.0
0.16,0.0015425553464444616,77.5,0,60,3.0,0,0.0
0.165,0.0009638206637011801,77.5,0,60,3.0,0,0.0
0.17,0.0009804935156568228,77.5,0,60,3.0,0,0.0
0.175,0.0018793744894085216,77.5,0,60,3.0,0,0.0
0.18,0.004535525206900863,77.5,0,60,3.0,0,0.0
0.185,0.010832767979632273,77.5,0,60,3.0,0,0.0
0.19,0.024208003392322392,77.5,0,60,3.0,0,0.0
0.195,0.0500971897335304,77.5,0,60,3.0,0,0.0
0.2,0.09582894921774403,77.5,0,60,3.0,0,0.0
0.205,0.16937896721820658,77.5,0,60,3.0,0,0.0
0.21,0.27661303008991756,77.5,0,60,3.0,0,0.0
0.215,0.4173782800009149,77.5,0,60,3.0,0,0.0
0.22,0.5818720934538056,77.5,0,60,3.0,0,0.0
0.225,0.7494718801585675,77.5,0,60,3.0,0,0.0
0.23,0.891813020752378,77.5,0,60,3.0,0,0.0
0.235,0.9800361632936612,77.5,0,60,3.0,0,0.0
0.24,0.993574479225126,77.5,0,60,3.0,0,0.0
0.245,0.9263438449375362,77.5,0,60,3.0,0,0.0
0.25,0.7873015962290536,77.5,0,60,3.0,0,0.0
0.255,0.5959516244629897,77.5,0,60,3.0,0,0.0
0.26,0.376910120078773,77.5,0,60,3.0,0,0.0
0.265,0.15739335672107918,77.5,0,60,3.0,0,0.0
0.27,-0.033361226269301235,77.5,0,60,3.0,0,0.0
0.275,-0.1680180840843834,77.5,0,60,3.0,0,0.0
0.28,-0.23069703190837854,77.5,0,60,3.0,0,0.0
0.285,-0.22587267821131068,77.5,0,60,3.0,0,0.0
0.29,-0.17718181630665902,77.5,0,60,3.0,0,0.0
0.295,-0.11494332516451301,77.5,0,60,3.0,0,0.0
0.3,-0.061810214049552864,77.5,0,60,3.0,0,0.0
0.305,-0.026546104631500547,77.5,0,60,3.0,0,0.0
0.31,-0.00719600351942686,77.5,0,60,3.0,0,0.0
0.315,0.0022072757983807078,77.5,0,60,3.0,0,0.0
0.32,0.006917199873730717,77.5,0,60,3.0,0,0.0
0.325,0.01004859748264829,77.5,0,60,3.0,0,0.0
0.33,0.013037082251128167,77.5,0,60,3.0,0,0.0
0.335,0.01645163937690478,77.5,0,60,3.0,0,0.0
0.34,0.020526639934696615,77.5,0,60,3.0,0,0.0
0.345,0.02539629541761738,77.5,0,60,3.0,0,0.0
0.35,0.031171612185577933,77.5,0,60,3.0,0,0.0
0.355,0.03795853426638131,77.5,0,60,3.0,0,0.0
0.36,0.0458588961882057,77.5,0,60,3.0,0,0.0
0.365,0.054966995891435555,77.5,0,60,3.0,0,0.0
0.37,0.06536491004445595,77.5,0,60,3.0,0,0.0
0.375,0.07711726085088699,77.5,0,60,3.0,0,0.0
0.38,0.09026570629555215,77.5,0,60,3.0,0,0.0
0.385,0.10482339848670268,77.5,0,60,3.0,0,0.0
0.39,0.12076968927580028,77.5,0,60,3.0,0,0.0
0.395,0.13804539501007884,77.5,0,60,3.0,0,0.0
0.4,0.15654895051787066,77.5,0,60,3.0,0,0.0
0.405,0.17613378141900526,77.5,0,60,3.0,0,0.0
0.41,0.19660720058055794,77.5,0,60,3.0,0,0.0
0.415,0.21773108748496234,77.5,0,60,3.0,0,0.0
0.42,0.23922453870058807,77.5,0,60,3.0,0,0.0
0.425,0.2607685857914563,77.5,0,60,3.0,0,0.0
0.43,0.2820129681603682,77.5,0,60,3.0,0,0.0
0.435,0.30258482867153996,77.5,0,60,3.0,0,0.0
0.44,0.3220990771751686,77.5,0,60,3.0,0,0.0
0.445,0.3401700499968971,77.5,0,60,3.0,0,0.0
0.45,0.3564239911198326,77.5,0,60,3.0,0,0.0
0.455,0.3705118017738417,77.5,0,60,3.0,0,0.0
0.46,0.3821214567925213,77.5,0,60,3.0,0,0.0
0.465,0.39098947374066967,77.5,0,60,3.0,0,0.0
0.47,0.3969108472035567,77.5,0,60,3.0,0,0.0
0.475,0.3997469255491936,77.5,0,60,3.0,0,0.0
0.48,0.3994308076379137,77.5,0,60,3.0,0,0.0
0.485,0.3959699661768434,77.5,0,60,3.0,0,0.0
0.49,0.38944595408114946,77.5,0,60,3.0,0,0.0
0.495,0.38001120995358023,77.5,0,60,3.0,0,0.0
0.5,0.3678831374098315,77.5,0,60,3.0,0,0.0
0.505,0.35333577933796634,77.5,0,60,3.0,0,0.0
0.51,0.33668953221163944,77.5,0,60,3.0,0,0.0
0.515,0.3182994390982644,77.5,0,60,3.0,0,0.0
0.52,0.29854265738230645,77.5,0,60,3.0,0,0.0
0.525,0.2778057157821067,77.5,0,60,3.0,0,0.0
0.53,0.2564721553719815,77.5,0,60,3.0,0,0.0
0.535,0.23491109433464996,77.5,0,60,3.0,0,0.0
0.54,0.21346717185309805,77.5,0,60,3.0,0,0.0
0.545,0.19245222055656455,77.5,0,60,3.0,0,0.0
0.55,0.17213889801761392,77.5,0,60,3.0,0,0.0
0.555,0.15275638501270183,77.5,0,60,3.0,0,0.0
0.56,0.13448814019607322,77.5,0,60,3.0,0,0.0
0.565,0.11747159495449566,77.5,0,60,3.0,0,0.0
0.57,0.10179958433370105,77.5,0,60,3.0,0,0.0
0.575,0.08752324394101413,77.5,0,60,3.0,0,0.0
0.58,0.07465606047174059,77.5,0,60,3.0,0,0.0
0.585,0.0631787448609295,77.5,0,60,3.0,0,0.0
0.59,0.05304460019959574,77.5,0,60,3.0,0,0.0
0.595,0.044185078305849994,77.5,0,60,3.0,0,0.0
0.6,0.03651525513023255,77.5,0,60,3.0,0,0.0
0.605,0.0299390014708757,77.5,0,60,3.0,0,0.0
0.61,0.024353677220580638,77.5,0,60,3.0,0,0.0
0.615,0.01965423034339045,77.5,0,60,3.0,0,0.0
0.62,0.015736632374757337,77.5,0,60,3.0,0,0.0
0.625,0.012500627640593535,77.5,0,60,3.0,0,0.0
0.63,0.009851811652115898,77.5,0,60,3.0,0,0.0
0.635,0.007703084175428559,77.5,0,60,3.0,0,0.0
0.64,0.005975544002062424,77.5,0,60,3.0,0,0.0
0.645,0.004598905818663047,77.5,0,60,3.0,0,0.0
0.65,0.0035115256454839104,77.5,0,60,3.0,0,0.0
0.655,0.002660121266303676,77.5,0,60,3.0,0,0.0
0.66,0.0019992692560877024,77.5,0,60,3.0,0,0.0
0.665,0.0014907520044639367,77.5,0,60,3.0,0,0.0
0.67,0.0011028178277539807,77.5,0,60,3.0,0,0.0
0.675,0.0008094059938923333,77.5,0,60,3.0,0,0.0
0.68,0.0005893771793717645,77.5,0,60,3.0,0,0.0
0.685,0.0004257792353490551,77.5,0,60,3.0,0,0.0
0.69,0.0003051686392901525,77.5,0,60,3.0,0,0.0
0.695,0.00021699992642659966,77.5,0,60,3.0,0,0.0
0.7,0.00015308884054097838,77.5,0,60,3.0,0,0.0
0.705,0.00010714989329311098,77.5,0,60,3.0,0,0.0
0.71,7.440535854020571e-05,77.5,0,60,3.0,0,0.0
0.715,5.1260276743925106e-05,77.5,0,60,3.0,0,0.0
0.72,3.503659887882241e-05,77.5,0,60,3.0,0,0.0
0.725,2.375894748103639e-05,77.5,0,60,3.0,0,0.0
0.73,1.5984413869232557e-05,77.5,0,60,3.0,0,0.0
0.735,1.0669166579899869e-05,77.5,0,60,3.0,0,0.0
0.74,7.06526633560511e-06,77.5,0,60,3.0,0,0.0
0.745,4.641847214699205e-06,77.5,0,60,3.0,0,0.0
0.75,3.025641074479182e-06,77.5,0,60,3.0,0,0.0
0.755,1.9566278676921314e-06,77.5,0,60,3.0,0,0.0
0.76,1.2553456560008793e-06,77.5,0,60,3.0,0,0.0
0.765,7.990660428214668e-07,77.5,0,60,3.0,0,0.0
0.77,5.046221251618276e-07,77.5,0,60,3.0,0,0.0
0.775,3.1616527078858815e-07,77.5,0,60,3.0,0,0.0
0.78,1.9652884407760343e-07,77.5,0,60,3.0,0,0.0
0.785,1.2120002189836396e-07,77.5,0,60,3.0,0,0.0
0.79,7.415549848886236e-08,77.5,0,60,3.0,0,0.0
0.795,4.501406988770349e-08,77.5,0,60,3.0,0,0.0
0.8,0.0,77.5,0,60,3.0,0,0.0
0.805,0.0,77.5,0,60,3.0,0,0.0
0.81,0.0,77.5,0,60,3.0,0,0.0
0.815,0.0,77.5,0,60,3.0,0,0.0
0.82,0.0,77.5,0,60,3.0,0,0.0
0.825,0.0,77.5,0,60,3.0,0,0.0
0.83,0.0,77.5,0,60,3.0,0,0.0
0.835,0.0,77.5,0,60,3.0,0,0.0
0.84,0.0,77.5,0,60,3.0,0,0.0
0.845,0.0,77.5,0,60,3.0,0,0.0
0.85,0.0,77.5,0,60,3.0,0,0.0
0.855,0.0,77.5,0,60,3.0,0,0.0
0.86,0.0,77.5,0,60,3.0,0,0.0
0.865,0.0,77.5,0,60,3.0,0,0.0
0.87,0.0,77.5,0,60,3.0,0,0.0
0.875,0.0,77.5,0,60,3.0,0,0.0
0.88,0.0,77.5,0,60,3.0,0,0.0
0.885,0.0,77.5,0,60,3.0,0,0.0
0.89,0.0,77.5,0,60,3.0,0,0.0
0.895,0.0,77.5,0,60,3.0,0,0.0
0.9,0.0,77.5,0,60,3.0,0,0.0
0.905,0.0,77.5,0,60,3.0,0,0.0
0.91,0.0,77.5,0,60,3.0,0,0.0
0.915,0.0,77.5,0,60,3.0,0,0.0
0.92,0.0,77.5,0,60,3.0,0,0.0
0.925,0.0,77.5,0,60,3.0,0,0.0
0.93,0.0,77.5,0,60,3.0,0,0.0
0.935,0.0,77.5,0,60,3.0,0,0.0
0.94,0.0,77.5,0,60,3.0,0,0.0
0.945,0.0,77.5,0,60,3.0,0,0.0
0.95,0.0,77.5,0,60,3.0,0,0.0
0.955,0.0,77.5,0,60,3.0,0,0.0
0.96,0.0,77.5,0,60,3.0,0,0.0
0.965,0.0,77.5,0,60,3.0,0,0.0
0.97,0.0,77.5,0,60,3.0,0,0.0
0.975,0.0,77.5,0,60,3.0,0,0.0
0.98,0.0,77.5,0,60,3.0,0,0.0
0.985,0.0,77.5,0,60,3.0,0,0.0
0.99,0.0,77.5,0,60,3.0,0,0.0
0.995,0.0,77.5,0,60,3.0,0,0.0
1.0,0.0,77.5,0,60,3.0,0,0.0
1.005,0.0,77.5,0,60,3.0,0,0.0
1.01,0.0,77.5,0,60,3.0,0,0.0
1.015,0.0,77.5,0,60,3.0,0,0.0
1.02,0.0,77.5,0,60,3.0,0,0.0
1.025,0.0,77.5,0,60,3.0,0,0.0
1.03,0.0,77.5,0,60,3.0,0,0.0
1.035,0.001684486749771458,77.5,0,60,3.0,0,0.0
1.04,0.003097557930867117,77.5,0,60,3.0,0,0.0
1.045,0.005475106668887023,77.5,0,60,3.0,0,0.0
1.05,0.00930222931468658,77.5,0,60,3.0,0,0.0
1.055,0.01519157517868857,77.5,0,60,3.0,0,0.0
1.06,0.023847336626128316,77.5,0,60,3.0,0,0.0
1.065,0.0359830743700859,77.5,0,60,3.0,0,0.0
1.07,0.05218887796857759,77.5,0,60,3.0,0,0.0
1.075,0.0727577001223134,77.5,0,60,3.0,0,0.0
1.08,0.0974992498694751,77.5,0,60,3.0,0,0.0
1.085,0.12558706050443358,77.5,0,60,3.0,0,0.0
1.09,0.15549263588878245,77.5,0,60,3.0,0,0.0
1.095,0.1850529723539114,77.5,0,60,3.0,0,0.0
1.1,0.21169159439317053,77.5,0,60,3.0,0,0.0
1.105,0.23277292922115492,77.5,0,60,3.0,0,0.0
1.11,0.24602692519491282,77.5,0,60,3.0,0,0.0
1.115,0.24995056064839283,77.5,0,60,3.0,0,0.0
1.12,0.24408826520424054,77.5,0,60,3.0,0,0.0
1.125,0.22911894216865275,77.5,0,60,3.0,0,0.0
1.13,0.20672661788705934,77.5,0,60,3.0,0,0.0
1.135,0.17928878030241233,77.5,0,60,3.0,0,0.0
1.14,0.14946211903866036,77.5,0,60,3.0,0,0.0
1.145,0.1197651512573837,77.5,0,60,3.0,0,0.0
1.15,0.09224675744988023,77.5,0,60,3.0,0,0.0
1.155,0.06829565320281596,77.5,0,60,3.0,0,0.0
1.16,0.04860224607515734,77.5,0,60,3.0,0,0.0
1.165,0.03324612389699793,77.5,0,60,3.0,0,0.0
1.17,0.021859876340472782,77.5,0,60,3.0,0,0.0
1.175,0.01381595518554205,77.5,0,60,3.0,0,0.0
1.18,0.008394095110402422,77.5,0,60,3.0,0,0.0
1.185,0.0049052535271608,77.5,0,60,3.0,0,0.0
1.19,0.0027671663551903634,77.5,0,60,3.0,0,0.0
1.195,0.0015425553464444616,77.5,0,60,3.0,0,0.0
1.2,0.0009638206637011801,77.5,0,60,3.0,0,0.0
1.205,0.0009804935156568228,77.5,0,60,3.0,1,0.0
1.21,0.0018793744894085216,77.5,0,60,3.0,1,0.0
1.215,0.004535525206900863,77.5,0,60,3.0,1,0.0
1.22,0.010832767979632273,77.5,0,60,3.0,1,0.0
1.225,0.024208003392322392,77.5,0,60,3.0,1,0.0
1.23,0.0500971897335304,77.5,0,60,3.0,1,0.0
1.235,0.09582894921774403,77.5,0,60,3.0,1,0.0
1.24,0.16937896721820658,77.5,0,60,3.0,1,0.0
1.245,0.27661303008991756,77.5,0,60,3.0,1,0.0
1.25,0.4173782800009149,77.5,0,60,3.0,1,0.0
1.255,0.5818720934538056,77.5,0,60,3.0,1,0.0
1.26,0.7494718801585675,77.5,0,60,3.0,1,0.0
1.265,0.891813020752378,77.5,0,60,3.0,1,0.0
1.27,0.9800361632936612,77.5,0,60,3.0,1,0.0
1.275,0.993574479225126,77.5000024899223,1,60,3.0,1,5.858640694147171e-08
1.28,0.9263438449375362,77.50000376594136,0,60,3.0,1,8.86103848910459e-08
1.285,0.7873015962290536,77.50000580655897,0,60,3.0,1,1.366249170373254e-07
1.29,0.5959516244629897,77.50000921610113,0,60,3.0,1,2.1684943844240265e-07
1.295,0.376910120078773,77.50001520125163,0,60,3.0,1,3.5767650889711684e-07
1.3,0.15739335672107918,77.50002621870189,0,60,3.0,1,6.169106327166339e-07
1.305,-0.033361226269301235,77.5000472946736,0,60,3.0,1,1.1128158495707526e-06
1.31,-0.1680180840843834,77.50008865159667,0,60,3.0,1,2.085919921642819e-06
1.315,-0.23069703190837854,77.50017080335597,0,60,3.0,1,4.018902493432024e-06
1.32,-0.22587267821131068,77.50033416889595,0,60,3.0,1,7.862797551685136e-06
1.325,-0.17718181630665902,77.50065668969144,0,60,3.0,1,1.5451522151512537e-05
1.33,-0.11494332516451301,77.50128514742521,0,60,3.0,1,3.023876294605543e-05
1.335,-0.061810214049552864,77.50248910111931,0,60,3.0,1,5.8567085160214394e-05
1.34,-0.026546104631500547,77.50475076687931,0,60,3.0,1,0.00011178275010145038
1.345,-0.00719600351942686,77.50890971075603,0,60,3.0,1,0.00020964025308303996
1.35,0.0022072757983807078,77.51638746319077,0,60,3.0,1,0.0003855873691945282
1.355,0.006917199873730717,77.52952295821818,0,60,3.0,1,0.0006946578404277742
1.36,0.01004859748264829,77.55205296713095,0,60,3.0,1,0.0012247756971987655
1.365,0.013037082251128167,77.58976923193298,0,60,3.0,1,0.0021122172219523853
1.37,0.01645163937690478,77.65137158913011,0,60,3.0,1,0.0035616844501201767
1.375,0.020526639934696615,77.74950933960535,0,60,3.0,1,0.005870807990714197
1.38,0.02539629541761738,77.90195754734947,0,60,3.0,1,0.009457824643516901
1.385,0.031171612185577933,78.13280954845649,0,60,3.0,1,0.014889636434270414
1.39,0.03795853426638131,78.47348539969117,0,60,3.0,1,0.022905538816262845
1.395,0.0458588961882057,78.96326918151414,0,60,3.0,1,0.03442986309445025
1.4,0.054966995891435555,79.64901532307513,0,60,3.0,1,0.050565066425297255
1.405,0.06536491004445595,80.58363230643764,0,60,3.0,1,0.07255605426912085
1.41,0.07711726085088699,81.82299164268099,0,60,3.0,1,0.10171745041602327
1.415,0.09026570629555215,83.42104740979093,0,60,3.0,1,0.139318762583316
1.42,0.10482339848670268,85.42319949161549,0,60,3.0,1,0.18642822333212922
1.425,0.12076968927580028,87.85828024175694,0,60,3.0,1,0.24372424098251633
1.43,0.13804539501007884,90.72994635140763,0,60,3.0,1,0.31129285532723844
1.435,0.15654895051787066,94.00864020707704,0,60,3.0,1,0.38843859310769496
1.44,0.17613378141900526,97.62555096793857,0,60,3.0,1,0.47354237571620156
1.445,0.19660720058055794,101.4700561076917,0,60,3.0,1,0.5640013201809813
1.45,0.21773108748496234,105.39188588857056,0,60,3.0,1,0.656279667966366
1.455,0.23922453870058807,109.20870606171526,0,60,3.0,1,0.7460872014521238
1.46,0.2607685857914563,112.7190103692385,0,60,3.0,1,0.828682596923259
1.465,0.2820129681603682,115.71928120045192,0,60,3.0,1,0.8992772047165157
1.47,0.30258482867153996,118.02349647615935,0,60,3.0,1,0.9534940347331612
1.475,0.3220990771751686,119.48243235510543,0,60,3.0,1,0.9878219377671866
1.48,0.3401700499968971,120.0,0,60,3.0,1,1.0
1.485,0.3564239911198326,119.54414514623332,0,60,3.0,1,0.989274003440784
1.49,0.3705118017738417,118.15060626577718,0,60,3.0,1,0.9564848533124044
1.495,0.3821214567925213,115.9189340023266,0,60,3.0,1,0.9039749177018022
1.5,0.39098947374066967,113.0014023537604,0,60,3.0,1,0.835327114206127
1.505,0.3969108472035567,109.58654217728734,0,60,3.0,1,0.7549774629949962
1.51,0.3997469255491936,105.87978274020551,0,60,3.0,1,0.6677595938871885
1.515,0.3994308076379137,102.08396338043309,0,60,3.0,1,0.5784461971866609
1.52,0.3959699661768434,98.38225280045256,0,60,3.0,1,0.49134712471653086
1.525,0.38944595408114946,94.92537560220612,0,60,3.0,1,0.41000883769896745
1.53,0.38001120995358023,91.82416132737285,0,60,3.0,1,0.3370390900558317
1.535,0.3678831374098315,89.14749954500232,0,60,3.0,1,0.27405881282358396
1.54,0.35333577933796634,86.92498677093954,0,60,3.0,1,0.2217643946103421
1.545,0.33668953221163944,85.15301231421464,0,60,3.0,1,0.18007087798152083
1.55,0.3182994390982644,83.802800714477,0,60,3.0,1,0.1483011932818118
1.555,0.29854265738230645,82.82898633651617,0,60,3.0,1,0.1253879138003804
1.56,0.2778057157821067,82.17756644157681,0,60,3.0,1,0.11006038686063094
1.565,0.2564721553719815,81.79246348760998,0,60,3.0,1,0.10099914088494068
1.57,0.23491109433464996,81.6203288855974,0,60,3.0,1,0.096948914955233
1.575,0.21346717185309805,81.61356473758555,0,60,3.0,1,0.09678975853142467
1.58,0.19245222055656455,81.73178486073043,0,60,3.0,1,0.09957140848777479
1.585,0.17213889801761392,81.9420707420853,0,60,3.0,1,0.1045193115784778
1.59,0.15275638501270183,82.21841509548847,0,60,3.0,1,0.11102153165855216
1.595,0.13448814019607322,82.54071215799348,0,60,3.0,1,0.11860499195278781
1.6,0.11747159495449566,82.89358016634176,0,60,3.0,1,0.1269077686198062
1.605,0.10179958433370105,83.26521429635454,0,60,3.0,1,0.13565210109069512
1.61,0.08752324394101413,83.64638683025535,0,60,3.0,1,0.14462086659424359
1.615,0.07465606047174059,84.02964611158836,0,60,3.0,1,0.15363873203737324
1.62,0.0631787448609295,84.40872047275327,0,60,3.0,1,0.16255812877066525
1.625,0.05304460019959574,84.77810639599608,0,60,3.0,1,0.1712495622587312
1.63,0.044185078305849994,85.13280774851903,0,60,3.0,1,0.17959547643574184
1.635,0.03651525513023255,85.46819036181611,0,60,3.0,1,0.18748683204273206
1.64,0.0299390014708757,85.77991932370172,0,60,3.0,1,0.1948216311459228
1.645,0.024353677220580638,86.06395196190566,0,60,3.0,1,0.20150475204483903
1.65,0.01965423034339045,86.31656557761202,0,60,3.0,1,0.20744860182616529
1.655,0.015736632374757337,86.53440443454016,0,60,3.0,1,0.21257422198918033
1.66,0.012500627640593535,86.71453489258448,0,60,3.0,1,0.21681258570787015
1.665,0.009851811652115898,86.85450086784542,0,60,3.0,1,0.22010590277283335
1.67,0.007703084175428559,86.95237417392687,0,60,3.0,1,0.22240880409239694
1.675,0.005975544002062424,87.0067959844984,0,60,3.0,1,0.2236893172823152
1.68,0.004598905818663047,87.01700687163441,0,60,3.0,1,0.22392957345022135
1.685,0.0035115256454839104,86.98286378900848,0,60,3.0,1,0.22312620680019946
1.69,0.002660121266303676,86.90484310169278,0,60,3.0,1,0.22129042592218298
1.695,0.0019992692560877024,86.78402938747664,0,60,3.0,1,0.21844775029356792
1.7,0.0014907520044639367,86.62209028632776,0,60,3.0,1,0.21463741850182969
1.705,0.0011028178277539807,86.42123816980182,0,60,3.0,1,0.20991148634827822
1.71,0.0008094059938923333,86.18417984182693,0,60,3.0,1,0.20433364333710427
1.715,0.0005893771793717645,85.91405586012334,0,60,3.0,1,0.1979777849440786
1.72,0.0004257792353490551,85.61437137477117,0,60,3.0,1,0.19092638528873335
1.725,0.0003051686392901525,85.28892060876314,0,60,3.0,1,0.18326872020619142
1.73,0.00021699992642659966,84.94170724870098,0,60,3.0,1,0.17509899408708185
1.735,0.00015308884054097838,84.57686306932412,0,60,3.0,1,0.16651442516056753
1.74,0.00010714989329311098,84.19856708424052,0,60,3.0,1,0.15761334315860054
1.745,7.440535854020571e-05,83.81096740174658,0,60,3.0,1,0.1484933506293313
1.75,5.1260276743925106e-05,83.41810777713161,0,60,3.0,1,0.13924959475603788
1.755,3.503659887882241e-05,83.02386060247123,0,60,3.0,1,0.1299731906463819
1.76,2.375894748103639e-05,82.63186777501524,0,60,3.0,1,0.12074983000035854
1.765,1.5984413869232557e-05,82.24549055077581,0,60,3.0,1,0.11165860119472501
1.77,1.0669166579899869e-05,81.86776913642002,0,60,3.0,1,0.10277103850400053
1.775,7.06526633560511e-06,81.50139241554777,0,60,3.0,1,0.09415040977759458
1.78,4.641847214699205e-06,81.14867785950845,0,60,3.0,1,0.08585124375314007
1.785,3.025641074479182e-06,80.81156135115772,0,60,3.0,1,0.07791909061547579
1.79,1.9566278676921314e-06,80.49159636340788,0,60,3.0,1,0.07039050266842069
1.795,1.2553456560008793e-06,80.18996169166836,0,60,3.0,1,0.0632932162745496
1.8,7.990660428214668e-07,79.90747674623394,0,60,3.0,1,0.05664651167609269
1.805,5.046221251618276e-07,79.64462327056756,0,60,3.0,1,0.05046172401335445
1.81,3.1616527078858815e-07,79.40157226481837,0,60,3.0,1,0.04474287681925576
1.815,1.9652884407760343e-07,79.17821485897923,0,60,3.0,1,0.03948740844657015
1.82,1.2120002189836396e-07,78.97419589290332,0,60,3.0,1,0.034686962185960575
1.825,7.415549848886236e-08,78.78894901536232,0,60,3.0,1,0.030328212126172236
1.83,4.501406988770349e-08,78.62173220460336,0,60,3.0,1,0.0263936989318438
1.835,0.0,78.4716627308444,0,60,3.0,1,0.022862652490456478
1.84,0.0,78.33775071891439,0,60,3.0,1,0.019711781621515122
1.845,0.0,78.21893061897777,0,60,3.0,1,0.016916014564182714
1.85,0.0,78.11409004761917,0,60,3.0,1,0.014449177591039334
1.855,0.0,78.02209561389758,0,60,3.0,1,0.012284602679942977
1.86,0.0,77.94181548966863,0,60,3.0,1,0.010395658580438293
1.865,0.0,77.87213861598158,0,60,3.0,1,0.008756202728978438
1.87,0.0,77.81199055431146,0,60,3.0,1,0.0073409542190932715
1.875,0.0,77.76034609057041,0,60,3.0,1,0.006125790366362547
1.88,0.0,77.7162387801301,0,60,3.0,1,0.0050879712971787765
1.885,0.0,77.67876768333062,0,60,3.0,1,0.00420629843130869
1.89,0.0,77.64710158383804,0,60,3.0,1,0.00346121373736557
1.895,0.0,77.62048100809753,0,60,3.0,1,0.0028348472493535956
1.9,0.0,77.59821837486274,0,60,3.0,1,0.0023110205850056286
1.905,0.0,77.57969660154583,0,60,3.0,1,0.001875214154019619
1.91,0.0,77.56436648127566,0,60,3.0,1,0.0015145054417801287
1.915,0.0,77.55174312345649,0,60,3.0,1,0.0012174852577997546
1.92,0.0,77.54140172358554,0,60,3.0,1,0.0009741582020126316
1.925,0.0,77.53297289723739,0,60,3.0,1,0.0007758328761737817
1.93,0.0,77.52613778034294,0,60,3.0,1,0.0006150065963043637
1.935,0.0,77.52062306478282,0,60,3.0,1,0.0004852485831252927
1.94,0.0,77.51619610618371,0,60,3.0,1,0.0003810848513814883
1.945,0.0,77.51266021065541,0,60,3.0,1,0.0002978873095390982
1.95,0.0,77.50985017975476,0,60,3.0,1,0.00023176893540621408
1.955,0.0,77.50762816866609,0,60,3.0,1,0.00017948632155500544
1.96,0.0,77.50587989168099,0,60,3.0,1,0.0001383503924938957
1.965,0.0,77.50451119158359,0,60,3.0,1,0.0001061456843197394
1.97,0.0,77.50344497539443,0,60,3.0,1,8.105824457482627e-05
1.975,0.0,77.50261850787646,0,60,3.0,1,6.161195003441582e-05
1.98,0.0,77.50198104596413,0,60,3.0,1,4.6612846214804236e-05
1.985,0.0,77.5014917914954,0,60,3.0,1,3.510097636228024e-05
1.99,0.0,77.50111813594486,0,60,3.0,1,2.63090810556284e-05
1.995,0.0,77.50083416890804,0,60,3.0,1,1.962750371864572e-05
2.0,0.0,77.5006194215277,0,60,3.0,1,1.4574624181223578e-05
2.005,0.0,77.50045781656114,0,60,3.0,1,1.0772154379711698e-05
2.01,0.0,77.50033679808233,0,60,3.0,1,7.924660760703345e-06
2.015,0.0,77.50024661564738,0,60,3.0,1,5.802721114926445e-06
2.02,0.0,77.50017973992418,0,60,3.0,1,4.229174686543047e-06
2.025,0.0,77.50013038912986,0,60,3.0,1,3.0679795262291437e-06
2.03,0.0,77.50009414800623,0,60,3.0,1,2.2152472053328573e-06
2.035,0.0,77.50006766339348,0,60,3.0,1,1.5920798465926697e-06
2.04,0.0,77.5000484026712,0,60,3.0,1,1.1388863811134798e-06
2.045,0.0,77.5000344633739,0,60,3.0,1,8.109029151375366e-07
2.05,0.0,77.50002442413327,0,60,3.0,1,5.74685488760117e-07
2.055,0.0,77.50001722873685,0,60,3.0,1,4.053820435621995e-07
2.06,0.0,77.50001209652484,0,60,3.0,1,2.8462411391421267e-07
2.065,0.0,77.50000845358089,0,60,3.0,1,1.9890778563582418e-07
2.07,0.0,77.50000588022185,0,60,3.0,1,1.383581611528772e-07
2.075,0.001684486749771458,77.50000407117355,0,60,3.0,1,9.579231880921083e-08
2.08,0.003097557930867117,77.5000028055527,0,60,3.0,1,6.601300463123206e-08
2.085,0.005475106668887023,77.50000192437696,0,60,3.0,1,4.527945788247641e-08
2.09,0.00930222931468658,77.5000013138167,0,60,3.0,1,3.09133340311639e-08
2.095,0.01519157517868857,77.50000089279615,0,60,3.0,1,2.1006968274698867e-08
2.1,0.023847336626128316,77.50000060386903,0,60,3.0,1,1.4208682962228468e-08
2.105,0.0359830743700859,77.50000040654264,0,60,3.0,1,9.565709165947149e-09
2.11,0.05218887796857759,77.50000027242211,0,60,3.0,1,6.4099320779325135e-09
2.115,0.0727577001223134,77.50000018169858,0,60,3.0,1,4.2752607415048475e-09
2.12,0.0974992498694751,77.50000012062397,0,60,3.0,1,2.8382109629841153e-09
2.125,0.12558706050443358,77.50000007970556,0,60,3.0,1,1.875424887283075e-09
2.13,0.15549263588878245,77.50000005242235,0,60,3.0,1,1.233467080109061e-09
2.135,0.1850529723539114,77.50000003431762,0,60,3.0,1,8.074734710937585e-10
2.14,0.21169159439317053,77.50000002236098,0,60,3.0,1,5.261406787373262e-10
2.145,0.23277292922115492,77.50000001450232,0,60,3.0,1,3.412310434214305e-10
2.15,0.24602692519491282,77.50000000936176,0,60,3.0,1,2.202766074119341e-10
2.155,0.24995056064839283,77.50000000601518,0,60,3.0,1,1.4153375987542164e-10
2.16,0.24408826520424054,77.50000000384694,0,60,3.0,1,9.05161227017422e-11
2.165,0.22911894216865275,77.5000000024488,0,60,3.0,1,5.761882996867986e-11
2.17,0.20672661788705934,77.50000000155154,0,60,3.0,1,3.650684983072364e-11
2.175,0.17928878030241233,77.50000000097847,0,60,3.0,1,2.3022922130835734e-11
2.18,0.14946211903866036,77.5000000006142,0,60,3.0,1,1.4451603312730133e-11
2.185,0.1197651512573837,77.50000000038374,0,60,3.0,1,9.02907552646117e-12
2.19,0.09224675744988023,77.50000000023864,0,60,3.0,1,5.615126664291465e-12
2.195,0.06829565320281596,77.50000000014771,0,60,3.0,1,3.4754735037602265e-12
2.2,0.04860224607515734,77.500000000091,0,60,3.0,1,2.1413250257918502e-12
2.205,0.03324612389699793,77.5000000000558,0,60,3.0,1,1.3130829756846652e-12
2.21,0.021859876340472782,77.50000000003406,0,60,3.0,1,8.01492205937393e-13
2.215,0.01381595518554205,77.50000000002069,0,60,3.0,1,4.868471638902145e-13
2.22,0.008394095110402422,77.50000000001252,0,60,3.0,1,2.945826589198345e-13
2.225,0.0049052535271608,77.50000000000753,0,60,3.0,1,1.7721771762487205e-13
2.23,0.0027671663551903634,77.5000000000045,0,60,3.0,1,1.0599625752280083e-13
2.235,0.0015425553464444616,77.50000000000269,0,60,3.0,1,6.319650685113362e-14
2.24,0.0009638206637011801,77.50000000000159,0,60,3.0,1,3.744978183770881e-14
2.245,0.0009804935156568228,77.50000000000094,0,60,3.0,1,2.2068621440078406e-14
2.25,0.0018793744894085216,77.50000000000055,0,60,3.0,1,1.3040549032773603e-14
2.255,0.004535525206900863,77.50000000000033,0,60,3.0,1,7.690580198815202e-15
2.26,0.010832767979632273,77.50000000000018,0,60,3.0,1,4.3468496775912015e-15
2.265,0.024208003392322392,77.50000000000011,0,60,3.0,1,2.6749844169792007e-15
2.27,0.0500971897335304,77.50000000000006,0,60,3.0,1,1.3374922084896003e-15
2.275,0.09582894921774403,77.50000000000004,0,60,3.0,1,1.0031191563672002e-15
2.28,0.16937896721820658,77.50000000000001,0,60,3.0,1,3.343730521224001e-16
2.285,0.27661303008991756,77.50000000000001,0,60,3.0,1,3.343730521224001e-16
2.29,0.4173782800009149,77.5,0,60,3.0,1,0.0
2.295,0.5818720934538056,77.5,0,60,3.0,1,0.0
2.3,0.7494718801585675,77.5,0,60,3.0,1,0.0
2.305,0.891813020752378,77.5,0,60,3.0,1,0.0
2.31,0.9800361632936612,77.5,0,60,3.0,1,0.0
2.315,0.993574479225126,77.50000249010722,1,60,3.0,1,5.859075813799898e-08
2.32,0.9263438449375362,77.50000399163918,0,60,3.0,1,9.392092177971362e-08
2.325,0.7873015962290536,77.50000657096535,0,60,3.0,1,1.546109495072468e-07
2.33,0.5959516244629897,77.50001126974868,0,60,3.0,1,2.6517055724017317e-07
2.335,0.376910120078773,77.50002039428047,0,60,3.0,1,4.798654227964588e-07
2.34,0.15739335672107918,77.50003914082407,0,60,3.0,1,9.209605663914665e-07
2.345,-0.033361226269301235,77.50007920029995,0,60,3.0,1,1.8635364694198548e-06
2.35,-0.1680180840843834,77.50016650152685,0,60,3.0,1,3.917682984673079e-06
2.355,-0.23069703190837854,77.50035727180848,0,60,3.0,1,8.406395493707083e-06
2.36,-0.22587267821131068,77.50077012988875,0,60,3.0,1,1.8120703264698666e-05
2.365,-0.17718181630665902,77.50164775318775,0,60,3.0,1,3.87706632412734e-05
2.37,-0.11494332516451301,77.50347061635955,0,60,3.0,1,8.166156140117998e-05
2.375,-0.061810214049552864,77.50715795071476,0,60,3.0,1,0.00016842236975896734
2.38,-0.026546104631500547,77.5144070811006,0,60,3.0,1,0.00033899014354353633
2.385,-0.00719600351942686,77.5282394047068,0,60,3.0,1,0.0006644565813363602
2.39,0.0022072757983807078,77.55383408336586,0,60,3.0,1,0.0012666843144907435
2.395,0.006917199873730717,77.59972940848522,0,60,3.0,1,0.0023465743172992274
2.4,0.01004859748264829,77.67944280833049,0,60,3.0,1,0.0042221837254233455
2.405,0.013037082251128167,77.81348721906859,0,60,3.0,1,0.0073761698604374384
2.41,0.01645163937690478,78.03163023176374,0,60,3.0,2,0.012508946629735111
2.415,0.020526639934696615,78.37505027511166,0,60,3.0,2,0.020589418237921445
2.42,0.02539629541761738,78.89780996475343,0,60,3.0,2,0.032889646229492586
2.425,0.031171612185577933,79.66684044473594,0,60,3.0,2,0.05098448105261034
2.43,0.03795853426638131,80.75949503280015,0,60,3.0,2,0.07669400077176813
2.435,0.0458588961882057,82.25779073232891,0,60,3.0,2,0.11194801723126856
2.44,0.054966995891435555,84.23881071354275,0,60,3.0,2,0.15856025208335878
2.445,0.06536491004445595,86.761438403634,0,60,3.0,2,0.21791619773256476
2.45,0.07711726085088699,89.85058638348076,0,60,3.0,2,0.29060203255248845
2.455,0.09026570629555215,93.48119551005387,0,60,3.0,2,0.37602812964832627
2.46,0.10482339848670268,97.56521644662017,0,60,3.0,2,0.4721227399204746
2.465,0.12076968927580028,101.9451924877681,0,60,3.0,2,0.5751809997121905
2.47,0.13804539501007884,106.39763376371725,0,60,3.0,2,0.6799443238521706
2.475,0.15654895051787066,110.64798059253941,0,60,3.0,2,0.779952484530339
2.48,0.17613378141900526,114.39674727457296,0,60,3.0,2,0.8681587594017167
2.485,0.19660720058055794,117.35386468352375,0,60,3.0,2,0.9377379925535001
2.49,0.21773108748496234,119.275959098321,0,60,3.0,2,0.9829637434899058
2.495,0.23922453870058807,120.0,0,60,3.0,2,1.0
2.5,0.2607685857914563,119.46690363747315,0,60,3.0,2,0.9874565561758388
2.505,0.2820129681603682,117.73038700594088,0,60,3.0,2,0.9465973413162561
2.51,0.30258482867153996,114.9492684905429,0,60,3.0,2,0.8811592586010095
2.515,0.3220990771751686,111.36478020898221,0,60,3.0,2,0.7968183578584049
2.52,0.3401700499968971,107.26741995506956,0,60,3.0,2,0.7004098812957542
2.525,0.3564239911198326,102.9596819088704,0,60,3.0,2,0.5990513390322446
2.53,0.3705118017738417,98.72127373241781,0,60,3.0,2,0.4993240878215956
2.535,0.3821214567925213,94.7822159773761,0,60,3.0,2,0.40664037593826113
2.54,0.39098947374066967,91.30698776473659,0,60,3.0,2,0.3248703003467433
2.545,0.3969108472035567,88.39030770032856,0,60,3.0,2,0.25624253412537795
2.55,0.3997469255491936,86.06288839070756,0,60,3.0,2,0.2014797268401778
2.555,0.3994308076379137,84.30404383436624,0,60,3.0,2,0.16009514904391153
2.56,0.3959699661768434,83.05753269632442,0,60,3.0,2,0.1307654752076333
2.565,0.38944595408114946,82.24737630134176,0,60,3.0,2,0.1117029717962767
2.57,0.38001120995358023,81.7913011449563,0,60,3.0,2,0.10097179164603043
2.575,0.3678831374098315,81.610566645603,0,60,3.0,2,0.09671921519065885
2.58,0.35333577933796634,81.63594764226887,0,60,3.0,2,0.09731641511220882
2.585,0.33668953221163944,81.81036294392507,0,60,3.0,2,0.10142030456294285
2.59,0.3182994390982644,82.08901958525325,0,60,3.0,2,0.10797693141772363
2.595,0.29854265738230645,82.43802057793512,0,60,3.0,2,0.11618871948082636
2.6,0.2778057157821067,82.83225838471738,0,60,3.0,2,0.12546490316982065
2.605,0.2564721553719815,83.25319276688843,0,60,3.0,2,0.13536924157384547
2.61,0.23491109433464996,83.686875206475,0,60,3.0,2,0.14557353426999986
2.615,0.21346717185309805,84.12238505385845,0,60,3.0,2,0.15582082479666945
2.62,0.19245222055656455,84.55070577299286,0,60,3.0,2,0.1658989593645378
2.625,0.17213889801761392,84.96399161125699,0,60,3.0,2,0.17562333202957614
2.63,0.15275638501270183,85.35514243552747,0,60,3.0,2,0.18482688083594045
2.635,0.13448814019607322,85.71760100195645,0,60,3.0,2,0.193355317693093
2.64,0.11747159495449566,86.0452983913444,0,60,3.0,2,0.20106584450222126
2.645,0.10179958433370105,86.3326898491463,0,60,3.0,2,0.20782799645050132
2.65,0.08752324394101413,86.57483918302297,0,60,3.0,2,0.21352562783583467
2.655,0.07465606047174059,86.76752278036646,0,60,3.0,2,0.2180593595380344
2.66,0.0631787448609295,86.90733378218441,0,60,3.0,2,0.22134903016904492
2.665,0.05304460019959574,86.9917735126748,0,60,3.0,2,0.22333584735705406
2.67,0.044185078305849994,87.01932172692784,0,60,3.0,2,0.22398404063359628
2.675,0.03651525513023255,86.98948034984315,0,60,3.0,2,0.22328189058454467
2.68,0.0299390014708757,86.90278769019186,0,60,3.0,2,0.22124206329863194
2.685,0.024353677220580638,86.76080197318645,0,60,3.0,2,0.2179012228985046
2.69,0.01965423034339045,86.56605462876595,0,60,3.0,2,0.21331893244155187
2.695,0.015736632374757337,86.32197517674452,0,60,3.0,2,0.20757588651163567
2.7,0.012500627640593535,86.03279077482928,0,60,3.0,2,0.2007715476430419
2.705,0.009851811652115898,85.70340452029305,0,60,3.0,2,0.19302128283042466
2.71,0.007703084175428559,85.33925738981765,0,60,3.0,2,0.18445311505453285
2.715,0.005975544002062424,84.94617923708564,0,60,3.0,2,0.17520421734319164
2.72,0.004598905818663047,84.53023452733424,0,60,3.0,2,0.16541728299609987
2.725,0.0035115256454839104,84.09756846997738,0,60,3.0,2,0.15523690517593824
2.73,0.002660121266303676,83.6542589276253,0,60,3.0,2,0.1448060924147131
2.735,0.0019992692560877024,83.20617895994317,0,60,3.0,2,0.13426303435160408
2.74,0.0014907520044639367,82.75887414363407,0,60,3.0,2,0.12373821514433116
2.745,0.0011028178277539807,82.31745794442939,0,60,3.0,2,0.11335195163363276
2.75,0.0008094059938923333,81.8865274579051,0,60,3.0,2,0.10321241077423772
2.755,0.0005893771793717645,81.47010083954896,0,60,3.0,2,0.09341413740115205
2.76,0.0004257792353490551,81.07157676517897,0,60,3.0,2,0.08403710035715235
2.765,0.0003051686392901525,80.69371534973111,0,60,3.0,2,0.07514624352308488
2.77,0.00021699992642659966,80.33863914687039,0,60,3.0,2,0.06679150933812687
2.775,0.00015308884054097838,80.00785218530105,0,60,3.0,2,0.05900828671296582
2.78,0.00010714989329311098,79.70227449064905,0,60,3.0,2,0.051818223309389316
2.785,7.440535854020571e-05,79.4222892038462,0,60,3.0,2,0.045230334208146
2.79,5.1260276743925106e-05,79.16779923698448,0,60,3.0,2,0.03924233498787009
2.795,3.503659887882241e-05,78.93829039520759,0,60,3.0,2,0.03384212694606089
2.8,2.375894748103639e-05,78.73289802028908,0,60,3.0,2,0.02900936518327258
2.805,1.5984413869232557e-05,78.55047445441544,0,60,3.0,2,0.02471704598624556
2.81,1.0669166579899869e-05,78.38965495417689,0,60,3.0,2,0.0209330577453386
2.815,7.06526633560511e-06,78.24892007634156,0,60,3.0,2,0.017621648855095588
2.82,4.641847214699205e-06,78.12665298069128,0,60,3.0,2,0.014744776016265311
2.825,3.025641074479182e-06,78.02119052526635,0,60,3.0,2,0.012263306476855258
2.83,1.9566278676921314e-06,77.93086744348022,0,60,3.0,2,0.010138057493652335
2.835,1.2553456560008793e-06,77.85405327268292,0,60,3.0,2,0.00833066523959808
2.84,7.990660428214668e-07,77.78918203653959,0,60,3.0,2,0.006804283212696138
2.845,5.046221251618276e-07,77.7347749604743,0,60,3.0,2,0.005524116717042288
2.85,3.1616527078858815e-07,77.68945671631874,0,60,3.0,2,0.004457805089852814
2.855,1.9652884407760343e-07,77.65196584908803,0,60,3.0,2,0.0035756670373653858
2.86,1.2120002189836396e-07,77.62116013864468,0,60,3.0,2,0.0028508267916396
2.865,7.415549848886236e-08,77.59601769757931,0,60,3.0,2,0.002259239943042664
2.87,4.501406988770349e-08,77.57563461130631,0,60,3.0,2,0.00177963791308972
2.875,0.0,77.55921989546478,0,60,3.0,2,0.0013934093050536108
2.88,0.0,77.54608848781899,0,60,3.0,2,0.0010844350075056835
2.885,0.0,77.53565291526658,0,60,3.0,2,0.0008388921239195631
2.89,0.0,77.52741418887024,0,60,3.0,2,0.0006450397381232666
2.895,0.0,77.52095238759824,0,60,3.0,2,0.0004929973552527693
2.9,0.0,77.51591730008352,0,60,3.0,2,0.0003745247078474195
2.905,0.0,77.5120194073441,0,60,3.0,2,0.00028280958456702247
2.91,0.0,77.50902141100669,0,60,3.0,2,0.0002122684942749482
2.915,0.0,77.50673044299404,0,60,3.0,2,0.0001583633645656632
2.92,0.0,77.50499103478336,0,60,3.0,2,0.00011743611254961948
2.925,0.0,77.5036788773436,0,60,3.0,2,8.656181984948115e-05
2.93,0.0,77.50269536624779,0,60,3.0,2,6.342038230099314e-05
2.935,0.0,77.5019628993377,0,60,3.0,2,4.618586676937251e-05
2.94,0.0,77.50142087553571,0,60,3.0,2,3.343236554622522e-05
2.945,0.0,77.50102233166015,0,60,3.0,2,2.4054862591824263e-05
2.95,0.0,77.50073114808981,0,60,3.0,2,1.7203484466175294e-05
2.955,0.0,77.5005197525807,0,60,3.0,2,1.2229472487072544e-05
2.96,0.0,77.50036725331495,0,60,3.0,2,8.641254469373107e-06
2.965,0.0,77.50025793635609,0,60,3.0,2,6.069090731590918e-06
2.97,0.0,77.50018006825722,0,60,3.0,2,4.236900169938535e-06
2.975,0.0,77.50012495094008,0,60,3.0,2,2.9400221194464394e-06
2.98,0.0,77.5000861826135,0,60,3.0,2,2.0278262000187275e-06
2.985,0.0,77.50005908504322,0,60,3.0,2,1.3902363110339458e-06
2.99,0.001684486749771458,77.50004026365725,0,60,3.0,2,9.473801706944334e-07
2.995,0.003097557930867117,77.50002727260667,0,60,3.0,2,6.417083922957211e-07
3.0,0.005475106668887023,77.50001836190953,0,60,3.0,2,4.320449300073104e-07
3.005,0.00930222931468658,77.50001228815844,0,60,3.0,2,2.891331398720521e-07
3.01,0.01519157517868857,77.50000817397918,0,60,3.0,2,1.9232892193887144e-07
3.015,0.023847336626128316,77.50000540453107,0,60,3.0,2,1.271654368525453e-07
3.02,0.0359830743700859,77.50000355189627,0,60,3.0,2,8.357402989264194e-08
3.025,0.05218887796857759,77.50000232027946,0,60,3.0,2,5.4594810909988796e-08
3.03,0.0727577001223134,77.50000150660041,0,60,3.0,2,3.544942146885767e-08
3.035,0.0974992498694751,77.50000097237466,0,60,3.0,2,2.2879403866895968e-08
3.04,0.12558706050443358,77.50000062380226,0,60,3.0,2,1.4677700351860361e-08
3.045,0.15549263588878245,77.50000039777551,0,60,3.0,2,9.359423730155173e-09
3.05,0.1850529723539114,77.50000025211976,0,60,3.0,2,5.932229682644795e-09
3.055,0.21169159439317053,77.50000015883766,0,60,3.0,2,3.737356818793855e-09
3.06,0.23277292922115492,77.50000009946673,0,60,3.0,2,2.340393687999869e-09
3.065,0.24602692519491282,77.50000006191274,0,60,3.0,2,1.4567704323888072e-09
3.07,0.24995056064839283,77.50000003830539,0,60,3.0,2,9.013032307420336e-10
3.075,0.24408826520424054,77.50000002355686,0,60,3.0,2,5.542791741925826e-10
3.08,0.22911894216865275,77.50000001439969,0,60,3.0,2,3.3881620123900256e-10
3.085,0.20672661788705934,77.50000000874915,0,60,3.0,2,2.058624538810417e-10
3.09,0.17928878030241233,77.50000000528394,0,60,3.0,2,1.2432792573235928e-10
3.095,0.14946211903866036,77.50000000317195,0,60,3.0,2,7.463407147203244e-11
3.1,0.1197651512573837,77.50000000189266,0,60,3.0,2,4.453314057386973e-11
3.105,0.09224675744988023,77.50000000112253,0,60,3.0,2,2.6412461760200504e-11
3.11,0.06829565320281596,77.50000000066176,0,60,3.0,2,1.5570749918183806e-11
3.115,0.04860224607515734,77.50000000038777,0,60,3.0,2,9.12403747326393e-12
3.12,0.03324612389699793,77.50000000022585,0,60,3.0,2,5.314190917381304e-12
3.125,0.021859876340472782,77.50000000013075,0,60,3.0,2,3.0765664525782033e-12
3.13,0.01381595518554205,77.50000000007525,0,60,3.0,2,1.7705053109881085e-12
3.135,0.008394095110402422,77.50000000004304,0,60,3.0,2,1.0128159748787498e-12
3.14,0.0049052535271608,77.50000000002447,0,60,3.0,2,5.757903957547729e-13
3.145,0.0027671663551903634,77.50000000001383,0,60,3.0,2,3.253449797150953e-13
3.15,0.0015425553464444616,77.50000000000777,0,60,3.0,2,1.8290205951095285e-13
3.155,0.0009638206637011801,77.50000000000433,0,60,3.0,2,1.0198378089733203e-13
3.16,0.0009804935156568228,77.5000000000024,0,60,3.0,2,5.6509045808685616e-14
3.165,0.0018793744894085216,77.50000000000132,0,60,3.0,2,3.109669384738321e-14
3.17,0.004535525206900863,77.50000000000072,0,60,3.0,2,1.7053025658242404e-14
3.175,0.010832767979632273,77.5000000000004,0,60,3.0,2,9.362445459427202e-15
3.18,0.024208003392322392,77.50000000000021,0,60,3.0,2,5.015595781836002e-15
3.185,0.0500971897335304,77.50000000000011,0,60,3.0,2,2.6749844169792007e-15
3.19,0.09582894921774403,77.50000000000006,0,60,3.0,2,1.3374922084896003e-15
3.195,0.16937896721820658,77.50000000000003,0,60,3.0,2,6.687461042448002e-16
3.2,0.27661303008991756,77.50000000000001,0,60,3.0,2,3.343730521224001e-16
3.205,0.4173782800009149,77.50000000000001,0,60,3.0,2,3.343730521224001e-16
3.21,0.5818720934538056,77.5,0,60,3.0,2,0.0
3.215,0.7494718801585675,77.5,0,60,3.0,2,0.0
3.22,0.891813020752378,77.5,0,60,3.0,2,0.0
3.225,0.9800361632936612,77.5,0,60,3.0,2,0.0
3.23,0.993574479225126,77.50000249606323,1,60,3.0,2,5.8730899568485364e-08
3.235,0.9263438449375362,77.5000038398575,0,60,3.0,2,9.034958820313264e-08
3.24,0.7873015962290536,77.500006033868,0,60,3.0,2,1.4197336480826967e-07
3.245,0.5959516244629897,77.50000979196264,0,60,3.0,2,2.303991209373635e-07
3.25,0.376910120078773,77.50001658325932,0,60,3.0,2,3.9019433703448587e-07
3.255,0.15739335672107918,77.50002948944842,0,60,3.0,2,6.938693746526362e-07
3.26,-0.033361226269301235,77.50005499618474,0,60,3.0,2,1.2940278763300524e-06
3.265,-0.1680180840843834,77.50010664152244,0,60,3.0,2,2.509212292606582e-06
3.27,-0.23069703190837854,77.50021223841208,0,60,3.0,2,4.993844990006919e-06
3.275,-0.22587267821131068,77.50042774487464,0,60,3.0,2,1.006458528569751e-05
3.28,-0.17718181630665902,77.50086306382961,0,60,3.0,2,2.0307384226177473e-05
3.285,-0.11494332516451301,77.50172846110615,0,60,3.0,2,4.0669673085978825e-05
3.29,-0.061810214049552864,77.5034152292072,0,60,3.0,2,8.035833428721162e-05
3.295,-0.026546104631500547,77.5066308676186,0,60,3.0,2,0.00015602041455522073
3.3,-0.00719600351942686,77.51261714788687,0,60,3.0,2,0.0002968740679263834
3.305,0.0022072757983807078,77.5234879390857,0,60,3.0,2,0.000552657390251705
3.31,0.006917199873730717,77.5427303078502,0,60,3.0,2,0.00100541900824015
3.315,0.01004859748264829,77.57591328443115,0,60,3.0,2,0.001786194927791819
3.32,0.013037082251128167,77.63163821024733,0,60,3.0,2,0.0030973696528783824
3.325,0.01645163937690478,77.7227359889992,0,60,3.0,2,0.005240846799981281
3.33,0.020526639934696615,77.86766338596527,0,60,3.0,2,0.008650903199182882
3.335,0.02539629541761738,78.09196918540792,0,60,3.0,2,0.013928686715480447
3.34,0.031171612185577933,78.42959438652437,0,60,3.0,2,0.021872809094691092
3.345,0.03795853426638131,78.9236517302522,0,60,3.0,2,0.03349768777064007
3.35,0.0458588961882057,79.62622444184039,0,60,3.0,2,0.05002881039624453
3.355,0.054966995891435555,80.5966700411891,0,60,3.0,2,0.07286282449856706
3.36,0.06536491004445595,81.89795705296187,0,60,3.0,2,0.10348134242263227
3.365,0.07711726085088699,83.590740736457,0,60,3.0,2,0.14331154674016455
3.37,0.09026570629555215,85.72521884287897,0,60,3.0,2,0.19353456100891703
3.375,0.10482339848670268,88.3312835786459,0,60,3.0,2,0.25485373126225636
3.38,0.12076968927580028,91.40803681418913,0,60,3.0,2,0.32724792503974426
3.385,0.13804539501007884,94.91424919828907,0,60,3.0,2,0.4097470399597428
3.39,0.15654895051787066,98.7616754538298,0,60,3.0,2,0.5002747165607011
3.395,0.17613378141900526,102.81314459839467,0,60,3.0,2,0.5956034023151687
3.4,0.19660720058055794,106.88692793605124,0,60,3.0,2,0.6914571279070879
3.405,0.21773108748496234,110.76804090701927,0,60,3.0,2,0.7827774331063357
3.41,0.23922453870058807,114.22596317855158,0,60,3.0,2,0.8641403100835666
3.415,0.2607685857914563,117.0369802382121,0,60,3.0,2,0.9302818879579317
3.42,0.2820129681603682,119.00824368351186,0,60,3.0,2,0.9766645572591027
3.425,0.30258482867153996,120.0,0,60,3.0,2,1.0
3.43,0.3220990771751686,119.94245116636986,0,60,3.0,2,0.998645909796938
3.435,0.3401700499968971,118.84443995887491,0,60,3.0,2,0.9728103519735274
3.44,0.3564239911198326,116.79247804582917,0,60,3.0,2,0.9245288951959805
3.445,0.3705118017738417,113.94028233815197,0,60,3.0,2,0.857418407956517
3.45,0.3821214567925213,110.4905961503334,0,60,3.0,2,0.7762493211843153
3.455,0.39098947374066967,106.67229771772733,0,60,3.0,2,0.686407005122996
3.46,0.3969108472035567,102.71639188641603,0,60,3.0,2,0.5933268679156714
3.465,0.3997469255491936,98.83435529010902,0,60,3.0,2,0.5019848303555062
3.47,0.3994308076379137,95.20154861737079,0,60,3.0,2,0.4165070262910774
3.475,0.3959699661768434,91.94724589020063,0,60,3.0,2,0.3399351974164855
3.48,0.38944595408114946,89.1515501373611,0,60,3.0,2,0.2741541208790847
3.485,0.38001120995358023,86.84834318674413,0,60,3.0,2,0.21996101615868544
3.49,0.3678831374098315,85.03265064487029,0,60,3.0,2,0.17723883870283028
3.495,0.35333577933796634,83.67047424017679,0,60,3.0,2,0.1451876291806303
3.5,0.33668953221163944,82.70922389874646,0,60,3.0,2,0.12256997408815196
3.505,0.3182994390982644,82.08726133343396,0,60,3.0,2,0.10793556078668136
3.51,0.29854265738230645,81.74159879534122,0,60,3.0,2,0.09980232459626397
3.515,0.2778057157821067,81.61334027722147,0,60,3.0,2,0.09678447711109336
3.52,0.2564721553719815,81.6509036668351,0,60,3.0,2,0.09766832157259073
3.525,0.23491109433464996,81.81136644357802,0,60,3.0,2,0.10144391631948291
3.53,0.21346717185309805,82.06042651697676,0,60,3.0,2,0.10730415334062968
3.535,0.19245222055656455,82.37148928088116,0,60,3.0,2,0.11462327719720386
3.54,0.17213889801761392,82.72432417484066,0,60,3.0,2,0.12292527470213319
3.545,0.15275638501270183,83.10362302191093,0,60,3.0,2,0.13184995345672787
3.55,0.13448814019607322,83.49767392349987,0,60,3.0,2,0.14112173937646763
3.555,0.11747159495449566,83.89726171789964,0,60,3.0,2,0.15052380512705033
3.56,0.10179958433370105,84.29482974674242,0,60,3.0,2,0.15987834698217465
3.565,0.08752324394101413,84.68388923933297,0,60,3.0,2,0.16903268798430518
3.57,0.07465606047174059,85.05863764443257,0,60,3.0,2,0.17785029751606035
3.575,0.0631787448609295,85.41373904216793,0,60,3.0,2,0.18620562452159842
3.58,0.05304460019959574,85.74422176195922,0,60,3.0,2,0.19398168851668762
3.585,0.044185078305849994,86.0454552613927,0,60,3.0,2,0.20106953556218127
3.59,0.03651525513023255,86.31317664893982,0,60,3.0,2,0.20736886232799567
3.595,0.0299390014708757,86.54354497329876,0,60,3.0,2,0.2127892934893827
3.6,0.024353677220580638,86.73320770957436,0,60,3.0,2,0.21725194610763196
3.605,0.01965423034339045,86.87936861096367,0,60,3.0,2,0.22069102614032157
3.61,0.015736632374757337,86.97984948291244,0,60,3.0,2,0.223055281950881
3.615,0.012500627640593535,87.03314081261668,0,60,3.0,3,0.2243091955909807
3.62,0.009851811652115898,87.03843787511315,0,60,3.0,3,0.22443383235560344
3.625,0.007703084175428559,86.99566019345913,0,60,3.0,3,0.2234272986696266
3.63,0.005975544002062424,86.90545322943116,0,60,3.0,3,0.22130478186896846
3.635,0.004598905818663047,86.76917202771214,0,60,3.0,3,0.2180981653579328
3.64,0.0035115256454839104,86.58884728386485,0,60,3.0,3,0.21385523020858474
3.645,0.002660121266303676,86.36713497361453,0,60,3.0,3,0.2086384699674006
3.65,0.0019992692560877024,86.10725126733229,0,60,3.0,3,0.20252355923134793
3.655,0.0014907520044639367,85.81289494876535,0,60,3.0,3,0.19559752820624346
3.66,0.0011028178277539807,85.48815994788507,0,60,3.0,3,0.1879567046561192
3.665,0.0008094059938923333,85.13744087266727,0,60,3.0,3,0.17970449112158282
3.67,0.0005893771793717645,84.76533457621503,0,60,3.0,3,0.17094904885211823
3.675,0.0004257792353490551,84.37654082180066,0,60,3.0,3,0.1618009605129567
3.68,0.0003051686392901525,83.97576501288177,0,60,3.0,3,0.15237094147957095
3.685,0.00021699992642659966,83.5676257473155,0,60,3.0,3,0.14276766464271773
3.69,0.00015308884054097838,83.1565696492459,0,60,3.0,3,0.1330957564528446
3.695,0.00010714989329311098,82.74679554691296,0,60,3.0,3,0.12345401286854031
3.7,7.440535854020571e-05,82.34218962124325,0,60,3.0,3,0.11393387344101764
3.705,5.1260276743925106e-05,81.94627267143458,0,60,3.0,3,0.10461818050434317
3.71,3.503659887882241e-05,81.5621601530088,0,60,3.0,3,0.0955802388943248
3.715,2.375894748103639e-05,81.19253516317026,0,60,3.0,3,0.08688318030988854
3.72,1.5984413869232557e-05,80.83963409787519,0,60,3.0,3,0.07857962583235743
3.725,1.0669166579899869e-05,80.5052443018934,0,60,3.0,3,0.07071163063278585
3.73,7.06526633560511e-06,80.19071269077197,0,60,3.0,3,0.06331088684169352
3.735,4.641847214699205e-06,79.89696405136633,0,60,3.0,3,0.056399154149795884
3.74,3.025641074479182e-06,79.6245275306656,0,60,3.0,3,0.04998888307448477
3.745,1.9566278676921314e-06,79.37356970210506,0,60,3.0,3,0.044083992990707255
3.75,1.2553456560008793e-06,79.14393255178399,0,60,3.0,3,0.03868076592432919
3.755,7.990660428214668e-07,78.93517474813203,0,60,3.0,3,0.03376881760310653
3.76,5.046221251618276e-07,78.74661463915068,0,60,3.0,3,0.029332109156486548
3.765,3.1616527078858815e-07,78.57737355111618,0,60,3.0,3,0.02534996590861604
3.77,1.9652884407760343e-07,78.42641813017309,0,60,3.0,3,0.021798073651131532
3.775,1.2120002189836396e-07,78.29260066180315,0,60,3.0,3,0.01864942733654469
3.78,7.415549848886236e-08,78.17469651121884,0,60,3.0,3,0.0158752120286786
3.785,4.501406988770349e-08,78.07143803963184,0,60,3.0,3,0.013445600932513959
3.79,0.0,77.98154455767332,0,60,3.0,3,0.011330460180548632
3.795,0.0,77.9037480701592,0,60,3.0,3,0.009499954591981082
3.8,0.0,77.83681473981095,0,60,3.0,3,0.00792505270143405
3.805,0.0,77.7795621471775,0,60,3.0,3,0.006577932874764723
3.81,0.0,77.730872547324,0,60,3.0,3,0.005432295231152881
3.815,0.0,77.68970241993146,0,60,3.0,3,0.0044635863513285716
3.82,0.0,77.65508867876439,0,60,3.0,3,0.0036491453826914388
3.825,0.0,77.62615195063168,0,60,3.0,3,0.002968281191333651
3.83,0.0,77.60209735548692,0,60,3.0,3,0.0024022907173392627
3.835,0.0,77.58221322128246,0,60,3.0,3,0.001934428736057846
3.84,0.0,77.56586815304183,0,60,3.0,3,0.001549838895101964
3.845,0.0,77.5525068488899,0,60,3.0,3,0.0012354552679977695
3.85,0.0,77.54164501992928,0,60,3.0,3,0.0009798828218653371
3.855,0.0,77.53286372908609,0,60,3.0,3,0.0007732642137903119
3.86,0.0,77.52580341921859,0,60,3.0,3,0.0006071392757315366
3.865,0.0,77.5201578553129,0,60,3.0,3,0.0004743024779506467
3.87,0.0,77.51566816144691,0,60,3.0,3,0.0003686626222802528
3.875,0.0,77.51211709188321,0,60,3.0,3,0.0002851080443108725
3.88,0.0,77.50932363821491,0,60,3.0,3,0.0002193797227037334
3.885,0.0,77.50713804159365,0,60,3.0,3,0.00016795391985056086
3.89,0.0,77.50543725103012,0,60,3.0,3,0.00012793531835567966
3.895,0.0,77.5041208456039,0,60,3.0,3,9.69610730327772e-05
3.9,0.0,77.5031074199587,0,60,3.0,3,7.311576373400813e-05
3.905,0.0,77.50233141833475,0,60,3.0,3,5.485690199407145e-05
3.91,0.0,77.50174039213948,0,60,3.0,3,4.095040328192066e-05
3.915,0.0,77.501292649158,0,60,3.0,3,3.0415274305957664e-05
3.92,0.0,77.50095525841263,0,60,3.0,3,2.2476668532496712e-05
3.925,0.0,77.50070237286243,0,60,3.0,3,1.6526420292580843e-05
3.93,0.0,77.50051383209139,0,60,3.0,3,1.2090166856135992e-05
3.935,0.0,77.50037400841595,0,60,3.0,3,8.800198022259686e-06
3.94,0.0,77.50027086205799,0,60,3.0,3,6.37322489383758e-06
3.945,0.0,77.50019517384675,0,60,3.0,3,4.5923258058417775e-06
3.95,0.0,77.50013992706306,0,60,3.0,3,3.292401483764372e-06
3.955,0.0,77.50009981331155,0,60,3.0,3,2.348548507063028e-06
3.96,0.0,77.5000708405394,0,60,3.0,3,1.6668362210272307e-06
3.965,0.0,77.50005002440169,0,60,3.0,3,1.177044745592117e-06
3.97,0.0,77.50003514702703,0,60,3.0,3,8.269888714012803e-07
3.975,0.0,77.50002456981785,0,60,3.0,3,5.781133612505501e-07
3.98,0.0,77.50001708920767,0,60,3.0,3,4.0209900409054705e-07
3.985,0.0,77.50001182629116,0,60,3.0,3,2.782656742831879e-07
3.99,0.001684486749771458,77.50000814295163,0,60,3.0,3,1.9159886184805894e-07
3.995,0.003097557930867117,77.50000557855593,0,60,3.0,3,1.312601394896346e-07
4.0,0.005475106668887023,77.5000038024926,0,60,3.0,3,8.947041411535312e-08
4.005,0.00930222931468658,77.50000257882347,0,60,3.0,3,6.067819928081436e-08
4.01,0.01519157517868857,77.5000017401292,0,60,3.0,3,4.0944216634135744e-08
4.015,0.023847336626128316,77.50000116828292,0,60,3.0,3,2.748900990755989e-08
4.02,0.0359830743700859,77.50000078040709,0,60,3.0,3,1.836251980795864e-08
4.025,0.05218887796857759,77.50000051868184,0,60,3.0,3,1.220427868568496e-08
4.03,0.0727577001223134,77.50000034299478,0,60,3.0,3,8.070465435808086e-09
4.035,0.0974992498694751,77.50000022567355,0,60,3.0,3,5.3099657794946855e-09
4.04,0.12558706050443358,77.50000014773399,0,60,3.0,3,3.4760937657719136e-09
4.045,0.15549263588878245,77.50000009622477,0,60,3.0,3,2.2641121605000295e-09
4.05,0.1850529723539114,77.5000000623591,0,60,3.0,3,1.4672730899559718e-09
4.055,0.21169159439317053,77.50000004020866,0,60,3.0,3,9.460861479858388e-10
4.06,0.23277292922115492,77.50000002579563,0,60,3.0,3,6.069559704508933e-10
4.065,0.24602692519491282,77.50000001646566,0,60,3.0,3,3.874273555565571e-10
4.07,0.24995056064839283,77.50000001045728,0,60,3.0,3,2.460537603731021e-10
4.075,0.24408826520424054,77.50000000660792,0,60,3.0,3,1.5548045987944693e-10
4.08,0.22911894216865275,77.50000000415449,0,60,3.0,3,9.775262429577518e-11
4.085,0.20672661788705934,77.50000000259882,0,60,3.0,3,6.114880627993604e-11
4.09,0.17928878030241233,77.5000000016175,0,60,3.0,3,3.80586751656237e-11
4.095,0.14946211903866036,77.50000000100165,0,60,3.0,3,2.356828457884737e-11
4.1,0.1197651512573837,77.50000000061716,0,60,3.0,3,1.4521487280623714e-11
4.105,0.09224675744988023,77.50000000037834,0,60,3.0,3,8.902013766654657e-12
4.11,0.06829565320281596,77.50000000023077,0,60,3.0,3,5.4298839934156554e-12
4.115,0.04860224607515734,77.50000000014005,0,60,3.0,3,3.2952464286662528e-12
4.12,0.03324612389699793,77.50000000008457,0,60,3.0,3,1.989854033180403e-12
4.125,0.021859876340472782,77.5000000000508,0,60,3.0,3,1.1953836613375804e-12
4.13,0.01381595518554205,77.50000000003037,0,60,3.0,3,7.14555212385569e-13
4.135,0.008394095110402422,77.50000000001806,0,60,3.0,3,4.249881492475705e-13
4.14,0.0049052535271608,77.50000000001069,0,60,3.0,3,2.514485351960449e-13
4.145,0.0027671663551903634,77.5000000000063,0,60,3.0,3,1.4812726209022324e-13
4.15,0.0015425553464444616,77.50000000000368,0,60,3.0,3,8.660262049970162e-14
4.155,0.0009638206637011801,77.50000000000215,0,60,3.0,3,5.049033087048241e-14
4.16,0.0009804935156568228,77.50000000000125,0,60,3.0,3,2.942482858677121e-14
4.165,0.0018793744894085216,77.50000000000072,0,60,3.0,3,1.7053025658242404e-14
4.17,0.004535525206900863,77.50000000000041,0,60,3.0,3,9.696818511549603e-15
4.175,0.010832767979632273,77.50000000000024,0,60,3.0,3,5.684341886080802e-15
4.18,0.024208003392322392,77.50000000000013,0,60,3.0,3,3.0093574691016007e-15
4.185,0.0500971897335304,77.50000000000007,0,60,3.0,3,1.6718652606120004e-15
4.19,0.09582894921774403,77.50000000000004,0,60,3.0,3,1.0031191563672002e-15
4.195,0.16937896721820658,77.50000000000003,0,60,3.0,3,6.687461042448002e-16
4.2,0.27661303008991756,77.50000000000001,0,60,3.0,3,3.343730521224001e-16
4.205,0.4173782800009149,77.5,0,60,3.0,3,0.0
4.21,0.5818720934538056,77.5,0,60,3.0,3,0.0
4.215,0.7494718801585675,77.5,0,60,3.0,3,0.0
4.22,0.891813020752378,77.5,0,60,3.0,3,0.0
4.225,0.9800361632936612,77.5,0,60,3.0,3,0.0
4.23,0.993574479225126,77.50000249065474,1,60,3.0,3,5.860364086295115e-08
4.235,0.9263438449375362,77.50000381481783,0,60,3.0,3,8.976041954156244e-08
4.24,0.7873015962290536,77.50000596523532,0,60,3.0,3,1.4035847805323155e-07
4.245,0.5959516244629897,77.50000962503476,0,60,3.0,3,2.2647140620874244e-07
4.25,0.376910120078773,77.50001618917643,0,60,3.0,3,3.809217984700594e-07
4.255,0.15739335672107918,77.5000285614158,0,60,3.0,3,6.720333130140395e-07
4.26,-0.033361226269301235,77.50005280883279,0,60,3.0,3,1.2425607715559796e-06
4.265,-0.1680180840843834,77.50010151190543,0,60,3.0,3,2.388515421818524e-06
4.27,-0.23069703190837854,77.50020036214238,0,60,3.0,3,4.714403350108649e-06
4.275,-0.22587267821131068,77.50040077561245,0,60,3.0,3,9.430014410541202e-06
4.28,-0.17718181630665902,77.50080326727193,0,60,3.0,3,1.8900406398442475e-05
4.285,-0.11494332516451301,77.50159937912407,0,60,3.0,3,3.763244997819182e-05
4.29,-0.061810214049552864,77.50314438198903,0,60,3.0,3,7.398545856544308e-05
4.295,-0.026546104631500547,77.5060789517361,0,60,3.0,3,0.00014303415849647481
4.3,-0.00719600351942686,77.5115253796782,0,60,3.0,3,0.00027118540419304043
4.305,0.0022072757983807078,77.5213917627598,0,60,3.0,3,0.0005033355943483537
4.31,0.006917199873730717,77.53882411894206,0,60,3.0,3,0.0009135086809896406
4.315,0.01004859748264829,77.56884815932884,0,60,3.0,3,0.0016199566900902884
4.32,0.013037082251128167,77.6192346558676,0,60,3.0,3,0.002805521314531782
4.325,0.01645163937690478,77.70159894500465,0,60,3.0,3,0.004743504588344649
4.33,0.020526639934696615,77.83270008287926,0,60,3.0,3,0.007828237244217797
4.335,0.02539629541761738,78.03583465142736,0,60,3.0,3,0.012607874151232115
4.34,0.031171612185577933,78.34212553437393,0,60,3.0,3,0.019814718455857288
4.345,0.03795853426638131,78.79139701937089,0,60,3.0,3,0.030385812220491543
4.35,0.0458588961882057,79.43222533468237,0,60,3.0,3,0.045464125521938153
4.355,0.054966995891435555,80.32069048739088,0,60,3.0,3,0.06636918793860887
4.36,0.06536491004445595,81.5173707975343,0,60,3.0,3,0.09452637170668936
4.365,0.07711726085088699,83.08225427174436,0,60,3.0,3,0.13134715933516145
4.37,0.09026570629555215,85.06751487992965,0,60,3.0,3,0.17805917364540344
4.375,0.10482339848670268,87.50851138218808,0,60,3.0,3,0.23549438546324883
4.38,0.12076968927580028,90.41386466435996,0,60,3.0,3,0.3038556391614109
4.385,0.13804539501007884,93.75596504105044,0,60,3.0,3,0.38249329508353985
4.39,0.15654895051787066,97.4636280918179,0,60,3.0,3,0.4697324256898328
4.395,0.17613378141900526,101.41872257270964,0,60,3.0,3,0.5627934722990504
4.4,0.19660720058055794,105.45833242352343,0,60,3.0,3,0.6578431158476101
4.405,0.21773108748496234,109.38335163215552,0,60,3.0,3,0.7501965089918947
4.41,0.23922453870058807,112.9734084393601,0,60,3.0,3,0.8346684338672965
4.415,0.2607685857914563,116.00683982528938,0,60,3.0,3,0.9060432900068088
4.42,0.2820129681603682,118.28333120453613,0,60,3.0,3,0.9596077930479089
4.425,0.30258482867153996,119.646064803065,0,60,3.0,3,0.9916721130132942
4.43,0.3220990771751686,120.0,0,60,3.0,3,1.0
4.435,0.3401700499968971,119.32334270778719,0,60,3.0,3,0.9840786519479339
4.44,0.3564239911198326,117.6702984466819,0,60,3.0,3,0.9451834928631034
4.445,0.3705118017738417,115.1646448291192,0,60,3.0,3,0.8862269371557459
4.45,0.3821214567925213,111.9851997850634,0,60,3.0,3,0.8114164655309035
4.455,0.39098947374066967,108.34557221481842,0,60,3.0,3,0.7257781697604334
4.46,0.3969108472035567,104.47139174943496,0,60,3.0,3,0.634620982339646
4.465,0.3997469255491936,100.57838099842344,0,60,3.0,3,0.5430207293746692
4.47,0.3994308076379137,96.85417087272945,0,60,3.0,3,0.45539225582892834
4.475,0.3959699661768434,93.44582268957237,0,60,3.0,3,0.37519582798993806
4.48,0.38944595408114946,90.45385471397468,0,60,3.0,3,0.30479658150528655
4.485,0.38001120995358023,87.93243962502166,0,60,3.0,3,0.24546916764756843
4.49,0.3678831374098315,85.89455992933536,0,60,3.0,3,0.19751905716083196
4.495,0.35333577933796634,84.32040601189054,0,60,3.0,3,0.160480141456248
4.5,0.33668953221163944,83.16719725117376,0,60,3.0,3,0.13334581767467674
4.505,0.3182994390982644,82.37883285219493,0,60,3.0,3,0.114796067110469
4.51,0.29854265738230645,81.89421459224894,0,60,3.0,3,0.10339328452350455
4.515,0.2778057157821067,81.65359406235096,0,60,3.0,3,0.09773162499649321
4.52,0.2564721553719815,81.60276811068044,0,60,3.0,3,0.09653572025130455
4.525,0.23491109433464996,81.6953041114732,0,60,3.0,3,0.0987130379170166
4.53,0.21346717185309805,81.89319219750705,0,60,3.0,3,0.10336922817663642
4.535,0.19245222055656455,82.16640283127366,0,60,3.0,3,0.10979771367702724
4.54,0.17213889801761392,82.49180664386697,0,60,3.0,3,0.11745427397334036
4.545,0.15275638501270183,82.85182970057085,0,60,3.0,3,0.12592540471931402
4.55,0.13448814019607322,83.23310877819486,0,60,3.0,3,0.13489667713399672
4.555,0.11747159495449566,83.62530580186197,0,60,3.0,3,0.14412484239675222
4.56,0.10179958433370105,84.02015461343919,0,60,3.0,3,0.15341540266915737
4.565,0.08752324394101413,84.41075278688982,0,60,3.0,3,0.1626059479268192
4.57,0.07465606047174059,84.79107511020709,0,60,3.0,3,0.17155470847546092
4.575,0.0631787448609295,85.15566858139451,0,60,3.0,3,0.18013337838575313
4.58,0.05304460019959574,85.49948511358731,0,60,3.0,3,0.18822317914323086
4.585,0.044185078305849994,85.81781198508382,0,60,3.0,3,0.19571322317844286
4.59,0.03651525513023255,86.1062671685372,0,60,3.0,3,0.2025004039655812
4.595,0.0299390014708757,86.36083432317702,0,60,3.0,3,0.20849021936887097
4.6,0.024353677220580638,86.57791901100559,0,60,3.0,3,0.21359809437660213
4.605,0.01965423034339045,86.75441307651025,0,60,3.0,3,0.21775089591788815
4.61,0.015736632374757337,86.88775811124916,0,60,3.0,3,0.22088842614703896
4.615,0.012500627640593535,86.97600175641713,0,60,3.0,3,0.2229647472098149
4.62,0.009851811652115898,87.017842589161,0,60,3.0,3,0.2239492373920237
4.625,0.007703084175428559,87.012660771883,0,60,3.0,3,0.22382731227960015
4.63,0.005975544002062424,86.96053273007563,0,60,3.0,3,0.22260077011942653
4.635,0.004598905818663047,86.86222900437889,0,60,3.0,3,0.2202877412795033
4.64,0.0035115256454839104,86.719195178689,0,60,3.0,3,0.21692223949856484
4.645,0.002660121266303676,86.53351645798008,0,60,3.0,3,0.21255332842306082
4.65,0.0019992692560877024,86.30786706938648,0,60,3.0,3,0.20724393104438765
4.655,0.0014907520044639367,86.04544618487417,0,60,3.0,3,0.2010693219970392
4.66,0.0011028178277539807,85.74990250322291,0,60,3.0,3,0.19411535301700972
4.665,0.0008094059938923333,85.42524997119911,0,60,3.0,3,0.18647646991056724
4.67,0.0005893771793717645,85.0757773587906,0,60,3.0,3,0.17825358491272006
4.675,0.0004257792353490551,84.70595452519278,0,60,3.0,3,0.1695518711810066
4.68,0.0003051686392901525,84.32033821979824,0,60,3.0,3,0.160478546348194
4.685,0.00021699992642659966,83.92348015988665,0,60,3.0,3,0.1511407096443918
4.69,0.00015308884054097838,83.51983992315786,0,60,3.0,3,0.1416432923095967
4.695,0.00010714989329311098,83.11370490220835,0,60,3.0,3,0.13208717416960833
4.7,7.440535854020571e-05,82.70911920653026,0,60,3.0,3,0.12256751074188849
4.705,5.1260276743925106e-05,82.30982298507394,0,60,3.0,3,0.11317230553115143
4.71,3.503659887882241e-05,81.91920319962112,0,60,3.0,3,0.10398125175579112
4.715,2.375894748103639e-05,81.5402564270607,0,60,3.0,3,0.09506485710731052
4.72,1.5984413869232557e-05,81.1755638270808,0,60,3.0,3,0.0864838547548422
4.725,1.0669166579899869e-05,80.82727799879292,0,60,3.0,3,0.07828889408924523
4.73,7.06526633560511e-06,80.49712108066727,0,60,3.0,3,0.07052049601570047
4.735,4.641847214699205e-06,80.18639313486506,0,60,3.0,3,0.06320925023211899
4.74,3.025641074479182e-06,79.89598960793784,0,60,3.0,3,0.05637622606912554
4.745,1.9566278676921314e-06,79.6264264795071,0,60,3.0,3,0.050033564223696536
4.75,1.2553456560008793e-06,79.37787159987418,0,60,3.0,3,0.04418521411468666
4.755,7.990660428214668e-07,79.15018067413585,0,60,3.0,3,0.03882778056790244
4.76,5.046221251618276e-07,78.94293636900822,0,60,3.0,3,0.03395144397666406
4.765,3.1616527078858815e-07,78.75548909159917,0,60,3.0,3,0.029540919802333494
4.77,1.9652884407760343e-07,78.58699810755667,0,60,3.0,3,0.025576426060156872
4.775,1.2120002189836396e-07,78.43647181909245,0,60,3.0,3,0.022034631037469325
4.78,7.415549848886236e-08,78.30280620070539,0,60,3.0,3,0.018889557663656246
4.785,4.501406988770349e-08,78.18482058158935,0,60,3.0,3,0.01611342544916116
4.79,0.0,78.08129015900583,0,60,3.0,3,0.01367741550601957
4.795,0.0,77.99097481773615,0,60,3.0,3,0.011552348652615178
4.8,0.0,77.91264400989799,0,60,3.0,3,0.00970927082112914
4.805,0.0,77.84509761126496,0,60,3.0,3,0.008119943794469679
4.81,0.0,77.7871828107303,0,60,3.0,3,0.00675724260541883
4.815,0.0,77.73780720624384,0,60,3.0,3,0.005595463676325728
4.82,0.0,77.69594837242065,0,60,3.0,4,0.004610549939309294
4.825,0.0,77.66066023234221,0,60,3.0,4,0.0037802407609931646
4.83,0.0,77.63107661018051,0,60,3.0,4,0.00308415553365916
4.835,0.0,77.60641236432045,0,60,3.0,4,0.0025038203369517225
4.84,0.0,77.58596250536276,0,60,3.0,4,0.002022647185006075
4.845,0.0,77.56909969282334,0,60,3.0,4,0.0016258751252551332
4.85,0.0,77.55527048169948,0,60,3.0,4,0.0013004819223407166
4.855,0.0,77.54399065849753,0,60,3.0,4,0.0010350743175890516
4.86,0.0,77.53483996875943,0,60,3.0,4,0.0008197639708100724
4.865,0.0,77.52745649724005,0,60,3.0,4,0.0006460352291777086
4.87,0.0,77.52153091995265,0,60,3.0,4,0.000506609881238894
4.875,0.0,77.51680080618708,0,60,3.0,4,0.00039531308675477437
4.88,0.0,77.51304510977057,0,60,3.0,4,0.0003069437593076012
4.885,0.0,77.51007895333593,0,60,3.0,4,0.00023715184319846283
4.89,0.0,77.50774877787383,0,60,3.0,4,0.00018232418526655932
4.895,0.0,77.50592790273667,0,60,3.0,4,0.00013948006439230032
4.9,0.0,77.50451251862505,0,60,3.0,4,0.00010617690882467662
4.905,0.0,77.50341811780184,0,60,3.0,4,8.042630121983219e-05
4.91,0.0,77.50257635156204,0,60,3.0,4,6.062003675390984e-05
4.915,0.0,77.50193229444417,0,60,3.0,4,4.5465751627622974e-05
4.92,0.0,77.50144208734422,0,60,3.0,4,3.3931466922735235e-05
4.925,0.0,77.5010709270944,0,60,3.0,4,2.519828457419702e-05
4.93,0.0,77.50079136771336,0,60,3.0,4,1.862041678497703e-05
4.935,0.0,77.50058189795325,0,60,3.0,4,1.3691716547140567e-05
4.94,0.0,77.50042576054396,0,60,3.0,4,1.0017895152045373e-05
4.945,0.0,77.5003099802863,0,60,3.0,4,7.293653795373115e-06
4.95,0.0,77.50022457055825,0,60,3.0,4,5.284013135183962e-06
4.955,0.0,77.5001618906037,0,60,3.0,4,3.809190675450308e-06
4.96,0.0,77.5001161289628,0,60,3.0,4,2.7324461835659724e-06
4.965,0.0,77.50008289141098,0,60,3.0,4,1.950386140780371e-06
4.97,0.0,77.5000588746852,0,60,3.0,4,1.3852867104614074e-06
4.975,0.0,77.50004161000271,0,60,3.0,4,9.7905888731689e-07
4.98,0.0,77.50002926287357,0,60,3.0,4,6.885382015966838e-07
4.985,0.0,77.50002047794057,0,60,3.0,4,4.818338956791943e-07
4.99,0.0,77.50001425954493,0,60,3.0,4,3.3551870414532246e-07
4.995,0.0,77.50000988041381,0,60,3.0,4,2.3248032501963763e-07
5.0,0.001684486749771458,77.5000068123144,0,60,3.0,4,1.6028975049748088e-07
5.005,0.003097557930867117,77.50000467373745,0,60,3.0,4,1.0997029295033237e-07
5.01,0.005475106668887023,77.50000319068567,0,60,3.0,4,7.507495705367012e-08
5.015,0.00930222931468658,77.50000216747358,0,60,3.0,4,5.099937839879524e-08
5.02,0.01519157517868857,77.50000146512164,0,60,3.0,4,3.447345039496534e-08
5.025,0.023847336626128316,77.50000098547052,0,60,3.0,4,2.318754167497579e-08
5.03,0.0359830743700859,77.50000065957421,0,60,3.0,4,1.5519393226735273e-08
5.035,0.05218887796857759,77.50000043927226,0,60,3.0,4,1.0335817785958438e-08
5.04,0.0727577001223134,77.50000029110788,0,60,3.0,4,6.849597197929945e-09
5.045,0.0974992498694751,77.50000019196597,0,60,3.0,4,4.516846274782438e-09
5.05,0.12558706050443358,77.50000012596347,0,60,3.0,4,2.963846287350273e-09
5.055,0.15549263588878245,77.50000008224605,0,60,3.0,4,1.9352010921840486e-09
5.06,0.1850529723539114,77.5000000534362,0,60,3.0,4,1.2573222567666295e-09
5.065,0.21169159439317053,77.50000003454666,0,60,3.0,4,8.128625615748152e-10
5.07,0.23277292922115492,77.50000002222423,0,60,3.0,4,5.229230068567524e-10
5.075,0.24602692519491282,77.50000001422649,0,60,3.0,4,3.3474086247973474e-10
5.08,0.24995056064839283,77.50000000906188,0,60,3.0,4,2.1322066726604723e-10
5.085,0.24408826520424054,77.50000000574367,0,60,3.0,4,1.3514522834157106e-10
5.09,0.22911894216865275,77.50000000362252,0,60,3.0,4,8.523570346262525e-11
5.095,0.20672661788705934,77.50000000227342,0,60,3.0,4,5.349233213243732e-11
5.1,0.17928878030241233,77.50000000141972,0,60,3.0,4,3.3405205399236256e-11
5.105,0.14946211903866036,77.50000000088221,0,60,3.0,4,2.0757879075758598e-11
5.11,0.1197651512573837,77.5000000005455,0,60,3.0,4,1.283524397877045e-11
5.115,0.09224675744988023,77.50000000033563,0,60,3.0,4,7.897222745026846e-12
5.12,0.06829565320281596,77.50000000020549,0,60,3.0,4,4.8350343336899055e-12
5.125,0.04860224607515734,77.50000000012518,0,60,3.0,4,2.9454922161462225e-12
5.13,0.03324612389699793,77.50000000007589,0,60,3.0,4,1.7855520983336164e-12
5.135,0.021859876340472782,77.50000000004577,0,60,3.0,4,1.0770156008862506e-12
5.14,0.01381595518554205,77.50000000002747,0,60,3.0,4,6.463431097525994e-13
5.145,0.008394095110402422,77.50000000001641,0,60,3.0,4,3.862008752013721e-13
5.15,0.0049052535271608,77.50000000000975,0,60,3.0,4,2.2937991375596645e-13
5.155,0.0027671663551903634,77.50000000000577,0,60,3.0,4,1.3575545916169443e-13
5.16,0.0015425553464444616,77.5000000000034,0,60,3.0,4,7.991515945725361e-14
5.165,0.0009638206637011801,77.50000000000199,0,60,3.0,4,4.681222729713601e-14
5.17,0.0009804935156568228,77.50000000000115,0,60,3.0,4,2.7084217221914406e-14
5.175,0.0018793744894085216,77.50000000000067,0,60,3.0,4,1.5715533449752805e-14
5.18,0.004535525206900863,77.50000000000038,0,60,3.0,4,9.028072407304802e-15
5.185,0.010832767979632273,77.50000000000023,0,60,3.0,4,5.349968833958401e-15
5.19,0.024208003392322392,77.50000000000013,0,60,3.0,4,3.0093574691016007e-15
5.195,0.0500971897335304,77.50000000000007,0,60,3.0,4,1.6718652606120004e-15
5.2,0.09582894921774403,77.50000000000004,0,60,3.0,4,1.0031191563672002e-15
5.205,0.16937896721820658,77.50000000000003,0,60,3.0,4,6.687461042448002e-16
5.21,0.27661303008991756,77.50000000000001,0,60,3.0,4,3.343730521224001e-16
5.215,0.4173782800009149,77.5,0,60,3.0,4,0.0
5.22,0.5818720934538056,77.5,0,60,3.0,4,0.0
5.225,0.7494718801585675,77.5,0,60,3.0,4,0.0
5.23,0.891813020752378,77.5,0,60,3.0,4,0.0
5.235,0.9800361632936612,77.5,0,60,3.0,4,0.0
5.24,0.993574479225126,77.50000248990796,1,60,3.0,4,5.858606955906212e-08
5.245,0.9263438449375362,77.5000037286574,0,60,3.0,4,8.773311539217128e-08
5.25,0.7873015962290536,77.50000568588439,0,60,3.0,4,1.337855150375296e-07
5.255,0.5959516244629897,77.50000890930662,0,60,3.0,4,2.0963074388526044e-07
5.26,0.376910120078773,77.50001447339277,0,60,3.0,4,3.4055041804576296e-07
5.265,0.15739335672107918,77.50002452750309,0,60,3.0,4,5.771177196787475e-07
5.27,-0.033361226269301235,77.5000433960668,0,60,3.0,4,1.021083924717245e-06
5.275,-0.1680180840843834,77.50007973898661,0,60,3.0,4,1.8762114497322353e-06
5.28,-0.23069703190837854,77.50015069162811,0,60,3.0,4,3.5456853672311648e-06
5.285,-0.22587267821131068,77.50028959295834,0,60,3.0,4,6.813951960914303e-06
5.29,-0.17718181630665902,77.50056001888449,0,60,3.0,4,1.3176914929063595e-05
5.295,-0.11494332516451301,77.50108054165499,0,60,3.0,4,2.542450952907583e-05
5.3,-0.061810214049552864,77.5020671248821,0,60,3.0,4,4.863823252007398e-05
5.305,-0.026546104631500547,77.50390348912202,0,60,3.0,4,9.184680287115256e-05
5.31,-0.00719600351942686,77.50725416478957,0,60,3.0,4,0.00017068623034286728
5.315,0.0022072757983807078,77.51324002953402,0,60,3.0,4,0.0003115301066827669
5.32,0.006917199873730717,77.52370117791926,0,60,3.0,4,0.0005576747745709219
5.325,0.01004859748264829,77.54157558450754,0,60,3.0,4,0.0009782490472362577
5.33,0.013037082251128167,77.57142194911829,0,60,3.0,4,0.0016805164498420895
5.335,0.01645163937690478,77.62010826221689,0,60,3.0,4,0.002826076758044431
5.34,0.020526639934696615,77.69767035157514,0,60,3.0,4,0.004651067095885671
5.345,0.02539629541761738,77.81831348778191,0,60,3.0,4,0.007489729124280168
5.35,0.031171612185577933,78.0014829477885,0,60,3.0,4,0.011799598771494188
5.355,0.03795853426638131,78.27286722650334,0,60,3.0,4,0.018185111211843217
5.36,0.0458588961882057,78.66512616122492,0,60,3.0,4,0.027414733205292204
5.365,0.054966995891435555,79.21806764054246,0,60,3.0,4,0.040425120953940186
5.37,0.06536491004445595,79.97794929382763,0,60,3.0,4,0.05830468926653259
5.375,0.07711726085088699,80.99557875484656,0,60,3.0,4,0.08224891187874264
5.38,0.09026570629555215,82.3229513271192,0,60,3.0,4,0.11348120769692233
5.385,0.10482339848670268,84.00831448173156,0,60,3.0,4,0.15313681133486023
5.39,0.12076968927580028,86.08978772150972,0,60,3.0,4,0.202112652270817
5.395,0.13804539501007884,88.5879756289421,0,60,3.0,4,0.26089354421040245
5.4,0.15654895051787066,91.49834781306552,0,60,3.0,4,0.32937288971918877
5.405,0.17613378141900526,94.78445551284759,0,60,3.0,4,0.4066930708905314
5.41,0.19660720058055794,98.37323150417649,0,60,3.0,4,0.4911348589217997
5.415,0.21773108748496234,102.15360288262184,0,60,3.0,4,0.5800847737087492
5.42,0.23922453870058807,105.97938632685833,0,60,3.0,4,0.6701032076907842
5.425,0.2607685857914563,109.67692951344652,0,60,3.0,4,0.7571042238458006
5.43,0.2820129681603682,113.05726517729511,0,60,3.0,4,0.8366415335834143
5.435,0.30258482867153996,115.93176672692951,0,60,3.0,4,0.9042768641630473
5.44,0.3220990771751686,118.12958552231964,0,60,3.0,4,0.9559902475839916
5.445,0.3401700499968971,119.51466594770267,0,60,3.0,4,0.9885803752400628
5.45,0.3564239911198326,120.0,0,60,3.0,4,1.0
5.455,0.3705118017738417,119.55705719463694,0,60,3.0,4,0.9895778163443986
5.46,0.3821214567925213,118.21898088329543,0,60,3.0,4,0.9580936678422454
5.465,0.39098947374066967,116.0770659251651,0,60,3.0,4,0.9076956688274141
5.47,0.3969108472035567,113.27105027643492,0,60,3.0,4,0.8416717712102334
5.475,0.3997469255491936,109.9746676782558,0,60,3.0,4,0.7641098277236659
5.48,0.3994308076379137,106.37854761648535,0,60,3.0,4,0.6794952380349494
5.485,0.3959699661768434,102.67280317329086,0,60,3.0,4,0.5923012511362555
5.49,0.38944595408114946,99.03149431203465,0,60,3.0,4,0.506623395577286
5.495,0.38001120995358023,95.60065623329429,0,60,3.0,4,0.4258977937245715
5.5,0.3678831374098315,92.49086680927319,0,60,3.0,4,0.35272627786525146
5.505,0.35333577933796634,89.77455031193628,0,60,3.0,4,0.2888129485161478
5.51,0.33668953221163944,87.48752467500061,0,60,3.0,4,0.23500058058824974
5.515,0.3182994390982644,85.63380478482745,0,60,3.0,4,0.19138364199593993
5.52,0.29854265738230645,84.19242663892466,0,60,3.0,4,0.1574688620923449
5.525,0.2778057157821067,83.1250509994629,0,60,3.0,4,0.13235414116383293
5.53,0.2564721553719815,82.38328973340646,0,60,3.0,4,0.11490093490368133
5.535,0.23491109433464996,81.91499786241418,0,60,3.0,4,0.10388230264503959
5.54,0.21346717185309805,81.66911041111341,0,60,3.0,4,0.0980967155556096
5.545,0.19245222055656455,81.59890989899148,0,60,3.0,4,0.09644493879979951
5.55,0.17213889801761392,81.66384541412548,0,60,3.0,4,0.0979728332735406
5.555,0.15275638501270183,81.8301704676645,0,60,3.0,4,0.1018863639450471
5.56,0.13448814019607322,82.07072824798924,0,60,3.0,4,0.10754654701151146
5.565,0.11747159495449566,82.36420728122273,0,60,3.0,4,0.11445193602877018
5.57,0.10179958433370105,82.69414154053058,0,60,3.0,4,0.12221509507130777
5.575,0.08752324394101413,83.04785974110723,0,60,3.0,4,0.13053787626134664
5.58,0.07465606047174059,83.41551711443385,0,60,3.0,4,0.1391886379866789
5.585,0.0631787448609295,83.78928111297144,0,60,3.0,4,0.14798308501109264
5.59,0.05304460019959574,84.16269580806126,0,60,3.0,4,0.15676931313085313
5.595,0.044185078305849994,84.53021899571937,0,60,3.0,4,0.16541691754633803
5.6,0.03651525513023255,84.88690903872194,0,60,3.0,4,0.1738096244405162
5.605,0.0299390014708757,85.22823174845027,0,60,3.0,4,0.18184074702235928
5.61,0.024353677220580638,85.5499575253136,0,60,3.0,4,0.1894107653014965
5.615,0.01965423034339045,85.84812248803348,0,60,3.0,4,0.19642641148314074
5.62,0.015736632374757337,86.1190322345129,0,60,3.0,4,0.20280075845912707
5.625,0.012500627640593535,86.35929182872866,0,60,3.0,4,0.20845392538185079
5.63,0.009851811652115898,86.56584990520606,0,60,3.0,4,0.2133141154166133
5.635,0.007703084175428559,86.73604818882806,0,60,3.0,4,0.21731878091360152
5.64,0.005975544002062424,86.86767027325033,0,60,3.0,4,0.22041577113530178
5.645,0.004598905818663047,86.95898533950358,0,60,3.0,4,0.2225643609294961
5.65,0.0035115256454839104,87.00878381221912,0,60,3.0,4,0.22373608969927344
5.655,0.002660121266303676,87.01640291098104,0,60,3.0,4,0.22391536261131867
5.66,0.0019992692560877024,86.98174078734127,0,60,3.0,4,0.2230997832315592
5.665,0.0014907520044639367,86.90525853242433,0,60,3.0,4,0.22130020076292534
5.67,0.0011028178277539807,86.78796984983194,0,60,3.0,4,0.21854046705486915
5.675,0.0008094059938923333,86.63141864206983,0,60,3.0,4,0.2148569092251725
5.68,0.0005893771793717645,86.4376451669792,0,60,3.0,4,0.21029753334068693
5.685,0.0004257792353490551,86.20914178417182,0,60,3.0,4,0.20492098315698398
5.69,0.0003051686392901525,85.94879962528395,0,60,3.0,4,0.1987952853007989
5.695,0.00021699992642659966,85.65984777902564,0,60,3.0,4,0.19199641833001505
5.7,0.00015308884054097838,85.34578677584746,0,60,3.0,4,0.184606747666999
5.705,0.00010714989329311098,85.0103182826044,0,60,3.0,4,0.1767133713553977
5.71,7.440535854020571e-05,84.65727297238483,0,60,3.0,4,0.16840642287964308
5.715,5.1260276743925106e-05,84.29053851906718,0,60,3.0,4,0.15977737691922786
5.72,3.503659887882241e-05,83.91398958343785,0,60,3.0,4,0.1509174019632436
5.725,2.375894748103639e-05,83.53142151384404,0,60,3.0,4,0.14191580032574205
5.73,1.5984413869232557e-05,83.14648928771153,0,60,3.0,4,0.13285857147556546
5.735,1.0669166579899869e-05,82.76265298104968,0,60,3.0,4,0.1238271289658749
5.74,7.06526633560511e-06,82.38313078282027,0,60,3.0,4,0.1148971948898888
5.745,4.641847214699205e-06,82.01086028197936,0,60,3.0,4,0.10613788898774969
5.75,3.025641074479182e-06,81.64846845941109,0,60,3.0,4,0.09761102257437863
5.755,1.9566278676921314e-06,81.29825052665099,0,60,3.0,4,0.08937060062708209
5.76,1.2553456560008793e-06,80.9621574790163,0,60,3.0,4,0.08146252891803055
5.765,7.990660428214668e-07,80.64179198183254,0,60,3.0,4,0.07392451721958918
5.77,5.046221251618276e-07,80.33841199240204,0,60,3.0,4,0.06678616452710691
5.775,3.1616527078858815e-07,80.05294134273204,0,60,3.0,4,0.06006920806428331
5.78,1.9652884407760343e-07,79.78598637227384,0,60,3.0,4,0.053787914641737405
5.785,1.2120002189836396e-07,79.53785760739456,0,60,3.0,4,0.04794959076222486
5.79,7.415549848886236e-08,79.30859543443712,0,60,3.0,4,0.04255518669263819
5.795,4.501406988770349e-08,79.09799870371573,0,60,3.0,4,0.03759996949919368
5.8,0.0,78.90565522887344,0,60,3.0,4,0.03307424067937511
5.805,0.0,78.73097320479162,0,60,3.0,4,0.028964075406861745
5.81,0.0,78.57321265199117,0,60,3.0,4,0.02525206239979224
5.815,0.0,78.43151610006214,0,60,3.0,4,0.021918025883815064
5.82,0.0,78.30493784085115,0,60,3.0,4,0.01893971390238007
5.825,0.0,78.19247120785805,0,60,3.0,4,0.016293440184895255
5.83,0.0,78.09307346591976,0,60,3.0,4,0.013954669786347254
5.835,0.0,78.00568801980442,0,60,3.0,4,0.011898541642457036
5.84,0.0,77.9292637675988,0,60,3.0,4,0.010100323943501119
5.845,0.0,77.86277153141357,0,60,3.0,4,0.008535800739142854
5.85,0.0,77.8052175915188,0,60,3.0,4,0.007181590388677585
5.855,0.0,77.75565442900356,0,60,3.0,4,0.006015398329495437
5.86,0.0,77.71318884570155,0,60,3.0,4,0.005016208134154166
5.865,0.0,77.67698767844453,0,60,3.0,4,0.004164415963400776
5.87,0.0,77.64628135832652,0,60,3.0,4,0.0034419143135651477
5.875,0.0,77.62036558570827,0,60,3.0,4,0.0028321314284299017
5.88,0.0,77.59860139965794,0,60,3.0,4,0.002320032933127938
5.885,0.0,77.5804139181414,0,60,3.0,4,0.001892092191562423
5.89,0.0,77.56529001440353,0,60,3.0,4,0.0015362356330242352
5.895,0.0,77.55277517749663,0,60,3.0,4,0.0012417688822735913
5.9,0.0,77.54246978262495,0,60,3.0,4,0.0009992890029399645
5.905,0.0,77.53402497156353,0,60,3.0,4,0.000800587566200594
5.91,0.0,77.52713831636724,0,60,3.0,4,0.0006385486204057062
5.915,0.0,77.5215494121934,0,60,3.0,4,0.0005070449927857493
5.92,0.0,77.51703551836333,0,60,3.0,4,0.0004008357261959779
5.925,0.0,77.51340734160578,0,60,3.0,4,0.00031546686131257636
5.93,0.0,77.51050503234966,0,60,3.0,4,0.0002471772317566025
5.935,0.0,77.50819444435803,0,60,3.0,4,0.00019281045548295343
5.94,0.0,77.50636369013327,0,60,3.0,4,0.00014973388548870548
5.945,0.0,77.5049200094337,0,60,3.0,4,0.00011576492785185538
5.95,0.0,77.50378695586653,0,60,3.0,4,8.91048439183685e-05
5.955,0.0,77.50290189670585,0,60,3.0,4,6.827992249060009e-05
5.96,0.0,77.50221381360679,0,60,3.0,4,5.208973192439129e-05
5.965,0.0,77.5016813864866,0,60,3.0,4,3.956203497871095e-05
5.97,0.0,77.50127133923534,0,60,3.0,4,2.991386436105238e-05
5.975,0.0,77.50095702381466,0,60,3.0,4,2.2518207403851086e-05
5.98,0.0,77.5007172184236,0,60,3.0,4,1.687572761417922e-05
5.985,0.0,77.50053511549454,0,60,3.0,4,1.2590952812776296e-05
5.99,0.0,77.5003974760937,0,60,3.0,4,9.352378675189624e-06
5.995,0.0,77.50029392863442,0,60,3.0,4,6.915967868708857e-06
6.0,0.0,77.50021639149041,0,60,3.0,4,5.091564480273839e-06
6.005,0.0,77.5001586009764,0,60,3.0,4,3.7317876801272872e-06
6.01,0.0,77.50011572812916,0,60,3.0,4,2.7230148037581195e-06
6.015,0.0,77.50008406968217,0,60,3.0,4,1.978110168800092e-06
6.02,0.0,77.50006080051752,0,60,3.0,4,1.4306004121568977e-06
6.025,0.0,77.50004377665195,0,60,3.0,5,1.0300388694036776e-06
6.03,0.0,77.50003137944141,0,60,3.0,5,7.383397978762386e-07
6.035,0.0,77.5000223931542,0,60,3.0,5,5.268977458051856e-07
6.04,0.0,77.50001590936077,0,60,3.0,5,3.743379004524339e-07
6.045,0.0,77.50001125272193,0,60,3.0,5,2.6476992783339964e-07
6.05,0.0,77.50000792373315,0,60,3.0,5,1.8644078001189509e-07
6.055,0.0,77.50000555481363,0,60,3.0,5,1.3070149708148486e-07
6.06,0.0,77.50000387682807,0,60,3.0,5,9.121948410746187e-08
6.065,0.001684486749771458,77.50000269371093,0,60,3.0,5,6.338143353947516e-08
6.07,0.003097557930867117,77.5000018633431,0,60,3.0,5,4.384336708586916e-08
6.075,0.005475106668887023,77.50000128322282,0,60,3.0,5,3.019347800278304e-08
6.08,0.00930222931468658,77.50000087978937,0,60,3.0,5,2.0700926316909745e-08
6.085,0.01519157517868857,77.50000060051346,0,60,3.0,5,1.4129728456549962e-08
6.09,0.023847336626128316,77.50000040806954,0,60,3.0,5,9.601636212905492e-09
6.095,0.0359830743700859,77.50000027606605,0,60,3.0,5,6.495671681584688e-09
6.1,0.05218887796857759,77.50000018593418,0,60,3.0,5,4.374921967182137e-09
6.105,0.0727577001223134,77.50000012467312,0,60,3.0,5,2.933485214217559e-09
6.11,0.0974992498694751,77.50000008322502,0,60,3.0,5,1.958235717371709e-09
6.115,0.12558706050443358,77.50000005530983,0,60,3.0,5,1.3014076718237073e-09
6.12,0.15549263588878245,77.5000000365947,0,60,3.0,5,8.610517371005913e-10
6.125,0.1850529723539114,77.50000002410468,0,60,3.0,5,5.67168920978849e-10
6.13,0.21169159439317053,77.50000001580709,0,60,3.0,5,3.719315052020487e-10
6.135,0.23277292922115492,77.50000001031977,0,60,3.0,5,2.428180323477136e-10
6.14,0.24602692519491282,77.50000000670742,0,60,3.0,5,1.57821739990408e-10
6.145,0.24995056064839283,77.50000000434018,0,60,3.0,5,1.0212187696785858e-10
6.15,0.24408826520424054,77.50000000279594,0,60,3.0,5,6.578689488592585e-11
6.155,0.22911894216865275,77.50000000179314,0,60,3.0,5,4.2191526089856566e-11
6.16,0.20672661788705934,77.50000000114491,0,60,3.0,5,2.6939099317293286e-11
6.165,0.17928878030241233,77.50000000072777,0,60,3.0,5,1.7123912745292353e-11
6.17,0.14946211903866036,77.50000000046056,0,60,3.0,5,1.0836696246234865e-11
6.175,0.1197651512573837,77.50000000029016,0,60,3.0,5,6.827228978235165e-12
6.18,0.09224675744988023,77.500000000182,0,60,3.0,5,4.2823156785315775e-12
6.185,0.06829565320281596,77.50000000011364,0,60,3.0,5,2.6739812978228334e-12
6.19,0.04860224607515734,77.50000000007066,0,60,3.0,5,1.6625028151525732e-12
6.195,0.03324612389699793,77.50000000004373,0,60,3.0,5,1.0288658813806251e-12
6.2,0.021859876340472782,77.50000000002694,0,60,3.0,5,6.339713068240705e-13
6.205,0.01381595518554205,77.50000000001653,0,60,3.0,5,3.888758596183513e-13
6.21,0.008394095110402422,77.50000000001009,0,60,3.0,5,2.374048670069041e-13
6.215,0.0049052535271608,77.50000000000614,0,60,3.0,5,1.4444915851687683e-13
6.22,0.0027671663551903634,77.50000000000371,0,60,3.0,5,8.727136660394643e-14
6.225,0.0015425553464444616,77.50000000000223,0,60,3.0,5,5.2496569183216817e-14
6.23,0.0009638206637011801,77.50000000000134,0,60,3.0,5,3.143106689950561e-14
6.235,0.0009804935156568228,77.5000000000008,0,60,3.0,5,1.8724890918854405e-14
6.24,0.0018793744894085216,77.50000000000048,0,60,3.0,5,1.1368683772161604e-14
6.245,0.004535525206900863,77.50000000000028,0,60,3.0,5,6.687461042448002e-15
6.25,0.010832767979632273,77.50000000000017,0,60,3.0,5,4.012476625468801e-15
6.255,0.024208003392322392,77.5000000000001,0,60,3.0,5,2.3406113648568006e-15
6.26,0.0500971897335304,77.50000000000006,0,60,3.0,5,1.3374922084896003e-15
6.265,0.09582894921774403,77.50000000000003,0,60,3.0,5,6.687461042448002e-16
6.27,0.16937896721820658,77.50000000000001,0,60,3.0,5,3.343730521224001e-16
6.275,0.27661303008991756,77.50000000000001,0,60,3.0,5,3.343730521224001e-16
6.28,0.4173782800009149,77.5,0,60,3.0,5,0.0
6.285,0.5818720934538056,77.5,0,60,3.0,5,0.0
6.29,0.7494718801585675,77.5,0,60,3.0,5,0.0
6.295,0.891813020752378,77.5,0,60,3.0,5,0.0
6.3,0.9800361632936612,77.5,0,60,3.0,5,0.0
6.305,0.993574479225126,77.50000249233909,1,60,3.0,5,5.864327276332701e-08
6.31,0.9263438449375362,77.50000393417172,0,60,3.0,5,9.256874624738617e-08
6.315,0.7873015962290536,77.5000063640856,0,60,3.0,5,1.4974319075169179e-07
6.32,0.5959516244629897,77.50001068889715,0,60,3.0,5,2.5150346232294397e-07
6.325,0.376910120078773,77.500018862235,0,60,3.0,5,4.438172940059731e-07
6.33,0.15739335672107918,77.50003517035837,0,60,3.0,5,8.275378440751357e-07
6.335,-0.033361226269301235,77.5000690217564,0,60,3.0,5,1.6240413271241457e-06
6.34,-0.1680180840843834,77.50014082332336,0,60,3.0,5,3.3134899614892407e-06
6.345,-0.23069703190837854,77.50029396273561,0,60,3.0,5,6.916770249678366e-06
6.35,-0.22587267821131068,77.5006184111326,0,60,3.0,5,1.4550850178974382e-05
6.355,-0.17718181630665902,77.50129555570794,0,60,3.0,5,3.0483663716254607e-05
6.36,-0.11494332516451301,77.50268018361174,0,60,3.0,5,6.30631438057475e-05
6.365,-0.061810214049552864,77.50544456390197,0,60,3.0,5,0.0001281073859288159
6.37,-0.026546104631500547,77.51082130963708,0,60,3.0,5,0.00025461905028424447
6.375,-0.00719600351942686,77.52099502457159,0,60,3.0,5,0.0004940005781550634
6.38,0.0022072757983807078,77.53970458895728,0,60,3.0,5,0.0009342256225241887
6.385,0.006917199873730717,77.57312250061958,0,60,3.0,5,0.0017205294263429576
6.39,0.01004859748264829,77.63106598202572,0,60,3.0,5,0.0030839054594286393
6.395,0.013037082251128167,77.72855510062294,0,60,3.0,5,0.005377767073480968
6.4,0.01645163937690478,77.88765436303515,0,60,3.0,5,0.009121279130238904
6.405,0.020526639934696615,78.13940920963522,0,60,3.0,5,0.015044922579652193
6.41,0.02539629541761738,78.52552201584362,0,60,3.0,5,0.02412992978455577
6.415,0.031171612185577933,79.09922671308908,0,60,3.0,5,0.03762886383739014
6.42,0.03795853426638131,79.9246635323784,0,60,3.0,5,0.05705090664419773
6.425,0.0458588961882057,81.07399391584457,0,60,3.0,5,0.08409397449046042
6.43,0.054966995891435555,82.6216083176575,0,60,3.0,5,0.12050843100370598
6.435,0.06536491004445595,84.63513056756528,0,60,3.0,5,0.16788542511918314
6.44,0.07711726085088699,87.16353032455919,0,60,3.0,5,0.22737718410727506
6.445,0.09026570629555215,90.22346244534107,0,60,3.0,5,0.29937558694920163
6.45,0.10482339848670268,93.78580951149479,0,60,3.0,5,0.3831955179175245
6.455,0.12076968927580028,97.76508286953606,0,60,3.0,5,0.4768254792832014
6.46,0.13804539501007884,102.01457924490444,0,60,3.0,5,0.5768136292918692
6.465,0.15654895051787066,106.32978301415727,0,60,3.0,5,0.6783478356272299
6.47,0.17613378141900526,110.46137267563913,0,60,3.0,5,0.7755617100150383
6.475,0.19660720058055794,114.13745816212113,0,60,3.0,5,0.8620578391087326
6.48,0.21773108748496234,117.09267748946532,0,60,3.0,5,0.9315924115168309
6.485,0.23922453870058807,119.09999799759018,0,60,3.0,5,0.9788234822962395
6.49,0.2607685857914563,120.0,0,60,3.0,5,1.0
6.495,0.2820129681603682,119.72243372512452,0,60,3.0,5,0.9934690288264593
6.5,0.30258482867153996,118.29603160172158,0,60,3.0,5,0.9599066259228607
6.505,0.3220990771751686,115.84470275181431,0,60,3.0,5,0.9022283000426896
6.51,0.3401700499968971,112.57083642722209,0,60,3.0,5,0.8251961512287551
6.515,0.3564239911198326,108.72886356162313,0,60,3.0,5,0.7347967896852501
6.52,0.3705118017738417,104.59389055380377,0,60,3.0,5,0.6375033071483241
6.525,0.3821214567925213,100.43076744786238,0,60,3.0,5,0.5395474693614678
6.53,0.39098947374066967,96.46833802487183,0,60,3.0,5,0.4463138358793371
6.535,0.3969108472035567,92.88209965938944,0,60,3.0,5,0.3619317566915162
6.54,0.3997469255491936,89.78653510091544,0,60,3.0,5,0.2890949435509516
6.545,0.3994308076379137,87.23647516247385,0,60,3.0,5,0.22909353323467888
6.55,0.3959699661768434,85.23542274613382,0,60,3.0,5,0.1820099469678546
6.555,0.38944595408114946,83.7480359009732,0,60,3.0,5,0.14701260943466368
6.56,0.38001120995358023,82.71393906157272,0,60,3.0,5,0.12268091909582862
6.565,0.3678831374098315,82.0605463396646,0,60,3.0,5,0.10730697269799053
6.57,0.35333577933796634,81.71339014822254,0,60,3.0,5,0.09913859172288339
6.575,0.33668953221163944,81.60330224871552,0,60,3.0,5,0.09654828820507111
6.58,0.3182994390982644,81.67050408627944,0,60,3.0,5,0.09812950791245732
6.585,0.29854265738230645,81.86613091207013,0,60,3.0,5,0.10273249204870902
6.59,0.2778057157821067,82.1519274595226,0,60,3.0,5,0.10945711669464933
6.595,0.2564721553719815,82.49885971724305,0,60,3.0,5,0.11762022864101294
6.6,0.23491109433464996,82.88526295110748,0,60,3.0,5,0.126712069437823
6.605,0.21346717185309805,83.29496538915102,0,60,3.0,5,0.13635212680355333
6.61,0.19245222055656455,83.7156469530013,0,60,3.0,5,0.146250516541207
6.615,0.17213889801761392,84.13754643739647,0,60,3.0,5,0.15617756323285803
6.62,0.15275638501270183,84.5525306173559,0,60,3.0,5,0.16594189687896232
6.625,0.13448814019607322,84.95348219733201,0,60,3.0,5,0.1753760517019296
6.63,0.11747159495449566,85.33394014028497,0,60,3.0,5,0.18432800330082272
6.635,0.10179958433370105,85.68792381231977,0,60,3.0,5,0.19265703087811215
6.64,0.08752324394101413,86.00988131489132,0,60,3.0,5,0.2002325015268545
6.645,0.07465606047174059,86.29471515826697,0,60,3.0,5,0.20693447431216394
6.65,0.0631787448609295,86.53785088067508,0,60,3.0,5,0.21265531483941366
6.655,0.05304460019959574,86.73532447507341,0,60,3.0,5,0.21730175235466853
6.66,0.044185078305849994,86.88387214505582,0,60,3.0,5,0.2207969916483722
6.665,0.03651525513023255,86.98101130529216,0,60,3.0,5,0.22308261894805073
6.67,0.0299390014708757,87.02510545252406,0,60,3.0,5,0.22412012829468375
6.675,0.024353677220580638,87.01540812527156,0,60,3.0,5,0.22389195588874267
6.68,0.01965423034339045,86.95208308020867,0,60,3.0,5,0.22240195482843922
6.685,0.015736632374757337,86.8361993292412,0,60,3.0,5,0.219675278335087
6.69,0.012500627640593535,86.66970096816668,0,60,3.0,5,0.215757669839216
6.695,0.009851811652115898,86.4553528615175,0,60,3.0,5,0.21071418497688227
6.7,0.007703084175428559,86.19666424964625,0,60,3.0,5,0.20462739410932346
6.705,0.005975544002062424,85.8977932043951,0,60,3.0,5,0.19759513422106117
6.71,0.004598905818663047,85.5634355576622,0,60,3.0,5,0.18972789547440477
6.715,0.0035115256454839104,85.19870244066831,0,60,3.0,5,0.1811459397804309
6.72,0.002660121266303676,84.80899088419606,0,60,3.0,5,0.1719762560987309
6.725,0.0019992692560877024,84.39985203416522,0,60,3.0,5,0.16234945962741695
6.73,0.0014907520044639367,83.97686143592856,0,60,3.0,5,0.15239673966890718
6.735,0.0011028178277539807,83.54549554860398,0,60,3.0,5,0.14224695408479954
6.74,0.0008094059938923333,83.11101819122497,0,60,3.0,5,0.13202395744058756
6.745,0.0005893771793717645,82.67838002700184,0,60,3.0,5,0.12184423592945497
6.75,0.0004257792353490551,82.25213349766712,0,60,3.0,5,0.11181490582746158
6.755,0.0003051686392901525,81.83636486694634,0,60,3.0,5,0.10203211451638447
6.76,0.00021699992642659966,81.43464426137449,0,60,3.0,5,0.09257986497351733
6.765,0.00015308884054097838,81.04999384673864,0,60,3.0,5,0.08352926698208575
6.77,0.00010714989329311098,80.68487358404445,0,60,3.0,5,0.07493820197751655
6.775,7.440535854020571e-05,80.34118339892207,0,60,3.0,5,0.06685137409228399
6.78,5.1260276743925106e-05,80.02028009462396,0,60,3.0,5,0.05930070810879897
6.785,3.503659887882241e-05,79.72300695535046,0,60,3.0,5,0.05230604600824603
6.79,2.375894748103639e-05,79.4497337299169,0,60,3.0,5,0.045876087762750595
6.795,1.5984413869232557e-05,79.20040455471387,0,60,3.0,5,0.040009518934444
6.8,1.0669166579899869e-05,78.97459136193396,0,60,3.0,5,0.0346962673396226
6.805,7.06526633560511e-06,78.77155041118107,0,60,3.0,5,0.02991883320426041
6.81,4.641847214699205e-06,78.59027976286526,0,60,3.0,5,0.025653641479182705
6.815,3.025641074479182e-06,78.42957576068818,0,60,3.0,5,0.0218723708397219
6.82,1.9566278676921314e-06,78.28808688740368,0,60,3.0,5,0.018543220880086572
6.825,1.2553456560008793e-06,78.16436368248169,0,60,3.0,5,0.015632086646628053
6.83,7.990660428214668e-07,78.05690374325727,0,60,3.0,5,0.013103617488406251
6.835,5.046221251618276e-07,77.9641911558218,0,60,3.0,5,0.010922144842865744
6.84,3.1616527078858815e-07,77.88473000441364,0,60,3.0,5,0.009052470692085656
6.845,1.9652884407760343e-07,77.8170718777431,0,60,3.0,5,0.007460514770425962
6.85,1.2120002189836396e-07,77.75983752025475,0,60,3.0,5,0.0061138240059940875
6.855,7.415549848886236e-08,77.71173296173248,0,60,3.0,5,0.004981952040764233
6.86,4.501406988770349e-08,77.67156059876946,0,60,3.0,5,0.004036719971046121
6.865,0.0,77.63822579784403,0,60,3.0,5,0.003252371713977161
6.87,0.0,77.61073964544266,0,60,3.0,5,0.0026056387162979636
6.875,0.0,77.5882184906858,0,60,3.0,5,0.002075729192607161
6.88,0.0,77.56988091599175,0,60,3.0,5,0.0016442568468646105
6.885,0.0,77.55504273763573,0,60,3.0,5,0.0012951232384877773
6.89,0.0,77.54311058680572,0,60,3.0,5,0.0010143667483699867
6.895,0.0,77.53357455876296,0,60,3.0,5,0.0007899896179521072
6.9,0.0,77.52600034823041,0,60,3.0,5,0.0006117728995390922
6.905,0.0,77.52002121764062,0,60,3.0,5,0.00047108747389690026
6.91,0.0,77.51533007501172,0,60,3.0,5,0.00036070764733454674
6.915,0.0,77.51167187275792,0,60,3.0,5,0.0002746323001862466
6.92,0.0,77.50883647961976,0,60,3.0,5,0.00020791716752375364
6.925,0.0,77.50665212631242,0,60,3.0,5,0.00015652061911570106
6.93,0.0,77.50497948198337,0,60,3.0,5,0.00011716428196163018
6.935,0.0,77.50370638316724,0,60,3.0,5,8.720901569979426e-05
6.94,0.0,77.50274320924372,0,60,3.0,5,6.454609985218989e-05
6.945,0.0,77.50201887777688,0,60,3.0,5,4.7503006514743364e-05
6.95,0.0,77.50147741869665,0,60,3.0,5,3.476279286239921e-05
6.955,0.0,77.50107507713466,0,60,3.0,5,2.529593258018662e-05
6.96,0.0,77.50077788989661,0,60,3.0,5,1.830329168496171e-05
6.965,0.0,77.50055967912361,0,60,3.0,5,1.3168920555565766e-05
6.97,0.0,77.50040040782481,0,60,3.0,5,9.421360583834992e-06
6.975,0.0,77.5002848449179,0,60,3.0,5,6.70223336234866e-06
6.98,0.0,77.5002014915631,0,60,3.0,5,4.740977955380539e-06
6.985,0.0,77.50014172541191,0,60,3.0,5,3.334715574296484e-06
6.99,0.0,77.50009912451172,0,60,3.0,5,2.3323414522484895e-06
6.995,0.0,77.50006893771202,0,60,3.0,5,1.6220638121253347e-06
7.0,0.0,77.50004767329185,0,60,3.0,5,1.121724514017414e-06
7.005,0.0,77.50003278203336,0,60,3.0,5,7.713419613671302e-07
7.01,0.001684486749771458,77.50002241501873,0,60,3.0,5,5.274122054957201e-07
7.015,0.003097557930867117,77.50001523999399,0,60,3.0,5,3.5858809376483857e-07
7.02,0.005475106668887023,77.5000103032196,0,60,3.0,5,2.4242869639077554e-07
7.025,0.00930222931468658,77.50000692633651,0,60,3.0,5,1.6297262377787882e-07
7.03,0.01519157517868857,77.50000462995416,0,60,3.0,5,1.0894009793606956e-07
7.035,0.023847336626128316,77.50000307745893,0,60,3.0,5,7.241079829862642e-08
7.04,0.0359830743700859,77.500002033997,0,60,3.0,5,4.785875309126448e-08
7.045,0.05218887796857759,77.50000133675195,0,60,3.0,5,3.145298705931055e-08
7.05,0.0727577001223134,77.50000087356216,0,60,3.0,5,2.055440371109666e-08
7.055,0.0974992498694751,77.50000056764821,0,60,3.0,5,1.3356428580129217e-08
7.06,0.12558706050443358,77.50000036678132,0,60,3.0,5,8.63014874726907e-09
7.065,0.15549263588878245,77.50000023565552,0,60,3.0,5,5.5448357643934505e-09
7.07,0.1850529723539114,77.50000015055338,0,60,3.0,5,3.5424323761938413e-09
7.075,0.21169159439317053,77.50000009564138,0,60,3.0,5,2.2503854779643005e-09
7.08,0.23277292922115492,77.50000006041483,0,60,3.0,5,1.4215255064567934e-09
7.085,0.24602692519491282,77.50000003794757,0,60,3.0,5,8.928840516626438e-10
7.09,0.24995056064839283,77.500000023701,0,60,3.0,5,5.576707200602601e-10
7.095,0.24408826520424054,77.50000001471946,0,60,3.0,5,3.463402636578608e-10
7.1,0.22911894216865275,77.50000000908992,0,60,3.0,5,2.1388038529788472e-10
7.105,0.20672661788705934,77.50000000558174,0,60,3.0,5,1.313350474126363e-10
7.11,0.17928878030241233,77.50000000340818,0,60,3.0,5,8.019235471746309e-11
7.115,0.14946211903866036,77.50000000206927,0,60,3.0,5,4.868872886564692e-11
7.12,0.1197651512573837,77.50000000124926,0,60,3.0,5,2.939440063902807e-11
7.125,0.09224675744988023,77.50000000074995,0,60,3.0,5,1.764586907965542e-11
7.13,0.06829565320281596,77.50000000044767,0,60,3.0,5,1.0533419887959848e-11
7.135,0.04860224607515734,77.50000000026571,0,60,3.0,5,6.252107328584637e-12
7.14,0.03324612389699793,77.50000000015683,0,60,3.0,5,3.6901410032228076e-12
7.145,0.021859876340472782,77.50000000009204,0,60,3.0,5,2.1657342585967854e-12
7.15,0.01381595518554205,77.50000000005372,0,60,3.0,5,1.2639301370226723e-12
7.155,0.008394095110402422,77.50000000003116,0,60,3.0,5,7.332801033044234e-13
7.16,0.0049052535271608,77.50000000001798,0,60,3.0,5,4.229819109348361e-13
7.165,0.0027671663551903634,77.50000000001032,0,60,3.0,5,2.4275483584086246e-13
7.17,0.0015425553464444616,77.50000000000588,0,60,3.0,5,1.3843044357867362e-13
7.175,0.0009638206637011801,77.50000000000334,0,60,3.0,5,7.857766724876402e-14
7.18,0.0009804935156568228,77.50000000000189,0,60,3.0,5,4.447161593227921e-14
7.185,0.0018793744894085216,77.50000000000105,0,60,3.0,5,2.4743605857057607e-14
7.19,0.004535525206900863,77.50000000000058,0,60,3.0,5,1.3709295137018404e-14
7.195,0.010832767979632273,77.50000000000033,0,60,3.0,5,7.690580198815202e-15
7.2,0.024208003392322392,77.50000000000018,0,60,3.0,5,4.3468496775912015e-15
7.205,0.0500971897335304,77.5000000000001,0,60,3.0,5,2.3406113648568006e-15
7.21,0.09582894921774403,77.50000000000006,0,60,3.0,5,1.3374922084896003e-15
7.215,0.16937896721820658,77.50000000000003,0,60,3.0,5,6.687461042448002e-16
7.22,0.27661303008991756,77.50000000000001,0,60,3.0,5,3.343730521224001e-16
7.225,0.4173782800009149,77.50000000000001,0,60,3.0,5,3.343730521224001e-16
7.23,0.5818720934538056,77.5,0,60,3.0,6,0.0
7.235,0.7494718801585675,77.5,0,60,3.0,6,0.0
7.24,0.891813020752378,77.5,0,60,3.0,6,0.0
7.245,0.9800361632936612,77.5,0,60,3.0,6,0.0
7.25,0.993574479225126,77.50000249060646,1,60,3.0,6,5.860250499769309e-08
7.255,0.9263438449375362,77.50000385734029,0,60,3.0,6,9.076094797552179e-08
7.26,0.7873015962290536,77.50000610730334,0,60,3.0,6,1.437012549425109e-07
7.265,0.5959516244629897,77.50000999976028,0,60,3.0,6,2.3528847718272813e-07
7.27,0.376910120078773,77.50001711607312,0,60,3.0,6,4.027311323331078e-07
7.275,0.15739335672107918,77.5000308127143,0,60,3.0,6,7.250050423542288e-07
7.28,-0.033361226269301235,77.50005823243188,0,60,3.0,6,1.3701748678292514e-06
7.285,-0.1680180840843834,77.50011443699209,0,60,3.0,6,2.6926351080526407e-06
7.29,-0.23069703190837854,77.50023065316174,0,60,3.0,6,5.427133217327697e-06
7.295,-0.22587267821131068,77.50047021644501,0,60,3.0,6,1.106391635316333e-05
7.3,-0.17718181630665902,77.5009583966,0,60,3.0,6,2.255050823524631e-05
7.305,-0.11494332516451301,77.50193629964134,0,60,3.0,6,4.5559991561022426e-05
7.31,-0.061810214049552864,77.50385483894526,0,60,3.0,6,9.07020928296146e-05
7.315,-0.026546104631500547,77.50753250751332,0,60,3.0,6,0.0001772354709015979
7.32,-0.00719600351942686,77.51440996954433,0,60,3.0,6,0.00033905810692544944
7.325,0.0022072757983807078,77.52694391670826,0,60,3.0,6,0.0006339745107826435
7.33,0.006917199873730717,77.54918926053296,0,60,3.0,6,0.0011573943654813025
7.335,0.01004859748264829,77.5876176648087,0,60,3.0,6,0.0020615921131459745
7.34,0.013037082251128167,77.65220482613245,0,60,3.0,6,0.003581290026645815
7.345,0.01645163937690478,77.7577808422973,0,60,3.0,6,0.006065431583465732
7.35,0.020526639934696615,77.92557045679185,0,60,3.0,6,0.010013422512749311
7.355,0.02539629541761738,78.1847502601857,0,60,3.0,6,0.016111770827898695
7.36,0.031171612185577933,78.57372412531626,0,60,3.0,6,0.02526409706626496
7.365,0.03795853426638131,79.14068530680169,0,60,3.0,6,0.038604360160039666
7.37,0.0458588961882057,79.94292800606925,0,60,3.0,6,0.05748065896633534
7.375,0.054966995891435555,81.0443400664048,0,60,3.0,6,0.08339623685658352
7.38,0.06536491004445595,82.51060356247285,0,60,3.0,6,0.11789655441112593
7.385,0.07711726085088699,84.4018923138275,0,60,3.0,6,0.16239746620770595
7.39,0.09026570629555215,86.76329520888174,0,60,3.0,6,0.2179598872678057
7.395,0.10482339848670268,89.61377301640115,0,60,3.0,6,0.28502995332708597
7.4,0.12076968927580028,92.93507670582724,0,60,3.0,6,0.3631782754312292
7.405,0.13804539501007884,96.66256820647882,0,60,3.0,6,0.45088395779950174
7.41,0.15654895051787066,100.68011755916041,0,60,3.0,6,0.5454145308037743
7.415,0.17613378141900526,104.82105425803283,0,60,3.0,6,0.6428483354831255
7.42,0.19660720058055794,108.8764532668383,0,60,3.0,6,0.7382694886314893
7.425,0.21773108748496234,112.61088723201624,0,60,3.0,6,0.8261385231062645
7.43,0.23922453870058807,115.78436216317712,0,60,3.0,6,0.9008085214865205
7.435,0.2607685857914563,118.1777713622895,0,60,3.0,6,0.9571240320538708
7.44,0.2820129681603682,119.61819191512663,0,60,3.0,6,0.9910162803559207
7.445,0.30258482867153996,120.0,0,60,3.0,6,1.0
7.45,0.3220990771751686,119.29824545748835,0,60,3.0,6,0.9834881284114906
7.455,0.3401700499968971,117.5719546188641,0,60,3.0,6,0.9428695204438611
7.46,0.3564239911198326,114.95677661133668,0,60,3.0,6,0.8813359202667453
7.465,0.3705118017738417,111.64826619736436,0,60,3.0,6,0.8034886164085733
7.47,0.3821214567925213,107.87868369700878,0,60,3.0,6,0.7147925575766773
7.475,0.39098947374066967,103.89114672130673,0,60,3.0,6,0.6209681581483936
7.48,0.3969108472035567,99.91511507625712,0,60,3.0,6,0.5274144723825206
7.485,0.3997469255491936,96.14656082953842,0,60,3.0,6,0.4387426077538451
7.49,0.3994308076379137,92.73498319976926,0,60,3.0,6,0.3584701929357473
7.495,0.3959699661768434,89.77799372275705,0,60,3.0,6,0.2888939699472246
7.5,0.38944595408114946,87.32285486110474,0,60,3.0,6,0.23112599673187634
7.505,0.38001120995358023,85.37336529966561,0,60,3.0,6,0.185255654109779
7.51,0.3678831374098315,83.89998207819981,0,60,3.0,6,0.15058781360470147
7.515,0.35333577933796634,82.8510525309259,0,60,3.0,6,0.125907118374727
7.52,0.33668953221163944,82.16338984647568,0,60,3.0,6,0.10972681991707485
7.525,0.3182994390982644,81.7710004035094,0,60,3.0,6,0.10049412714139776
7.53,0.29854265738230645,81.61139076399436,0,60,3.0,6,0.0967386062116321
7.535,0.2778057157821067,81.62941598109197,0,60,3.0,6,0.0971627289668698
7.54,0.2564721553719815,81.7790040818856,0,60,3.0,6,0.1006824489855436
7.545,0.23491109433464996,82.02328621441396,0,60,3.0,6,0.1064302638685637
7.55,0.21346717185309805,82.33370255304422,0,60,3.0,6,0.1137341777186875
7.555,0.19245222055656455,82.68858789463043,0,60,3.0,6,0.12208442105012778
7.56,0.17213889801761392,83.07161944197627,0,60,3.0,6,0.13109692804650042
7.565,0.15275638501270183,83.47037548139828,0,60,3.0,6,0.1404794230917242
7.57,0.13448814019607322,83.87513591955003,0,60,3.0,6,0.1500031981070596
7.575,0.11747159495449566,84.27796761085855,0,60,3.0,6,0.15948159084373068
7.58,0.10179958433370105,84.67208126420148,0,60,3.0,6,0.16875485327532896
7.585,0.08752324394101413,85.05141767098016,0,60,3.0,6,0.17768041578776841
7.59,0.07465606047174059,85.41041137477472,0,60,3.0,6,0.18612732646528765
7.595,0.0631787448609295,85.74388204533,0,60,3.0,6,0.1939736951842352
7.6,0.05304460019959574,86.0470116192692,0,60,3.0,6,0.20110615574751056
7.605,0.044185078305849994,86.31537463568876,0,60,3.0,6,0.20742057966326483
7.61,0.03651525513023255,86.54499785256412,0,60,3.0,6,0.21282347888386172
7.615,0.0299390014708757,86.73243223546459,0,60,3.0,6,0.21723369965799025
7.62,0.024353677220580638,86.87482563242001,0,60,3.0,6,0.2205841325275297
7.625,0.01965423034339045,86.96998815607745,0,60,3.0,6,0.22282325073123407
7.63,0.015736632374757337,87.01644488029292,0,60,3.0,6,0.22391635012453937
7.635,0.012500627640593535,87.01347229325384,0,60,3.0,6,0.22384640690009036
7.64,0.009851811652115898,86.96111631870204,0,60,3.0,6,0.22261450161651858
7.645,0.007703084175428559,86.86019081224607,0,60,3.0,6,0.22023978381755469
7.65,0.005975544002062424,86.7122563730027,0,60,3.0,6,0.21675897348241652
7.655,0.004598905818663047,86.51958013614413,0,60,3.0,6,0.21222541496809713
7.66,0.0035115256454839104,86.28507794654647,0,60,3.0,6,0.2067077163893286
7.665,0.002660121266303676,86.01224095394758,0,60,3.0,6,0.20028802244582547
7.67,0.0019992692560877024,85.7050492026738,0,60,3.0,6,0.19305998123938367
7.675,0.0014907520044639367,85.36787519896696,0,60,3.0,6,0.18512647526981074
7.68,0.0011028178277539807,85.00538071378118,0,60,3.0,6,0.1765971932654395
7.685,0.0008094059938923333,84.6224102114667,0,60,3.0,6,0.1675861226227459
7.69,0.0005893771793717645,84.22388428441178,0,60,3.0,6,0.15820904198615957
7.695,0.0004257792353490551,83.81469632673434,0,60,3.0,6,0.14858109004080788
7.7,0.0003051686392901525,83.39961540923211,0,60,3.0,6,0.13881448021722617
7.705,0.00021699992642659966,82.98319794133803,0,60,3.0,6,0.1290164221491302
7.71,0.00015308884054097838,82.5697102464525,0,60,3.0,6,0.11928729991652945
7.715,0.00010714989329311098,82.16306366028918,0,60,3.0,6,0.10971914494798077
7.72,7.440535854020571e-05,81.76676321464303,0,60,3.0,6,0.10039442857983612
7.725,5.1260276743925106e-05,81.3838704178972,0,60,3.0,6,0.09138518630346351
7.73,3.503659887882241e-05,81.01698011357695,0,60,3.0,6,0.08275247326063409
7.735,2.375894748103639e-05,80.66821091136433,0,60,3.0,6,0.07454613909092533
7.74,1.5984413869232557e-05,80.33920825933811,0,60,3.0,6,0.06680490021972017
7.745,1.0669166579899869e-05,80.03115887537963,0,60,3.0,6,0.059556679420697214
7.75,7.06526633560511e-06,79.74481498835964,0,60,3.0,6,0.052819176196697314
7.755,4.641847214699205e-06,79.48052665965687,0,60,3.0,6,0.0466006272860441
7.76,3.025641074479182e-06,79.23828036186586,0,60,3.0,6,0.0409007143968438
7.765,1.9566278676921314e-06,79.01774197921334,0,60,3.0,6,0.03571157598149037
7.77,1.2553456560008793e-06,78.8183024547782,0,60,3.0,6,0.03101888128889895
7.775,7.990660428214668e-07,78.6391244320625,0,60,3.0,6,0.02680292781323534
7.78,5.046221251618276e-07,78.47918841005006,0,60,3.0,6,0.023039727295295454
7.785,3.1616527078858815e-07,78.3373371380437,0,60,3.0,6,0.019702050306910437
7.79,1.9652884407760343e-07,78.21231720572483,0,60,3.0,6,0.016760404840584227
7.795,1.2120002189836396e-07,78.10281702217611,0,60,3.0,6,0.014183929933555566
7.8,7.415549848886236e-08,78.00750061349781,0,60,3.0,6,0.011941190905830849
7.805,4.501406988770349e-08,77.92503689230902,0,60,3.0,6,0.010000868054329965
7.81,0.0,77.85412425603842,0,60,3.0,6,0.008332335436198064
7.815,0.0,77.79351054877074,0,60,3.0,6,0.006906130559311537
7.82,0.0,77.74200856992353,0,60,3.0,6,0.005694319292318288
7.825,0.0,77.69850743053568,0,60,3.0,6,0.004670763071427874
7.83,0.0,77.66198014454383,0,60,3.0,6,0.003811297518678416
7.835,0.0,77.63148789963498,0,60,3.0,6,0.0030938329325876754
7.84,0.0,77.60618148274689,0,60,3.0,6,0.0024983878293386064
7.845,0.0,77.58530034248456,0,60,3.0,6,0.0020070668819896047
7.85,0.0,77.56816975854922,0,60,3.0,6,0.0016039943188051143
7.855,0.0,77.55419656084052,0,60,3.0,6,0.0012752131962476116
7.86,0.0,77.542863802236,0,60,3.0,6,0.0010085600526117426
7.865,0.0,77.53372474296843,0,60,3.0,6,0.0007935233639630844
7.87,0.0,77.52639645440267,0,60,3.0,6,0.0006210930447687535
7.875,0.0,77.52055329875957,0,60,3.0,6,0.0004836070296368475
7.88,0.0,77.51592049130771,0,60,3.0,6,0.00037459979547553997
7.885,0.0,77.5122679045549,0,60,3.0,6,0.0002886565777624342
7.89,0.0,77.50940423131003,0,60,3.0,6,0.00022127603082420887
7.895,0.0,77.50717158596277,0,60,3.0,6,0.0001687431991239036
7.9,0.0,77.50544059134097,0,60,3.0,6,0.00012801391390519925
7.905,0.0,77.50410597211048,0,60,3.0,6,9.661110848188561e-05
7.91,0.0,77.50308265466796,0,60,3.0,6,7.253305101090411e-05
7.915,0.0,77.50230235743923,0,60,3.0,6,5.4173116217270946e-05
7.92,0.0,77.50171064389794,0,60,3.0,6,4.025044465733759e-05
7.925,0.0,77.50126440285658,0,60,3.0,6,2.9750655448879117e-05
7.93,0.0,77.50092971602302,0,60,3.0,6,2.1875671129959407e-05
7.935,0.0,77.50068007084202,0,60,3.0,6,1.6001666871127728e-05
7.94,0.0,77.5004948766761,0,60,3.0,6,1.1644157084714715e-05
7.945,0.0,77.50035824390325,0,60,3.0,6,8.429268311762345e-06
7.95,0.0,77.50025798806918,0,60,3.0,6,6.070307510111995e-06
7.955,0.0,77.50018482445232,0,60,3.0,6,4.348810642795798e-06
7.96,0.0,77.50013172197245,0,60,3.0,6,3.0993405282649347e-06
7.965,0.0,77.50009338906223,0,60,3.0,6,2.1973896995110835e-06
7.97,0.0,77.50006586774495,0,60,3.0,6,1.5498292929591758e-06
7.975,0.0,77.50004621559701,0,60,3.0,6,1.0874258119950836e-06
7.98,0.0,77.5000322584378,0,60,3.0,6,7.590220658424669e-07
7.985,0.0,77.5000223994362,0,60,3.0,6,5.270455577534877e-07
7.99,0.0,77.50001547283287,0,60,3.0,6,3.6406665578718223e-07
7.995,0.001684486749771458,77.50001063265135,0,60,3.0,6,2.5018003183878834e-07
8.0,0.003097557930867117,77.50000726862568,0,60,3.0,6,1.7102648658852988e-07
8.005,0.005475106668887023,77.50000494312994,0,60,3.0,6,1.1630893970290987e-07
8.01,0.00930222931468658,77.50000334418844,0,60,3.0,6,7.86867868849667e-08
8.015,0.01519157517868857,77.50000225070433,0,60,3.0,6,5.2957748868506956e-08
8.02,0.023847336626128316,77.50000150690246,0,60,3.0,6,3.545652856808053e-08
8.025,0.0359830743700859,77.50000100366974,0,60,3.0,6,2.3615758530414656e-08
8.03,0.05218887796857759,77.50000066502123,0,60,3.0,6,1.564755841761379e-08
8.035,0.0727577001223134,77.50000043834815,0,60,3.0,6,1.0314074175125022e-08
8.04,0.0974992498694751,77.50000028743645,0,60,3.0,6,6.763210582421915e-09
8.045,0.12558706050443358,77.50000018750096,0,60,3.0,6,4.411787264924736e-09
8.05,0.15549263588878245,77.50000012167578,0,60,3.0,6,2.8629595844369546e-09
8.055,0.1850529723539114,77.50000007854956,0,60,3.0,6,1.8482249769851263e-09
8.06,0.21169159439317053,77.5000000504455,0,60,3.0,6,1.1869527792013661e-09
8.065,0.23277292922115492,77.5000000322285,0,60,3.0,6,7.583176230742965e-10
8.07,0.24602692519491282,77.50000002048314,0,60,3.0,6,4.819562892568202e-10
8.075,0.24995056064839283,77.50000001295066,0,60,3.0,6,3.047215186062899e-10
8.08,0.24408826520424054,77.50000000814568,0,60,3.0,6,1.9166296784961186e-10
8.085,0.22911894216865275,77.50000000509684,0,60,3.0,6,1.1992557012811578e-10
8.09,0.20672661788705934,77.50000000317259,0,60,3.0,6,7.464911825937794e-11
8.095,0.17928878030241233,77.50000000196455,0,60,3.0,6,4.622473384455696e-11
8.1,0.14946211903866036,77.5000000012102,0,60,3.0,6,2.847520911874359e-11
8.105,0.1197651512573837,77.50000000074162,0,60,3.0,6,1.7449926471111694e-11
8.11,0.09224675744988023,77.50000000045212,0,60,3.0,6,1.063807865327416e-11
8.115,0.06829565320281596,77.5000000002742,0,60,3.0,6,6.45172804070171e-12
8.12,0.04860224607515734,77.50000000016543,0,60,3.0,6,3.892436699756859e-12
8.125,0.03324612389699793,77.50000000009929,0,60,3.0,6,2.3362645151792095e-12
8.13,0.021859876340472782,77.50000000005929,0,60,3.0,6,1.3950043734546533e-12
8.135,0.01381595518554205,77.50000000003521,0,60,3.0,6,8.285764231593074e-13
8.14,0.008394095110402422,77.5000000000208,0,60,3.0,6,4.895221483071937e-13
8.145,0.0049052535271608,77.50000000001224,0,60,3.0,6,2.8789519787738646e-13
8.15,0.0027671663551903634,77.50000000000715,0,60,3.0,6,1.6818964521756725e-13
8.155,0.0015425553464444616,77.50000000000416,0,60,3.0,6,9.797130427186323e-14
8.16,0.0009638206637011801,77.5000000000024,0,60,3.0,6,5.6509045808685616e-14
8.165,0.0009804935156568228,77.50000000000138,0,60,3.0,6,3.243418605587281e-14
8.17,0.0018793744894085216,77.5000000000008,0,60,3.0,6,1.8724890918854405e-14
8.175,0.004535525206900863,77.50000000000045,0,60,3.0,6,1.0699937667916803e-14
8.18,0.010832767979632273,77.50000000000026,0,60,3.0,6,6.0187149382032015e-15
8.185,0.024208003392322392,77.50000000000014,0,60,3.0,6,3.343730521224001e-15
8.19,0.0500971897335304,77.50000000000009,0,60,3.0,6,2.0062383127344005e-15
8.195,0.09582894921774403,77.50000000000004,0,60,3.0,6,1.0031191563672002e-15
8.2,0.16937896721820658,77.50000000000003,0,60,3.0,6,6.687461042448002e-16
8.205,0.27661303008991756,77.50000000000001,0,60,3.0,6,3.343730521224001e-16
8.21,0.4173782800009149,77.5,0,60,3.0,6,0.0
8.215,0.5818720934538056,77.5,0,60,3.0,6,0.0
8.22,0.7494718801585675,77.5,0,60,3.0,6,0.0
8.225,0.891813020752378,77.5,0,60,3.0,6,0.0
8.23,0.9800361632936612,77.5,0,60,3.0,6,0.0
8.235,0.993574479225126,77.50000249729354,1,60,3.0,6,5.875984791547286e-08
8.24,0.9263438449375362,77.50000393227262,0,60,3.0,6,9.25240616358197e-08
8.245,0.7873015962290536,77.50000634326607,0,60,3.0,6,1.4925331918354512e-07
8.25,0.5959516244629897,77.50001061853068,0,60,3.0,6,2.498477807180547e-07
8.255,0.376910120078773,77.50001866333935,0,60,3.0,6,4.391373963966651e-07
8.26,0.15739335672107918,77.5000346400049,0,60,3.0,6,8.150589387830277e-07
8.265,-0.033361226269301235,77.50006764856651,0,60,3.0,6,1.5917309767968726e-06
8.27,-0.1680180840843834,77.50013735562356,0,60,3.0,6,3.2318970250558136e-06
8.275,-0.23069703190837854,77.50028544051958,0,60,3.0,6,6.7162475194409665e-06
8.28,-0.22587267821131068,77.500598088742,0,60,3.0,6,1.4072676282239627e-05
8.285,-0.17718181630665902,77.5012486355544,0,60,3.0,6,2.9379660103626627e-05
8.29,-0.11494332516451301,77.50257543369767,0,60,3.0,6,6.0598439945218105e-05
8.295,-0.061810214049552864,77.50521857085394,0,60,3.0,6,0.00012278990244567466
8.3,-0.026546104631500547,77.51035022511448,0,60,3.0,6,0.0002435347085759745
8.305,-0.00719600351942686,77.52004622347734,0,60,3.0,6,0.00047167584652557334
8.31,0.0022072757983807078,77.53785797415782,0,60,3.0,6,0.0008907758625368575
8.315,0.006917199873730717,77.56964902320131,0,60,3.0,6,0.0016388005459131204
8.32,0.01004859748264829,77.62475069237783,0,60,3.0,6,0.0029353104088901253
8.325,0.013037082251128167,77.71745577339965,0,60,3.0,6,0.005116606432932927
8.33,0.01645163937690478,77.86879695371151,0,60,3.0,6,0.008677575381447282
8.335,0.020526639934696615,78.10844035963862,0,60,3.0,6,0.014316243756202846
8.34,0.02539629541761738,78.47636733926622,0,60,3.0,6,0.02297334915920514
8.345,0.031171612185577933,79.02383946781148,0,60,3.0,6,0.03585504630144669
8.35,0.03795853426638131,79.81298480498413,0,60,3.0,6,0.054423171881979426
8.355,0.0458588961882057,80.91427084037524,0,60,3.0,6,0.08033578447941736
8.36,0.054966995891435555,82.40121542205652,0,60,3.0,6,0.11532271581309467
8.365,0.06536491004445595,84.34199522017235,0,60,3.0,6,0.1609881228275847
8.37,0.07711726085088699,86.78816642223576,0,60,3.0,6,0.21854509228790026
8.375,0.09026570629555215,89.7614698877538,0,60,3.0,6,0.2885051738295013
8.38,0.10482339848670268,93.24052207061501,0,60,3.0,6,0.3703652251909415
8.385,0.12076968927580028,97.14988444916018,0,60,3.0,6,0.4623502223331808
8.39,0.13804539501007884,101.35431154880669,0,60,3.0,6,0.5612779187954515
8.395,0.15654895051787066,105.66068807456148,0,60,3.0,6,0.6626044252837995
8.4,0.17613378141900526,109.82918294110652,0,60,3.0,6,0.7606866574378005
8.405,0.19660720058055794,113.59355865930326,0,60,3.0,6,0.8492602037483119
8.41,0.21773108748496234,116.6886667904499,0,60,3.0,6,0.9220862774223506
8.415,0.23922453870058807,118.88137576601841,0,60,3.0,6,0.9736794297886684
8.42,0.2607685857914563,120.0,0,60,3.0,6,1.0
8.425,0.2820129681603682,119.95710897620492,0,60,3.0,6,0.9989907994401158
8.43,0.30258482867153996,118.7615370490011,0,60,3.0,6,0.9708596952706142
8.435,0.3220990771751686,116.51733188460247,0,60,3.0,7,0.9180548678729993
8.44,0.3401700499968971,113.40983908257753,0,60,3.0,7,0.844937390178295
8.445,0.3564239911198326,109.68153227755616,0,60,3.0,7,0.757212524177792
8.45,0.3705118017738417,105.60198566964596,0,60,3.0,7,0.6612231922269637
8.455,0.3821214567925213,101.4371540045614,0,60,3.0,7,0.5632271530485037
8.46,0.39098947374066967,97.422764291288,0,60,3.0,7,0.4687709245008942
8.465,0.3969108472035567,93.74532237651536,0,60,3.0,7,0.38224287944742025
8.47,0.3997469255491936,90.53240175874944,0,60,3.0,7,0.3066447472646928
8.475,0.3994308076379137,87.85199809938081,0,60,3.0,7,0.24357642586778372
8.48,0.3959699661768434,85.71922450867264,0,60,3.0,7,0.1933935178511209
8.485,0.38944595408114946,84.10774793473297,0,60,3.0,7,0.15547642199371695
8.49,0.38001120995358023,82.96318113142691,0,60,3.0,7,0.12854543838651547
8.495,0.3678831374098315,82.21602810766474,0,60,3.0,7,0.11096536723917037
8.5,0.35333577933796634,81.79251012512853,0,60,3.0,7,0.10100023823831834
8.505,0.33668953221163944,81.62242952229444,0,60,3.0,7,0.09699834170104563
8.51,0.3182994390982644,81.64396106938082,0,60,3.0,7,0.09750496633837229
8.515,0.29854265738230645,81.80577806979818,0,60,3.0,7,0.10131242517172187
8.52,0.2778057157821067,82.0671908817687,0,60,3.0,7,0.10746331486514578
8.525,0.2564721553719815,82.3970316464962,0,60,3.0,7,0.11522427403520477
8.53,0.23491109433464996,82.77192809116943,0,60,3.0,7,0.12404536685104538
8.535,0.21346717185309805,83.1744448392447,0,60,3.0,7,0.1335163491586988
8.54,0.19245222055656455,83.59139300208605,0,60,3.0,7,0.1433268941667306
8.545,0.17213889801761392,84.0124564670148,0,60,3.0,7,0.15323426981211294
8.55,0.15275638501270183,84.42917328586134,0,60,3.0,7,0.1630393714320315
8.555,0.13448814019607322,84.83424390403286,0,60,3.0,7,0.1725704448007732
8.56,0.11747159495449566,85.22110653223218,0,60,3.0,7,0.1816730948760514
8.565,0.10179958433370105,85.58371248503667,0,60,3.0,7,0.19020499964792167
8.57,0.08752324394101413,85.91644030794227,0,60,3.0,7,0.19803388959864157
8.575,0.07465606047174059,86.21409913961364,0,60,3.0,7,0.20503762681443852
8.58,0.0631787448609295,86.47198412748827,0,60,3.0,7,0.21110550888207694
8.585,0.05304460019959574,86.68595740280897,0,60,3.0,7,0.2161401741837404
8.59,0.044185078305849994,86.85253634861876,0,60,3.0,7,0.22005967879102956
8.595,0.03651525513023255,86.96897679592873,0,60,3.0,7,0.22279945402185236
8.6,0.0299390014708757,87.03334286760078,0,60,3.0,7,0.2243139498259007
8.605,0.024353677220580638,87.04455801855013,0,60,3.0,7,0.2245778357305914
8.61,0.01965423034339045,87.00243386008354,0,60,3.0,7,0.22358667906078922
8.615,0.015736632374757337,86.90767493113825,0,60,3.0,7,0.22135705720325283
8.62,0.012500627640593535,86.76185888714967,0,60,3.0,7,0.2179260914623452
8.625,0.009851811652115898,86.56739271881541,0,60,3.0,7,0.2133504169133038
8.63,0.007703084175428559,86.32744662507005,0,60,3.0,7,0.20770462647223653
8.635,0.005975544002062424,86.04586804742218,0,60,3.0,7,0.2010792481746394
8.64,0.004598905818663047,85.72707910938607,0,60,3.0,7,0.19357833198555455
8.645,0.0035115256454839104,85.3759612733947,0,60,3.0,7,0.18531673584458103
8.65,0.002660121266303676,84.99773140981047,0,60,3.0,7,0.1764172096425993
8.655,0.0019992692560877024,84.59781365754361,0,60,3.0,7,0.16700738017749672
8.66,0.0014907520044639367,84.1817114421235,0,60,3.0,7,0.1572167398146706
8.665,0.0011028178277539807,83.75488381385719,0,60,3.0,7,0.14717373679663978
8.67,0.0008094059938923333,83.3226298946003,0,60,3.0,7,0.1370030563435364
8.675,0.0005893771793717645,82.88998470356078,0,60,3.0,7,0.12682316949554787
8.68,0.0004257792353490551,82.46162900365687,0,60,3.0,7,0.11674421185074982
8.685,0.0003051686392901525,82.04181510746733,0,60,3.0,7,0.10686623782276068
8.69,0.00021699992642659966,81.63430984453429,0,60,3.0,7,0.09727787869492438
8.695,0.00015308884054097838,81.242355157684,0,60,3.0,7,0.08805541547491771
8.7,0.00010714989329311098,80.86864610012042,0,60,3.0,7,0.07926226117930388
8.705,7.440535854020571e-05,80.51532537751636,0,60,3.0,7,0.07094883241214969
8.71,5.1260276743925106e-05,80.18399304420547,0,60,3.0,7,0.06315277751071682
8.715,3.503659887882241e-05,79.87572953684843,0,60,3.0,7,0.055899518514080586
8.72,2.375894748103639e-05,79.59112992222373,0,60,3.0,7,0.04920305699349951
8.725,1.5984413869232557e-05,79.33034705046295,0,60,3.0,7,0.04306698942265758
8.73,1.0669166579899869e-05,79.09314123688262,0,60,3.0,7,0.037485676161943905
8.735,7.06526633560511e-06,78.87893413465613,0,60,3.0,7,0.032445509050732575
8.74,4.641847214699205e-06,78.68686459254717,0,60,3.0,7,0.02792622570699216
8.745,3.025641074479182e-06,78.51584449930009,0,60,3.0,7,0.023902223512943223
8.75,1.9566278676921314e-06,78.36461287981392,0,60,3.0,7,0.020343832466209855
8.755,1.2553456560008793e-06,78.23178680825401,0,60,3.0,7,0.017218513135388573
8.76,7.990660428214668e-07,78.115908020864,0,60,3.0,7,0.014491953432094066
8.765,5.046221251618276e-07,78.01548442923266,0,60,3.0,7,0.012129045393709582
8.77,3.1616527078858815e-07,77.9290260383968,0,60,3.0,7,0.0100947303152188
8.775,1.9652884407760343e-07,77.85507505159521,0,60,3.0,7,0.008354707096357822
8.78,1.2120002189836396e-07,77.79223018604874,0,60,3.0,7,0.006876004377617432
8.785,7.415549848886236e-08,77.73916542629568,0,60,3.0,7,0.005627421795192584
8.79,4.501406988770349e-08,77.69464360077374,0,60,3.0,7,0.004579849429970462
8.795,0.0,77.65752528354044,0,60,3.0,7,0.0037064772597749894
8.8,0.0,77.62677359845337,0,60,3.0,7,0.002982908198902792
8.805,0.0,77.60145554165466,0,60,3.0,7,0.00238718921540373
8.81,0.0,77.58074044483718,0,60,3.0,7,0.0018997751726394254
8.815,0.0,77.56389618220217,0,60,3.0,7,0.00150343958122756
8.82,0.0,77.55028368416444,0,60,3.0,7,0.001183145509751552
8.825,0.0,77.53935026650197,0,60,3.0,7,0.0009258886235757553
8.83,0.0,77.53062222013041,0,60,3.0,7,0.0007205228265979044
8.835,0.0,77.52369703872787,0,60,3.0,7,0.0005575773818323422
8.84,0.0,77.51823559299608,0,60,3.0,7,0.0004290727763783011
8.845,0.0,77.51395449456273,0,60,3.0,7,0.00032834104853470626
