Time,ECG,Pressure,R_Peaks,mean_hr,hrv_scale,Phase_Bin,Normalized_Pressure
0.0,0.001684486749771458,77.5,0,60,1.0,0,0.0
0.005,0.003097557930867117,77.5,0,60,1.0,0,0.0
0.01,0.005475106668887023,77.5,0,60,1.0,0,0.0
0.015,0.00930222931468658,77.5,0,60,1.0,0,0.0
0.02,0.01519157517868857,77.5,0,60,1.0,0,0.0
0.025,0.023847336626128316,77.5,0,60,1.0,0,0.0
0.03,0.0359830743700859,77.5,0,60,1.0,0,0.0
0.035,0.05218887796857759,77.5,0,60,1.0,0,0.0
0.04,0.0727577001223134,77.5,0,60,1.0,0,0.0
0.045,0.0974992498694751,77.5,0,60,1.0,0,0.0
0.05,0.12558706050443358,77.5,0,60,1.0,0,0.0
0.055,0.15549263588878245,77.5,0,60,1.0,0,0.0
0.06,0.1850529723539114,77.5,0,60,1.0,0,0.0
0.065,0.21169159439317053,77.5,0,60,1.0,0,0.0
0.07,0.23277292922115492,77.5,0,60,1.0,0,0.0
0.075,0.24602692519491282,77.5,0,60,1.0,0,0.0
0.08,0.24995056064839283,77.5,0,60,1.0,0,0.0
0.085,0.24408826520424054,77.5,0,60,1.0,0,0.0
0.09,0.22911894216865275,77.5,0,60,1.0,0,0.0
0.095,0.20672661788705934,77.5,0,60,1.0,0,0.0
0.1,0.17928878030241233,77.5,0,60,1.0,0,0.0
0.105,0.14946211903866036,77.5,0,60,1.0,0,0.0
0.11,0.1197651512573837,77.5,0,60,1.0,0,0.0
0.115,0.09224675744988023,77.5,0,60,1.0,0,0.0
0.12,0.06829565320281596,77.5,0,60,1.0,0,0.0
0.125,0.04860224607515734,77.5,0,60,1.0,0,0.0
0.13,0.03324612389699793,77.5,0,60,1.0,0,0.0
0.135,0.021859876340472782,77.5,0,60,1.0,0,0.0
0.14,0.01381595518554205,77.5,0,60,1.0,0,0.0
0.145,0.008394095110402422,77.5,0,60,1.0,0,0.0
0.15,0.0049052535271608,77.5,0,60,1.0,0,0.0
0.155,0.0027671663551903634,77.5,0,60,1.0,0,0.0
0.16,0.0015425553464444616,77.5,0,60,1.0,0,0.0
0.165,0.0009638206637011801,77.5,0,60,1.0,0,0.0
0.17,0.0009804935156568228,77.5,0,60,1.0,0,0.0
0.175,0.0018793744894085216,77.5,0,60,1.0,0,0.0
0.18,0.004535525206900863,77.5,0,60,1.0,0,0.0
0.185,0.010832767979632273,77.5,0,60,1.0,0,0.0
0.19,0.024208003392322392,77.5,0,60,1.0,0,0.0
0.195,0.0500971897335304,77.5,0,60,1.0,0,0.0
0.2,0.09582894921774403,77.5,0,60,1.0,0,0.0
0.205,0.16937896721820658,77.5,0,60,1.0,0,0.0
0.21,0.27661303008991756,77.5,0,60,1.0,0,0.0
0.215,0.4173782800009149,77.5,0,60,1.0,0,0.0
0.22,0.5818720934538056,77.5,0,60,1.0,0,0.0
0.225,0.7494718801585675,77.5,0,60,1.0,0,0.0
0.23,0.891813020752378,77.5,0,60,1.0,0,0.0
0.235,0.9800361632936612,77.5,0,60,1.0,0,0.0
0.24,0.993574479225126,77.5,0,60,1.0,0,0.0
0.245,0.9263438449375362,77.5,0,60,1.0,0,0.0
0.25,0.7873015962290536,77.5,0,60,1.0,0,0.0
0.255,0.5959516244629897,77.5,0,60,1.0,0,0.0
0.26,0.376910120078773,77.5,0,60,1.0,0,0.0
0.265,0.15739335672107918,77.5,0,60,1.0,0,0.0
0.27,-0.033361226269301235,77.5,0,60,1.0,0,0.0
0.275,-0.1680180840843834,77.5,0,60,1.0,0,0.0
0.28,-0.23069703190837854,77.5,0,60,1.0,0,0.0
0.285,-0.22587267821131068,77.5,0,60,1.0,0,0.0
0.29,-0.17718181630665902,77.5,0,60,1.0,0,0.0
0.295,-0.11494332516451301,77.5,0,60,1.0,0,0.0
0.3,-0.061810214049552864,77.5,0,60,1.0,0,0.0
0.305,-0.026546104631500547,77.5,0,60,1.0,0,0.0
0.31,-0.00719600351942686,77.5,0,60,1.0,0,0.0
0.315,0.0022072757983807078,77.5,0,60,1.0,0,0.0
0.32,0.006917199873730717,77.5,0,60,1.0,0,0.0
0.325,0.01004859748264829,77.5,0,60,1.0,0,0.0
0.33,0.013037082251128167,77.5,0,60,1.0,0,0.0
0.335,0.01645163937690478,77.5,0,60,1.0,0,0.0
0.34,0.020526639934696615,77.5,0,60,1.0,0,0.0
0.345,0.02539629541761738,77.5,0,60,1.0,0,0.0
0.35,0.031171612185577933,77.5,0,60,1.0,0,0.0
0.355,0.03795853426638131,77.5,0,60,1.0,0,0.0
0.36,0.0458588961882057,77.5,0,60,1.0,0,0.0
0.365,0.054966995891435555,77.5,0,60,1.0,0,0.0
0.37,0.06536491004445595,77.5,0,60,1.0,0,0.0
0.375,0.07711726085088699,77.5,0,60,1.0,0,0.0
0.38,0.09026570629555215,77.5,0,60,1.0,0,0.0
0.385,0.10482339848670268,77.5,0,60,1.0,0,0.0
0.39,0.12076968927580028,77.5,0,60,1.0,0,0.0
0.395,0.13804539501007884,77.5,0,60,1.0,0,0.0
0.4,0.15654895051787066,77.5,0,60,1.0,0,0.0
0.405,0.17613378141900526,77.5,0,60,1.0,0,0.0
0.41,0.19660720058055794,77.5,0,60,1.0,0,0.0
0.415,0.21773108748496234,77.5,0,60,1.0,0,0.0
0.42,0.23922453870058807,77.5,0,60,1.0,0,0.0
0.425,0.2607685857914563,77.5,0,60,1.0,0,0.0
0.43,0.2820129681603682,77.5,0,60,1.0,0,0.0
0.435,0.30258482867153996,77.5,0,60,1.0,0,0.0
0.44,0.3220990771751686,77.5,0,60,1.0,0,0.0
0.445,0.3401700499968971,77.5,0,60,1.0,0,0.0
0.45,0.3564239911198326,77.5,0,60,1.0,0,0.0
0.455,0.3705118017738417,77.5,0,60,1.0,0,0.0
0.46,0.3821214567925213,77.5,0,60,1.0,0,0.0
0.465,0.39098947374066967,77.5,0,60,1.0,0,0.0
0.47,0.3969108472035567,77.5,0,60,1.0,0,0.0
0.475,0.3997469255491936,77.5,0,60,1.0,0,0.0
0.48,0.3994308076379137,77.5,0,60,1.0,0,0.0
0.485,0.3959699661768434,77.5,0,60,1.0,0,0.0
0.49,0.38944595408114946,77.5,0,60,1.0,0,0.0
0.495,0.38001120995358023,77.5,0,60,1.0,0,0.0
0.5,0.3678831374098315,77.5,0,60,1.0,0,0.0
0.505,0.35333577933796634,77.5,0,60,1.0,0,0.0
0.51,0.33668953221163944,77.5,0,60,1.0,0,0.0
0.515,0.3182994390982644,77.5,0,60,1.0,0,0.0
0.52,0.29854265738230645,77.5,0,60,1.0,0,0.0
0.525,0.2778057157821067,77.5,0,60,1.0,0,0.0
0.53,0.2564721553719815,77.5,0,60,1.0,0,0.0
0.535,0.23491109433464996,77.5,0,60,1.0,0,0.0
0.54,0.21346717185309805,77.5,0,60,1.0,0,0.0
0.545,0.19245222055656455,77.5,0,60,1.0,0,0.0
0.55,0.17213889801761392,77.5,0,60,1.0,0,0.0
0.555,0.15275638501270183,77.5,0,60,1.0,0,0.0
0.56,0.13448814019607322,77.5,0,60,1.0,0,0.0
0.565,0.11747159495449566,77.5,0,60,1.0,0,0.0
0.57,0.10179958433370105,77.5,0,60,1.0,0,0.0
0.575,0.08752324394101413,77.5,0,60,1.0,0,0.0
0.58,0.07465606047174059,77.5,0,60,1.0,0,0.0
0.585,0.0631787448609295,77.5,0,60,1.0,0,0.0
0.59,0.05304460019959574,77.5,0,60,1.0,0,0.0
0.595,0.044185078305849994,77.5,0,60,1.0,0,0.0
0.6,0.03651525513023255,77.5,0,60,1.0,0,0.0
0.605,0.0299390014708757,77.5,0,60,1.0,0,0.0
0.61,0.024353677220580638,77.5,0,60,1.0,0,0.0
0.615,0.01965423034339045,77.5,0,60,1.0,0,0.0
0.62,0.015736632374757337,77.5,0,60,1.0,0,0.0
0.625,0.012500627640593535,77.5,0,60,1.0,0,0.0
0.63,0.009851811652115898,77.5,0,60,1.0,0,0.0
0.635,0.007703084175428559,77.5,0,60,1.0,0,0.0
0.64,0.005975544002062424,77.5,0,60,1.0,0,0.0
0.645,0.004598905818663047,77.5,0,60,1.0,0,0.0
0.65,0.0035115256454839104,77.5,0,60,1.0,0,0.0
0.655,0.002660121266303676,77.5,0,60,1.0,0,0.0
0.66,0.0019992692560877024,77.5,0,60,1.0,0,0.0
0.665,0.0014907520044639367,77.5,0,60,1.0,0,0.0
0.67,0.0011028178277539807,77.5,0,60,1.0,0,0.0
0.675,0.0008094059938923333,77.5,0,60,1.0,0,0.0
0.68,0.0005893771793717645,77.5,0,60,1.0,0,0.0
0.685,0.0004257792353490551,77.5,0,60,1.0,0,0.0
0.69,0.0003051686392901525,77.5,0,60,1.0,0,0.0
0.695,0.00021699992642659966,77.5,0,60,1.0,0,0.0
0.7,0.00015308884054097838,77.5,0,60,1.0,0,0.0
0.705,0.00010714989329311098,77.5,0,60,1.0,0,0.0
0.71,7.440535854020571e-05,77.5,0,60,1.0,0,0.0
0.715,5.1260276743925106e-05,77.5,0,60,1.0,0,0.0
0.72,3.503659887882241e-05,77.5,0,60,1.0,0,0.0
0.725,2.375894748103639e-05,77.5,0,60,1.0,0,0.0
0.73,1.5984413869232557e-05,77.5,0,60,1.0,0,0.0
0.735,1.0669166579899869e-05,77.5,0,60,1.0,0,0.0
0.74,7.06526633560511e-06,77.5,0,60,1.0,0,0.0
0.745,4.641847214699205e-06,77.5,0,60,1.0,0,0.0
0.75,3.025641074479182e-06,77.5,0,60,1.0,0,0.0
0.755,1.9566278676921314e-06,77.5,0,60,1.0,0,0.0
0.76,1.2553456560008793e-06,77.5,0,60,1.0,0,0.0
0.765,7.990660428214668e-07,77.5,0,60,1.0,0,0.0
0.77,5.046221251618276e-07,77.5,0,60,1.0,0,0.0
0.775,3.1616527078858815e-07,77.5,0,60,1.0,0,0.0
0.78,1.9652884407760343e-07,77.5,0,60,1.0,0,0.0
0.785,1.2120002189836396e-07,77.5,0,60,1.0,0,0.0
0.79,7.415549848886236e-08,77.5,0,60,1.0,0,0.0
0.795,4.501406988770349e-08,77.5,0,60,1.0,0,0.0
0.8,0.0,77.5,0,60,1.0,0,0.0
0.805,0.0,77.5,0,60,1.0,0,0.0
0.81,0.0,77.5,0,60,1.0,0,0.0
0.815,0.0,77.5,0,60,1.0,0,0.0
0.82,0.0,77.5,0,60,1.0,0,0.0
0.825,0.0,77.5,0,60,1.0,0,0.0
0.83,0.0,77.5,0,60,1.0,0,0.0
0.835,0.0,77.5,0,60,1.0,0,0.0
0.84,0.0,77.5,0,60,1.0,0,0.0
0.845,0.0,77.5,0,60,1.0,0,0.0
0.85,0.0,77.5,0,60,1.0,0,0.0
0.855,0.0,77.5,0,60,1.0,0,0.0
0.86,0.0,77.5,0,60,1.0,0,0.0
0.865,0.0,77.5,0,60,1.0,0,0.0
0.87,0.0,77.5,0,60,1.0,0,0.0
0.875,0.0,77.5,0,60,1.0,0,0.0
0.88,0.0,77.5,0,60,1.0,0,0.0
0.885,0.0,77.5,0,60,1.0,0,0.0
0.89,0.0,77.5,0,60,1.0,0,0.0
0.895,0.0,77.5,0,60,1.0,0,0.0
0.9,0.0,77.5,0,60,1.0,0,0.0
0.905,0.0,77.5,0,60,1.0,0,0.0
0.91,0.0,77.5,0,60,1.0,0,0.0
0.915,0.0,77.5,0,60,1.0,0,0.0
0.92,0.0,77.5,0,60,1.0,0,0.0
0.925,0.0,77.5,0,60,1.0,0,0.0
0.93,0.0,77.5,0,60,1.0,0,0.0
0.935,0.0,77.5,0,60,1.0,0,0.0
0.94,0.0,77.5,0,60,1.0,0,0.0
0.945,0.0,77.5,0,60,1.0,0,0.0
0.95,0.0,77.5,0,60,1.0,0,0.0
0.955,0.0,77.5,0,60,1.0,0,0.0
0.96,0.0,77.5,0,60,1.0,0,0.0
0.965,0.0,77.5,0,60,1.0,0,0.0
0.97,0.0,77.5,0,60,1.0,0,0.0
0.975,0.0,77.5,0,60,1.0,0,0.0
0.98,0.0,77.5,0,60,1.0,0,0.0
0.985,0.0,77.5,0,60,1.0,0,0.0
0.99,0.0,77.5,0,60,1.0,0,0.0
0.995,0.0,77.5,0,60,1.0,0,0.0
1.0,0.0,77.5,0,60,1.0,0,0.0
1.005,0.0,77.5,0,60,1.0,0,0.0
1.01,0.0,77.5,0,60,1.0,0,0.0
1.015,0.0,77.5,0,60,1.0,0,0.0
1.02,0.001684486749771458,77.5,0,60,1.0,0,0.0
1.025,0.003097557930867117,77.5,0,60,1.0,0,0.0
1.03,0.005475106668887023,77.5,0,60,1.0,0,0.0
1.035,0.00930222931468658,77.5,0,60,1.0,0,0.0
1.04,0.01519157517868857,77.5,0,60,1.0,0,0.0
1.045,0.023847336626128316,77.5,0,60,1.0,0,0.0
1.05,0.0359830743700859,77.5,0,60,1.0,0,0.0
1.055,0.05218887796857759,77.5,0,60,1.0,0,0.0
1.06,0.0727577001223134,77.5,0,60,1.0,0,0.0
1.065,0.0974992498694751,77.5,0,60,1.0,0,0.0
1.07,0.12558706050443358,77.5,0,60,1.0,0,0.0
1.075,0.15549263588878245,77.5,0,60,1.0,0,0.0
1.08,0.1850529723539114,77.5,0,60,1.0,0,0.0
1.085,0.21169159439317053,77.5,0,60,1.0,0,0.0
1.09,0.23277292922115492,77.5,0,60,1.0,0,0.0
1.095,0.24602692519491282,77.5,0,60,1.0,0,0.0
1.1,0.24995056064839283,77.5,0,60,1.0,0,0.0
1.105,0.24408826520424054,77.5,0,60,1.0,0,0.0
1.11,0.22911894216865275,77.5,0,60,1.0,0,0.0
1.115,0.20672661788705934,77.5,0,60,1.0,0,0.0
1.12,0.17928878030241233,77.5,0,60,1.0,0,0.0
1.125,0.14946211903866036,77.5,0,60,1.0,0,0.0
1.13,0.1197651512573837,77.5,0,60,1.0,0,0.0
1.135,0.09224675744988023,77.5,0,60,1.0,0,0.0
1.14,0.06829565320281596,77.5,0,60,1.0,0,0.0
1.145,0.04860224607515734,77.5,0,60,1.0,0,0.0
1.15,0.03324612389699793,77.5,0,60,1.0,0,0.0
1.155,0.021859876340472782,77.5,0,60,1.0,0,0.0
1.16,0.01381595518554205,77.5,0,60,1.0,0,0.0
1.165,0.008394095110402422,77.5,0,60,1.0,0,0.0
1.17,0.0049052535271608,77.5,0,60,1.0,0,0.0
1.175,0.0027671663551903634,77.5,0,60,1.0,0,0.0
1.18,0.0015425553464444616,77.5,0,60,1.0,0,0.0
1.185,0.0009638206637011801,77.5,0,60,1.0,0,0.0
1.19,0.0009804935156568228,77.5,0,60,1.0,0,0.0
1.195,0.0018793744894085216,77.5,0,60,1.0,0,0.0
1.2,0.004535525206900863,77.5,0,60,1.0,0,0.0
1.205,0.010832767979632273,77.5,0,60,1.0,1,0.0
1.21,0.024208003392322392,77.5,0,60,1.0,1,0.0
1.215,0.0500971897335304,77.5,0,60,1.0,1,0.0
1.22,0.09582894921774403,77.5,0,60,1.0,1,0.0
1.225,0.16937896721820658,77.5,0,60,1.0,1,0.0
1.23,0.27661303008991756,77.5,0,60,1.0,1,0.0
1.235,0.4173782800009149,77.5,0,60,1.0,1,0.0
1.24,0.5818720934538056,77.5,0,60,1.0,1,0.0
1.245,0.7494718801585675,77.5,0,60,1.0,1,0.0
1.25,0.891813020752378,77.5,0,60,1.0,1,0.0
1.255,0.9800361632936612,77.5,0,60,1.0,1,0.0
1.26,0.993574479225126,77.50000249379623,1,60,1.0,1,5.8677558372972485e-08
1.265,0.9263438449375362,77.5000037873591,0,60,1.0,1,8.911433189282167e-08
1.27,0.7873015962290536,77.50000586643203,0,60,1.0,1,1.3803369490554305e-07
1.275,0.5959516244629897,77.50000936112565,0,60,1.0,1,2.202617799733108e-07
1.28,0.376910120078773,77.50001553885947,0,60,1.0,1,3.656202228713108e-07
1.285,0.15739335672107918,77.5000269987902,0,60,1.0,1,6.352656518682873e-07
1.29,-0.033361226269301235,77.50004909538588,0,60,1.0,1,1.1551855500195362e-06
1.295,-0.1680180840843834,77.5000927881157,0,60,1.0,1,2.1832497810357704e-06
1.3,-0.23069703190837854,77.50018019691618,0,60,1.0,1,4.239927439437665e-06
1.305,-0.22587267821131068,77.50035512985896,0,60,1.0,1,8.355996681409712e-06
1.31,-0.17718181630665902,77.50070244716376,0,60,1.0,1,1.652816855907451e-05
1.315,-0.11494332516451301,77.50138258743117,0,60,1.0,1,3.253146896862049e-05
1.32,-0.061810214049552864,77.50269116678194,0,60,1.0,1,6.332157133984391e-05
1.325,-0.026546104631500547,77.50515844333034,0,60,1.0,1,0.00012137513718458007
1.33,-0.00719600351942686,77.50970954477438,0,60,1.0,1,0.00022845987704426187
1.335,0.0022072757983807078,77.5179131238936,0,60,1.0,1,0.00042148526808486006
1.34,0.006917199873730717,77.5323521823347,0,60,1.0,1,0.0007612278196401188
1.345,0.01004859748264829,77.55715374596484,0,60,1.0,1,0.0013447940227021102
1.35,0.013037082251128167,77.59871019466716,0,60,1.0,1,0.0023225928156979507
1.355,0.01645163937690478,77.66660957566988,0,60,1.0,1,0.00392022530987955
1.36,0.020526639934696615,77.77476004056273,0,60,1.0,1,0.006464942130887654
1.365,0.02539629541761738,77.94264063456316,0,60,1.0,1,0.01041507375442734
1.37,0.031171612185577933,78.1965363540429,0,60,1.0,1,0.016389090683362476
1.375,0.03795853426638131,78.57052498893353,0,60,1.0,1,0.025188823269024184
1.38,0.0458588961882057,79.10689048440082,0,60,1.0,1,0.03780918786825463
1.385,0.054966995891435555,79.85556550877875,0,60,1.0,1,0.05542507079479418
1.39,0.06536491004445595,80.87218550073672,0,60,1.0,1,0.07934554119380517
1.395,0.07711726085088699,82.21440106636989,0,60,1.0,1,0.1109270839145856
1.4,0.09026570629555215,83.93627195484723,0,60,1.0,1,0.1514416930552289
1.405,0.10482339848670268,86.08086244957394,0,60,1.0,1,0.20190264587232806
1.41,0.12076968927580028,88.67155390032357,0,60,1.0,1,0.2628600917723194
1.415,0.13804539501007884,91.70302829420208,0,60,1.0,1,0.33418890104004906
1.42,0.15654895051787066,95.13326660856461,0,60,1.0,1,0.41490039078975555
1.425,0.17613378141900526,98.87813714204108,0,60,1.0,1,0.5030149915774372
1.43,0.19660720058055794,102.81011793964564,0,60,1.0,1,0.5955321868151915
1.435,0.21773108748496234,106.76233734752944,0,60,1.0,1,0.6885255846477515
1.44,0.23922453870058807,110.53842825599659,0,60,1.0,1,0.7773747824940375
1.445,0.2607685857914563,113.92775900036906,0,60,1.0,1,0.8571237411851544
1.45,0.2820129681603682,116.72459033287774,0,60,1.0,1,0.9229315372441821
1.455,0.30258482867153996,118.74882595036786,0,60,1.0,1,0.9705606105968908
1.46,0.3220990771751686,119.8654865137496,0,60,1.0,1,0.9968349767941083
1.465,0.3401700499968971,120.0,0,60,1.0,1,1.0
1.47,0.3564239911198326,119.1469163744074,0,60,1.0,1,0.9799274441037035
1.475,0.3705118017738417,117.37064685570721,0,60,1.0,1,0.9381328671931107
1.48,0.3821214567925213,114.79810695801649,0,60,1.0,1,0.8776025166592115
1.485,0.39098947374066967,111.60444632346429,0,60,1.0,1,0.8024575605521009
1.49,0.3969108472035567,107.99410915756765,0,60,1.0,1,0.7175084507662977
1.495,0.3997469255491936,104.18007944020901,0,60,1.0,1,0.6277665750637414
1.5,0.3994308076379137,100.36422724801442,0,60,1.0,1,0.5379818176003391
1.505,0.3959699661768434,96.7212161790668,0,60,1.0,1,0.45226391009568945
1.51,0.38944595408114946,93.38759728931282,0,60,1.0,1,0.3738258185720664
1.515,0.38001120995358023,90.45670883537264,0,60,1.0,1,0.3048637373028856
1.52,0.3678831374098315,87.9790401462504,0,60,1.0,1,0.24656565050000936
1.525,0.35333577933796634,85.96697701419116,0,60,1.0,1,0.19922298856920373
1.53,0.33668953221163944,84.4024246438112,0,60,1.0,1,0.1624099916190871
1.535,0.3182994390982644,83.24571739115189,0,60,1.0,1,0.13519335038004435
1.54,0.29854265738230645,82.44441592118244,0,60,1.0,1,0.11633919814546917
1.545,0.2778057157821067,81.94096223704659,0,60,1.0,1,0.10449322910697861
1.55,0.2564721553719815,81.67860013199362,0,60,1.0,1,0.09832000310573222
1.555,0.23491109433464996,81.6053774632043,0,60,1.0,1,0.09659711678127779
1.56,0.21346717185309805,81.67636369433883,0,60,1.0,1,0.09826738104326664
1.565,0.19245222055656455,81.85441421730658,0,60,1.0,1,0.10245680511309609
1.57,0.17213889801761392,82.10989597948169,0,60,1.0,1,0.10846814069368688
1.575,0.15275638501270183,82.4197812649522,0,60,1.0,1,0.11575955917534603
1.58,0.13448814019607322,82.76645106571821,0,60,1.0,1,0.123916495663958
1.585,0.11747159495449566,83.13645818712642,0,60,1.0,1,0.13262254557944522
1.59,0.10179958433370105,83.51940780368162,0,60,1.0,1,0.1416331247925086
1.595,0.08752324394101413,83.90703501007195,0,60,1.0,1,0.15075376494286943
1.6,0.07465606047174059,84.29250168132002,0,60,1.0,1,0.15982356897223574
1.605,0.0631787448609295,84.66989887994485,0,60,1.0,1,0.16870350305752596
1.61,0.05304460019959574,85.03392255252196,0,60,1.0,1,0.1772687659416931
1.615,0.044185078305849994,85.37968430795249,0,60,1.0,1,0.1854043366577056
1.62,0.03651525513023255,85.70262077560254,0,60,1.0,1,0.1930028417788833
1.625,0.0299390014708757,85.99847050884269,0,60,1.0,1,0.19996401197276908
1.63,0.024353677220580638,86.26329398177421,0,60,1.0,1,0.2061951525123344
1.635,0.01965423034339045,86.49351840681324,0,60,1.0,1,0.21161219780737028
1.64,0.015736632374757337,86.68599420541278,0,60,1.0,1,0.2161410401273596
1.645,0.012500627640593535,86.83805385632725,0,60,1.0,1,0.2197189142665235
1.65,0.009851811652115898,86.94756666863884,0,60,1.0,1,0.22229568632091393
1.655,0.007703084175428559,87.01298502755421,0,60,1.0,1,0.2238349418248049
1.66,0.005975544002062424,87.03337908862481,0,60,1.0,1,0.2243148020852897
1.665,0.004598905818663047,87.0084579536151,0,60,1.0,1,0.2237284224380025
1.67,0.0035115256454839104,86.938576193165,0,60,1.0,1,0.22208414572152954
1.675,0.002660121266303676,86.82472527864306,0,60,1.0,1,0.2194053006739543
1.68,0.0019992692560877024,86.66851009780702,0,60,1.0,1,0.21572964936016506
1.685,0.0014907520044639367,86.47211127728372,0,60,1.0,1,0.2111085006419698
1.69,0.0011028178277539807,86.23823452311164,0,60,1.0,1,0.2056055181908622
1.695,0.0008094059938923333,85.97004861293706,0,60,1.0,1,0.19929526148087207
1.7,0.0005893771793717645,85.67111402048207,0,60,1.0,1,0.19226150636428388
1.705,0.0004257792353490551,85.34530441514248,0,60,1.0,1,0.18459539800335245
1.71,0.0003051686392901525,84.99672344980459,0,60,1.0,1,0.1763934929365786
1.715,0.00021699992642659966,84.62961932448681,0,60,1.0,1,0.16775574881145436
1.72,0.00015308884054097838,84.248299592624,0,60,1.0,1,0.15878351982644692
1.725,0.00010714989329311098,83.85704856531288,0,60,1.0,1,0.14957761330147953
1.73,7.440535854020571e-05,83.4600494751478,0,60,1.0,1,0.14023645823877173
1.735,5.1260276743925106e-05,83.06131329728954,0,60,1.0,1,0.13085443052445986
1.74,3.503659887882241e-05,82.66461580565927,0,60,1.0,1,0.1215203718978651
1.745,2.375894748103639e-05,82.2734440829479,0,60,1.0,1,0.1123163313634801
1.75,1.5984413869232557e-05,81.89095332165515,0,60,1.0,1,0.10331654874482699
1.755,1.0669166579899869e-05,81.51993436674516,0,60,1.0,1,0.0945866909822391
1.76,7.06526633560511e-06,81.16279207494762,0,60,1.0,1,0.08618334293994394
1.765,4.641847214699205e-06,80.82153421580314,0,60,1.0,1,0.07815374625419154
1.77,3.025641074479182e-06,80.49777032755243,0,60,1.0,1,0.07053577241299837
1.775,1.9566278676921314e-06,80.19271967649756,0,60,1.0,1,0.06335811003523671
1.78,1.2553456560008793e-06,79.9072272581673,0,60,1.0,1,0.05664064136864226
1.785,7.990660428214668e-07,79.64178662610968,0,60,1.0,1,0.05039497943787477
1.79,5.046221251618276e-07,79.39656824009577,0,60,1.0,1,0.04462513506107705
1.795,3.1616527078858815e-07,79.17145198793789,0,60,1.0,1,0.03932828206912672
1.8,1.9652884407760343e-07,78.96606254967222,0,60,1.0,1,0.034495589404052146
1.805,1.2120002189836396e-07,78.77980633332653,0,60,1.0,1,0.03011309019591843
1.81,7.415549848886236e-08,78.61190881032023,0,60,1.0,1,0.026162560242828946
1.815,4.501406988770349e-08,78.46145120731774,0,60,1.0,1,0.022622381348652625
1.82,0.0,78.32740566133431,0,60,1.0,1,0.019468368501983777
1.825,0.0,78.20866810746416,0,60,1.0,1,0.016674543705039135
1.83,0.0,78.10408833568827,0,60,1.0,1,0.014213843192665282
1.835,0.0,78.01249681760311,0,60,1.0,1,0.012058748649484882
1.84,0.0,77.93272805946427,0,60,1.0,1,0.010181836693276877
1.845,0.0,77.86364037977026,0,60,1.0,1,0.008556244229888467
1.85,0.0,77.80413213413297,0,60,1.0,1,0.007156050214893426
1.855,0.0,77.75315451508283,0,60,1.0,1,0.005956576825478271
1.86,0.0,77.70972113863759,0,60,1.0,1,0.004934615026766832
1.865,0.0,77.67291469288736,0,60,1.0,1,0.004068581009114362
1.87,0.0,77.6418909673889,0,60,1.0,1,0.0033386109973859595
1.875,0.0,77.61588060740796,0,60,1.0,1,0.0027266025272461
1.88,0.0,77.59418894611207,0,60,1.0,1,0.002216210496754577
1.885,0.0,77.57619426314615,0,60,1.0,1,0.0017928061916741038
1.89,0.0,77.56134480222934,0,60,1.0,1,0.001443407111278649
1.895,0.0,77.54915485611353,0,60,1.0,1,0.001156584849730159
1.9,0.0,77.53920019694617,0,60,1.0,1,0.0009223575752039725
1.905,0.0,77.53111309607614,0,60,1.0,1,0.0007320728488503605
1.91,0.0,77.52457714164618,0,60,1.0,1,0.0005782856857923862
1.915,0.0,77.51932202662293,0,60,1.0,1,0.00045463592053953804
1.92,0.0,77.51511844558637,0,60,1.0,1,0.00035572813144393184
1.925,0.0,77.51177320666078,0,60,1.0,1,0.0002770166273124045
1.93,0.0,77.50912463613587,0,60,1.0,1,0.00021469732084389816
1.935,0.0,77.50703832803256,0,60,1.0,1,0.00016560771841327818
1.94,0.0,77.50540326930944,0,60,1.0,1,0.00012713574845740956
1.945,0.0,77.50412835357564,0,60,1.0,1,9.713773119147738e-05
1.95,0.0,77.50313928191733,0,60,1.0,1,7.3865456878299e-05
1.955,0.0,77.50237583848272,0,60,1.0,1,5.590208194636194e-05
1.96,0.0,77.50178952045918,0,60,1.0,1,4.2106363745500964e-05
1.965,0.0,77.50134149662578,0,60,1.0,1,3.156462648903738e-05
1.97,0.0,77.5010008653694,0,60,1.0,1,2.3549773397783557e-05
1.975,0.0,77.50074318152002,0,60,1.0,1,1.748662400051912e-05
1.98,0.0,77.50054922121242,0,60,1.0,1,1.2922852057031645e-05
1.985,0.0,77.50040395488503,0,60,1.0,1,9.504820824237387e-06
1.99,0.0,77.50029570017914,0,60,1.0,1,6.957651273818128e-06
1.995,0.0,77.50021542865605,0,60,1.0,1,5.068909554077383e-06
2.0,0.0,77.50015620269332,0,60,1.0,1,3.675357489849857e-06
2.005,0.0,77.50011272149108,0,60,1.0,1,2.652270378308351e-06
2.01,0.0,77.50008095768732,0,60,1.0,1,1.904886760391545e-06
2.015,0.0,77.50005786855301,0,60,1.0,1,1.361613012102894e-06
2.02,0.0,77.50004116805168,0,60,1.0,1,9.686600395418602e-07
2.025,0.0,77.50002914816145,0,60,1.0,1,6.8583909283274e-07
2.03,0.0,77.50002053975126,0,60,1.0,1,4.832882649786958e-07
2.035,0.0,77.50001440496989,0,60,1.0,1,3.3894046797446634e-07
2.04,0.0,77.50001005455123,0,60,1.0,1,2.3657767589129968e-07
2.045,0.0,77.50000698467477,0,60,1.0,1,1.6434528868772116e-07
2.05,0.001684486749771458,77.50000482906273,0,60,1.0,1,1.1362500545681755e-07
2.055,0.003097557930867117,77.50000332286477,0,60,1.0,1,7.8185053432796e-08
2.06,0.005475106668887023,77.50000227559855,0,60,1.0,1,5.354349522188867e-08
2.065,0.00930222931468658,77.50000155099998,0,60,1.0,1,3.6494117239271875e-08
2.07,0.01519157517868857,77.50000105210987,0,60,1.0,1,2.475552625636577e-08
2.075,0.023847336626128316,77.50000071030286,0,60,1.0,1,1.6713008389000177e-08
2.08,0.0359830743700859,77.50000047726456,0,60,1.0,1,1.1229754443989162e-08
2.085,0.05218887796857759,77.50000031915964,0,60,1.0,1,7.509638568508843e-09
2.09,0.0727577001223134,77.50000021241732,0,60,1.0,1,4.99805457152166e-09
2.095,0.0974992498694751,77.50000014070355,0,60,1.0,1,3.3106717263067632e-09
2.1,0.12558706050443358,77.50000009275841,0,60,1.0,1,2.1825508825071773e-09
2.105,0.15549263588878245,77.50000006086039,0,60,1.0,1,1.432009104759987e-09
2.11,0.1850529723539114,77.50000003974196,0,60,1.0,1,9.351050025810872e-10
2.115,0.21169159439317053,77.50000002582837,0,60,1.0,1,6.077263659629834e-10
2.12,0.23277292922115492,77.50000001670621,0,60,1.0,1,3.9308728820983294e-10
2.125,0.24602692519491282,77.50000001075455,0,60,1.0,1,2.5304817587739844e-10
2.13,0.24995056064839283,77.50000000689032,0,60,1.0,1,1.6212512117122327e-10
2.135,0.24408826520424054,77.5000000043936,0,60,1.0,1,1.0337878527078668e-10
2.14,0.22911894216865275,77.50000000278825,0,60,1.0,1,6.560599906472764e-11
2.145,0.20672661788705934,77.50000000176108,0,60,1.0,1,4.143718048426843e-11
2.15,0.17928878030241233,77.50000000110703,0,60,1.0,1,2.6047660760334968e-11
2.155,0.14946211903866036,77.50000000069258,0,60,1.0,1,1.629600506823729e-11
2.16,0.1197651512573837,77.50000000043124,0,60,1.0,1,1.0146884639706353e-11
2.165,0.09224675744988023,77.50000000026724,0,60,1.0,1,6.287885245161734e-12
2.17,0.06829565320281596,77.50000000016482,0,60,1.0,1,3.878058658515596e-12
2.175,0.04860224607515734,77.50000000010117,0,60,1.0,1,2.380401758059366e-12
2.18,0.03324612389699793,77.5000000000618,0,60,1.0,1,1.454188403680318e-12
2.185,0.021859876340472782,77.50000000003757,0,60,1.0,1,8.840823498116258e-13
2.19,0.01381595518554205,77.50000000002274,0,60,1.0,1,5.349968833958402e-13
2.195,0.008394095110402422,77.5000000000137,0,60,1.0,1,3.223356222459937e-13
2.2,0.0049052535271608,77.50000000000821,0,60,1.0,1,1.9326762412674725e-13
2.205,0.0027671663551903634,77.5000000000049,0,60,1.0,1,1.1535870298222802e-13
2.21,0.0015425553464444616,77.50000000000291,0,60,1.0,1,6.854647568509201e-14
2.215,0.0009638206637011801,77.50000000000172,0,60,1.0,1,4.045913930681041e-14
2.22,0.0009804935156568228,77.50000000000101,0,60,1.0,1,2.3740486700690407e-14
2.225,0.0018793744894085216,77.5000000000006,0,60,1.0,1,1.4043668189140804e-14
2.23,0.004535525206900863,77.50000000000034,0,60,1.0,1,8.024953250937602e-15
2.235,0.010832767979632273,77.5000000000002,0,60,1.0,1,4.681222729713601e-15
2.24,0.024208003392322392,77.50000000000011,0,60,1.0,1,2.6749844169792007e-15
2.245,0.0500971897335304,77.50000000000007,0,60,1.0,1,1.6718652606120004e-15
2.25,0.09582894921774403,77.50000000000004,0,60,1.0,1,1.0031191563672002e-15
2.255,0.16937896721820658,77.50000000000001,0,60,1.0,1,3.343730521224001e-16
2.26,0.27661303008991756,77.50000000000001,0,60,1.0,1,3.343730521224001e-16
2.265,0.4173782800009149,77.5,0,60,1.0,1,0.0
2.27,0.5818720934538056,77.5,0,60,1.0,1,0.0
2.275,0.7494718801585675,77.5,0,60,1.0,1,0.0
2.28,0.891813020752378,77.5,0,60,1.0,1,0.0
2.285,0.9800361632936612,77.5,0,60,1.0,1,0.0
2.29,0.993574479225126,77.50000248994282,1,60,1.0,1,5.8586889776158976e-08
2.295,0.9263438449375362,77.50000380552395,0,60,1.0,1,8.954173989984744e-08
2.3,0.7873015962290536,77.50000593638781,0,60,1.0,1,1.39679713129226e-07
2.305,0.5959516244629897,77.50000955146527,0,60,1.0,1,2.2474035925851614e-07
2.31,0.376910120078773,77.50001601150335,0,60,1.0,1,3.7674125524865623e-07
2.315,0.15739335672107918,77.50002813833666,0,60,1.0,1,6.62078509642871e-07
2.32,-0.033361226269301235,77.50005180683414,0,60,1.0,1,1.2189843326215102e-06
2.325,-0.1680180840843834,77.50009915896051,0,60,1.0,1,2.3331520119828543e-06
2.33,-0.23069703190837854,77.5001949173451,0,60,1.0,1,4.586290472897257e-06
2.335,-0.22587267821131068,77.50038842890842,0,60,1.0,1,9.13950372759085e-06
2.34,-0.17718181630665902,77.50077594134726,0,60,1.0,1,1.8257443464870662e-05
2.345,-0.11494332516451301,77.50154050202146,0,60,1.0,1,3.6247106387196145e-05
2.35,-0.061810214049552864,77.50302106429805,0,60,1.0,1,7.108386583655267e-05
2.355,-0.026546104631500547,77.50582806699363,0,60,1.0,1,0.00013713098808539945
2.36,-0.00719600351942686,77.5110297722934,0,60,1.0,1,0.00025952405396230247
2.365,0.0022072757983807078,77.52044123887686,0,60,1.0,1,0.00048097032651425893
2.37,0.006917199873730717,77.53705421595274,0,60,1.0,1,0.0008718639047702602
2.375,0.01004859748264829,77.5656483921687,0,60,1.0,1,0.0015446680510281647
2.38,0.013037082251128167,77.61361778133262,0,60,1.0,1,0.002673359560767561
2.385,0.01645163937690478,77.69202488768812,0,60,1.0,1,0.004518232651485184
2.39,0.020526639934696615,77.81685387265462,0,60,1.0,1,0.007455385238932208
2.395,0.02539629541761738,78.01036829501618,0,60,1.0,1,0.012008665765086548
2.4,0.031171612185577933,78.30238982620193,0,60,1.0,1,0.018879760616516035
2.405,0.03795853426638131,78.73121019613063,0,60,1.0,1,0.02896965167366194
2.41,0.0458588961882057,79.34374842619829,0,60,1.0,2,0.043382315910547975
2.415,0.054966995891435555,80.19449891225777,0,60,1.0,2,0.0633999744060652
2.42,0.06536491004445595,81.34282055819683,0,60,1.0,2,0.09041930725169021
2.425,0.07711726085088699,82.84823024479076,0,60,1.0,2,0.12584071164213542
2.43,0.09026570629555215,84.76361058293982,0,60,1.0,2,0.17090848430446634
2.435,0.10482339848670268,87.12662098861364,0,60,1.0,2,0.2265087291438503
2.44,0.12076968927580028,89.95007326204762,0,60,1.0,2,0.29294290028347353
2.445,0.13804539501007884,93.21251614850307,0,60,1.0,2,0.3697062623177193
2.45,0.15654895051787066,96.85065144980784,0,60,1.0,2,0.45530944587783156
2.455,0.17613378141900526,100.75534889717845,0,60,1.0,2,0.5471846799336106
2.46,0.19660720058055794,104.77283232444243,0,60,1.0,2,0.6417137017515867
2.465,0.21773108748496234,108.71203014349793,0,60,1.0,2,0.7344007092587748
2.47,0.23922453870058807,112.35816304783853,0,60,1.0,2,0.8201920717138478
2.475,0.2607685857914563,115.49152435431921,0,60,1.0,2,0.8939182201016285
2.48,0.2820129681603682,117.90931557476307,0,60,1.0,2,0.9508074252885428
2.485,0.30258482867153996,119.44758504432397,0,60,1.0,2,0.987002001042917
2.49,0.3220990771751686,120.0,0,60,1.0,2,1.0
2.495,0.3401700499968971,119.53048331157143,0,60,1.0,2,0.9889525485075631
2.5,0.3564239911198326,118.07764512178605,0,60,1.0,2,0.954768120512613
2.505,0.3705118017738417,115.75027089627324,0,60,1.0,2,0.9000063740299585
2.51,0.3821214567925213,112.71461532107598,0,60,1.0,2,0.8285791840253173
2.515,0.39098947374066967,109.17558029645926,0,60,1.0,2,0.7453077716813943
2.52,0.3969108472035567,105.35475009686118,0,60,1.0,2,0.6554058846320278
2.525,0.3997469255491936,101.46855261644002,0,60,1.0,2,0.5639659439162358
2.53,0.3994308076379137,97.70949370222844,0,60,1.0,2,0.47551749887596334
2.535,0.3959699661768434,94.23259379733645,0,60,1.0,2,0.3937080893490929
2.54,0.38944595408114946,91.14806229054459,0,60,1.0,2,0.3211308774245785
2.545,0.38001120995358023,88.5201284436027,0,60,1.0,2,0.25929713984947533
2.55,0.3678831374098315,86.37103019757335,0,60,1.0,2,0.20873012229584345
2.555,0.35333577933796634,84.68858588314299,0,60,1.0,2,0.16914319725042332
2.56,0.33668953221163944,83.43558240598455,0,60,1.0,2,0.13966076249375406
2.565,0.3182994390982644,82.5593606642362,0,60,1.0,2,0.11904378033496929
2.57,0.29854265738230645,82.00035857665452,0,60,1.0,2,0.10589079003892989
2.575,0.2778057157821067,81.69885586979706,0,60,1.0,2,0.09879660870110724
2.58,0.2564721553719815,81.59963653358932,0,60,1.0,2,0.09646203608445456
2.585,0.23491109433464996,81.65466301792299,0,60,1.0,2,0.09775677689230552
2.59,0.21346717185309805,81.82410177142309,0,60,1.0,2,0.10174357109230794
2.595,0.19245222055656455,82.07615171988677,0,60,1.0,2,0.10767415811498274
2.6,0.17213889801761392,82.3861310312197,0,60,1.0,2,0.1149677889698754
2.605,0.15275638501270183,82.73521037592705,0,60,1.0,2,0.12318142061004832
2.61,0.13448814019607322,83.10908026135901,0,60,1.0,2,0.13197835909080027
2.615,0.11747159495449566,83.4967355800674,0,60,1.0,2,0.1410996607074681
2.62,0.10179958433370105,83.8894711137067,0,60,1.0,2,0.15034049679309894
2.625,0.08752324394101413,84.28011585858825,0,60,1.0,2,0.1595321378491352
2.63,0.07465606047174059,84.66249236323388,0,60,1.0,2,0.1685292320760913
2.635,0.0631787448609295,85.03106583868113,0,60,1.0,2,0.17720154914543834
2.64,0.05304460019959574,85.38074083876755,0,60,1.0,2,0.1854291962062953
2.645,0.044185078305849994,85.70676514941869,0,60,1.0,2,0.19310035645691026
2.65,0.03651525513023255,86.00470666351954,0,60,1.0,2,0.20011074502398923
2.655,0.0299390014708757,86.27047640104377,0,60,1.0,2,0.20636415061279448
2.66,0.024353677220580638,86.50037773141064,0,60,1.0,2,0.21177359368025028
2.665,0.01965423034339045,86.69116751454428,0,60,1.0,2,0.2162627650481006
2.67,0.015736632374757337,86.84011916090118,0,60,1.0,2,0.2197675096682631
2.675,0.012500627640593535,86.94508069587606,0,60,1.0,2,0.22223719284414253
2.68,0.009851811652115898,87.00452308891684,0,60,1.0,2,0.2236358373862786
2.685,0.007703084175428559,87.01757565612239,0,60,1.0,2,0.22394295661464445
2.69,0.005975544002062424,86.98404649438511,0,60,1.0,2,0.22315403516200263
2.695,0.004598905818663047,86.9044268139302,0,60,1.0,2,0.22128063091600472
2.7,0.0035115256454839104,86.77987880203669,0,60,1.0,2,0.21835008945968687
2.705,0.002660121266303676,86.61220732526297,0,60,1.0,2,0.2144048782414817
2.71,0.0019992692560877024,86.40381638099026,0,60,1.0,2,0.20950156190565328
2.715,0.0014907520044639367,86.15765174322021,0,60,1.0,2,0.2037094527816521
2.72,0.0011028178277539807,85.87713170445551,0,60,1.0,2,0.19710898128130605
2.725,0.0008094059938923333,85.56606818397677,0,60,1.0,2,0.18978983962298276
2.73,0.0005893771793717645,85.22858074240006,0,60,1.0,2,0.18184895864470718
2.735,0.0004257792353490551,84.86900620562017,0,60,1.0,2,0.17338838130870982
2.74,0.0003051686392901525,84.49180665504765,0,60,1.0,2,0.16451309776582715
2.745,0.00021699992642659966,84.10147848725309,0,60,1.0,2,0.15532890558242562
2.75,0.00015308884054097838,83.70246509143067,0,60,1.0,2,0.1459403550924863
2.755,0.00010714989329311098,83.29907544860849,0,60,1.0,2,0.13644883408490566
2.76,7.440535854020571e-05,82.89541063710034,0,60,1.0,2,0.12695083852000802
2.765,5.1260276743925106e-05,82.49529985192366,0,60,1.0,2,0.11753646710408615
2.77,3.503659887882241e-05,82.10224713113755,0,60,1.0,2,0.10828816779147166
2.775,2.375894748103639e-05,81.71938954924038,0,60,1.0,2,0.09927975409977353
2.78,1.5984413869232557e-05,81.34946720642466,0,60,1.0,2,0.09057569897469794
2.785,1.0669166579899869e-05,80.99480493070575,0,60,1.0,2,0.0822307042519001
2.79,7.06526633560511e-06,80.65730523356406,0,60,1.0,2,0.07428953490738964
2.795,4.641847214699205e-06,80.33845173171007,0,60,1.0,2,0.06678709956964861
2.8,3.025641074479182e-06,80.03932197752341,0,60,1.0,2,0.059748752412315635
2.805,1.9566278676921314e-06,79.7606084347192,0,60,1.0,2,0.05319078669927535
2.81,1.2553456560008793e-06,79.50264619642017,0,60,1.0,2,0.0471210869745923
2.815,7.990660428214668e-07,79.26544596930036,0,60,1.0,2,0.04153990516000844
2.82,5.046221251618276e-07,79.04873083608925,0,60,1.0,2,0.03644072555504114
2.825,3.1616527078858815e-07,78.85197535329688,0,60,1.0,2,0.03181118478345598
2.83,1.9652884407760343e-07,78.67444563345711,0,60,1.0,2,0.027634014904873203
2.835,1.2120002189836396e-07,78.51523919213612,0,60,1.0,2,0.023887980991438153
2.84,7.415549848886236e-08,78.37332349940569,0,60,1.0,2,0.020548788221310253
2.845,4.501406988770349e-08,78.24757235335397,0,60,1.0,2,0.01758993772597585
2.85,0.0,78.13679937985393,0,60,1.0,2,0.014983514820092376
2.855,0.0,78.03978814945174,0,60,1.0,2,0.012700897634158537
2.86,0.0,77.95531858127889,0,60,1.0,2,0.010713378383032665
2.865,0.0,77.88218946913811,0,60,1.0,2,0.008992693391484983
2.87,0.0,77.81923711168028,0,60,1.0,2,0.007511461451300714
2.875,0.0,77.7653501537141,0,60,1.0,2,0.006243533028566952
2.88,0.0,77.71948084745911,0,60,1.0,2,0.005164255234331998
2.885,0.0,77.68065302056385,0,60,1.0,2,0.004250659307384761
2.89,0.0,77.647967092686,0,60,1.0,2,0.0034815786514353505
2.895,0.0,77.62060251599861,0,60,1.0,2,0.0028377062587908847
2.9,0.0,77.59781802945105,0,60,1.0,2,0.0023016006929658353
2.905,0.0,77.57895011472735,0,60,1.0,2,0.0018576497582905498
2.91,0.0,77.56341002660088,0,60,1.0,2,0.001492000625902994
2.915,0.0,77.55067974482027,0,60,1.0,2,0.0011924645840063958
2.92,0.0,77.54030716171373,0,60,1.0,2,0.0009484038050288745
2.925,0.0,77.53190078207007,0,60,1.0,2,0.0007506066369427679
2.93,0.0,77.52512417193833,0,60,1.0,2,0.0005911569867842392
2.935,0.0,77.51969035280118,0,60,1.0,2,0.0004633024188512322
2.94,0.0,77.515356298754,0,60,1.0,2,0.00036132467656470373
2.945,0.0,77.5119176580947,0,60,1.0,2,0.0002804154845812397
2.95,0.0,77.50920378796964,0,60,1.0,2,0.00021655971693268624
2.955,0.0,77.50707316196097,0,60,1.0,2,0.0001664273402582239
2.96,0.0,77.5054091859877,0,60,1.0,2,0.00012727496441651537
2.965,0.0,77.50411643763564,0,60,1.0,2,9.685735613281983e-05
2.97,0.0,77.50311732785518,0,60,1.0,2,7.334889071009511e-05
2.975,0.0,77.50234917155994,0,60,1.0,2,5.527462493981094e-05
2.98,0.0,77.50176164462405,0,60,1.0,2,4.1450461742442714e-05
2.985,0.0,77.50131459866044,0,60,1.0,2,3.0931733186889686e-05
2.99,0.0,77.50097620130107,0,60,1.0,2,2.296944237815189e-05
2.995,0.0,77.50072136803325,0,60,1.0,2,1.6973365488330967e-05
3.0,0.0,77.50053045154435,0,60,1.0,2,1.2481212808231303e-05
3.005,0.0,77.50038815560109,0,60,1.0,2,9.133072966746756e-06
3.01,0.0,77.50028264239916,0,60,1.0,2,6.650409391915994e-06
3.015,0.0,77.50020480477525,0,60,1.0,2,4.818935888258292e-06
3.02,0.0,77.50014767744172,0,60,1.0,2,3.4747633345191655e-06
3.025,0.0,77.50010596429578,0,60,1.0,2,2.4932775478619614e-06
3.03,0.0,77.50007566172987,0,60,1.0,2,1.7802759968537216e-06
3.035,0.0,77.50005376062273,0,60,1.0,2,1.2649558290350423e-06
3.04,0.0,77.50003801225458,0,60,1.0,2,8.94405990065399e-07
3.045,0.0,77.50002674571927,0,60,1.0,2,6.293110415941449e-07
3.05,0.0,77.50001872648421,0,60,1.0,2,4.4062315797579207e-07
3.055,0.0,77.50001304756682,0,60,1.0,2,3.070015723364229e-07
3.06,0.0,77.50000904636538,0,60,1.0,2,2.128556559455319e-07
3.065,0.001684486749771458,77.50000624151522,0,60,1.0,2,1.4685918171487762e-07
3.07,0.003097557930867117,77.5000042852608,0,60,1.0,2,1.0082966589246045e-07
3.075,0.005475106668887023,77.50000292776217,0,60,1.0,2,6.888852159564147e-08
3.08,0.00930222931468658,77.50000199051588,0,60,1.0,2,4.683566785120895e-08
3.085,0.01519157517868857,77.50000134668745,0,60,1.0,2,3.168676364432887e-08
3.09,0.023847336626128316,77.50000090664922,0,60,1.0,2,2.133292281648798e-08
3.095,0.0359830743700859,77.50000060741161,0,60,1.0,2,1.4292037817272906e-08
3.1,0.05218887796857759,77.50000040494702,0,60,1.0,2,9.528165090908741e-09
3.105,0.0727577001223134,77.50000026864862,0,60,1.0,2,6.32114399516414e-09
3.11,0.0974992498694751,77.50000017735456,0,60,1.0,2,4.173048583812916e-09
3.115,0.12558706050443358,77.5000001165122,0,60,1.0,2,2.74146346408302e-09
3.12,0.15549263588878245,77.50000007616786,0,60,1.0,2,1.7921850565685685e-09
3.125,0.1850529723539114,77.50000004954998,0,60,1.0,2,1.1658819269488209e-09
3.13,0.21169159439317053,77.50000003207646,0,60,1.0,2,7.547401657896391e-10
3.135,0.23277292922115492,77.50000002066335,0,60,1.0,2,4.861964739307843e-10
3.14,0.24602692519491282,77.50000001324605,0,60,1.0,2,3.116717968677061e-10
3.145,0.24995056064839283,77.50000000844973,0,60,1.0,2,1.9881721367282272e-10
3.15,0.24408826520424054,77.50000000536379,0,60,1.0,2,1.2620676791223507e-10
3.155,0.22911894216865275,77.50000000338821,0,60,1.0,2,7.972256057923112e-11
3.16,0.20672661788705934,77.50000000212981,0,60,1.0,2,5.011315806768835e-11
3.165,0.17928878030241233,77.50000000133224,0,60,1.0,2,3.1346804890370766e-11
3.17,0.14946211903866036,77.50000000082927,0,60,1.0,2,1.9512339456602656e-11
3.175,0.1197651512573837,77.50000000051367,0,60,1.0,2,1.2086248342016274e-11
3.18,0.09224675744988023,77.50000000031662,0,60,1.0,2,7.449831601287074e-12
3.185,0.06829565320281596,77.5000000001942,0,60,1.0,2,4.56954213030472e-12
3.19,0.04860224607515734,77.50000000011853,0,60,1.0,2,2.789005627752939e-12
3.195,0.03324612389699793,77.500000000072,0,60,1.0,2,1.6942682551042012e-12
3.2,0.021859876340472782,77.50000000004351,0,60,1.0,2,1.023850285598789e-12
3.205,0.01381595518554205,77.50000000002618,0,60,1.0,2,6.15915162009461e-13
3.21,0.008394095110402422,77.50000000001566,0,60,1.0,2,3.684791034388849e-13
3.215,0.0049052535271608,77.50000000000934,0,60,1.0,2,2.1968309524441686e-13
3.22,0.0027671663551903634,77.50000000000553,0,60,1.0,2,1.3007111727561363e-13
3.225,0.0015425553464444616,77.50000000000325,0,60,1.0,2,7.657142893602963e-14
3.23,0.0009638206637011801,77.50000000000192,0,60,1.0,2,4.514036203652401e-14
3.235,0.0009804935156568228,77.50000000000112,0,60,1.0,2,2.6415471117669608e-14
3.24,0.0018793744894085216,77.50000000000065,0,60,1.0,2,1.5381160397630403e-14
3.245,0.004535525206900863,77.50000000000037,0,60,1.0,2,8.693699355182403e-15
3.25,0.010832767979632273,77.50000000000021,0,60,1.0,2,5.015595781836002e-15
3.255,0.024208003392322392,77.50000000000013,0,60,1.0,2,3.0093574691016007e-15
3.26,0.0500971897335304,77.50000000000007,0,60,1.0,2,1.6718652606120004e-15
3.265,0.09582894921774403,77.50000000000004,0,60,1.0,2,1.0031191563672002e-15
3.27,0.16937896721820658,77.50000000000003,0,60,1.0,2,6.687461042448002e-16
3.275,0.27661303008991756,77.50000000000001,0,60,1.0,2,3.343730521224001e-16
3.28,0.4173782800009149,77.5,0,60,1.0,2,0.0
3.285,0.5818720934538056,77.5,0,60,1.0,2,0.0
3.29,0.7494718801585675,77.5,0,60,1.0,2,0.0
3.295,0.891813020752378,77.5,0,60,1.0,2,0.0
3.3,0.9800361632936612,77.5,0,60,1.0,2,0.0
3.305,0.993574479225126,77.50000249379623,1,60,1.0,2,5.8677558372972485e-08
3.31,0.9263438449375362,77.50000382794776,0,60,1.0,2,9.006935917622125e-08
3.315,0.7873015962290536,77.50000600036053,0,60,1.0,2,1.4118495361050436e-07
3.32,0.5959516244629897,77.50000970943701,0,60,1.0,2,2.2845734138975198e-07
3.325,0.376910120078773,77.5000163868594,0,60,1.0,2,3.8557316235496463e-07
3.33,0.15739335672107918,77.50002902423199,0,60,1.0,2,6.829231056947131e-07
3.335,-0.033361226269301235,77.50005389476512,0,60,1.0,2,1.268112120388811e-06
3.34,-0.1680180840843834,77.50010404947875,0,60,1.0,2,2.4482230294191086e-06
3.345,-0.23069703190837854,77.50020622040319,0,60,1.0,2,4.852244780843595e-06
3.35,-0.22587267821131068,77.50041404783398,0,60,1.0,2,9.742301976115521e-06
3.355,-0.17718181630665902,77.50083263801669,0,60,1.0,2,1.959148274562829e-05
3.36,-0.11494332516451301,77.50166268015035,0,60,1.0,2,3.912188589050161e-05
3.365,-0.061810214049552864,77.5032770278292,0,60,1.0,2,7.710653715762687e-05
3.37,-0.026546104631500547,77.50634895429774,0,60,1.0,2,0.0001493871599467077
3.375,-0.00719600351942686,77.5120590120072,0,60,1.0,2,0.0002837414589929294
3.38,0.0022072757983807078,77.52241562190353,0,60,1.0,2,0.0005274263977302032
3.385,0.006917199873730717,77.54073109806174,0,60,1.0,2,0.0009583787779233182
3.39,0.01004859748264829,77.57229617891642,0,60,1.0,2,0.0017010865627392323
3.395,0.013037082251128167,77.62528706971409,0,60,1.0,2,0.0029479310520962505
3.4,0.01645163937690478,77.7119131132812,0,60,1.0,2,0.004986190900734086
3.405,0.020526639934696615,77.84976424958334,0,60,1.0,2,0.008229747049019874
3.41,0.02539629541761738,78.06324165455797,0,60,1.0,2,0.013252744813128709
3.415,0.031171612185577933,78.38485440731901,0,60,1.0,2,0.020820103701623793
3.42,0.03795853426638131,78.85605110071748,0,60,1.0,2,0.031907084722764226
3.425,0.0458588961882057,79.52715125776614,0,60,1.0,2,0.047697676653320836
3.43,0.054966995891435555,80.45588226229052,0,60,1.0,2,0.06955017087742389
3.435,0.06536491004445595,81.70405544530206,0,60,1.0,2,0.09891895165416613
3.44,0.07711726085088699,83.33206946519013,0,60,1.0,2,0.1372251638868266
3.445,0.09026570629555215,85.39123254573106,0,60,1.0,2,0.1856760598995543
3.45,0.10482339848670268,87.9143369512103,0,60,1.0,2,0.24504322238141887
3.455,0.12076968927580028,90.90544393360824,0,60,1.0,2,0.3154222102025468
3.46,0.13804539501007884,94.33034336266256,0,60,1.0,2,0.396008079121472
3.465,0.15654895051787066,98.10950421064753,0,60,1.0,2,0.4849295108387654
3.47,0.17613378141900526,102.11539119616134,0,60,1.0,2,0.5791856752037963
3.475,0.19660720058055794,106.17568759500095,0,60,1.0,2,0.6747220610588459
3.48,0.21773108748496234,110.08321153763839,0,60,1.0,2,0.7666638008856091
3.485,0.23922453870058807,113.61222628224048,0,60,1.0,2,0.8496994419350702
3.49,0.2607685857914563,116.53961398056285,0,60,1.0,2,0.9185791524838317
3.495,0.2820129681603682,118.66827111065578,0,60,1.0,2,0.9686652026036654
3.5,0.30258482867153996,119.84936740314373,0,60,1.0,2,0.9964557036033819
3.505,0.3220990771751686,120.0,0,60,1.0,2,1.0
3.51,0.3401700499968971,119.11335164043977,0,60,1.0,2,0.9791376856574064
3.515,0.3564239911198326,117.2596422087817,0,60,1.0,2,0.9355209931478047
3.52,0.3705118017738417,114.57771066593102,0,60,1.0,2,0.8724167215513182
3.525,0.3821214567925213,111.25864733544083,0,60,1.0,2,0.7943211137750783
3.53,0.39098947374066967,107.52417358062645,0,60,1.0,2,0.7064511430735636
3.535,0.3969108472035567,103.60317581973628,0,60,1.0,2,0.614192372229089
3.54,0.3997469255491936,99.70982687224779,0,60,1.0,2,0.5225841616999479
3.545,0.3994308076379137,96.02611916232044,0,60,1.0,2,0.43590868617224565
3.55,0.3959699661768434,92.69058107724302,0,60,1.0,2,0.3574254371116006
3.555,0.38944595408114946,89.79371843965717,0,60,1.0,2,0.28926396328605103
3.56,0.38001120995358023,87.37958938048318,0,60,1.0,2,0.2324609265996043
3.565,0.3678831374098315,85.45209135214775,0,60,1.0,2,0.1871080318152411
3.57,0.35333577933796634,83.98411918621723,0,60,1.0,2,0.15256751026393478
3.575,0.33668953221163944,82.92773974008752,0,60,1.0,2,0.12771152329617688
3.58,0.3182994390982644,82.22383282330381,0,60,1.0,2,0.11114900760714845
3.585,0.29854265738230645,81.81013488536829,0,60,1.0,2,0.10141493847925377
3.59,0.2778057157821067,81.62715266498432,0,60,1.0,2,0.09710947447021935
3.595,0.2564721553719815,81.62187846806819,0,60,1.0,2,0.09698537571925152
3.6,0.23491109433464996,81.74957199839405,0,60,1.0,2,0.09998992937397755
3.605,0.21346717185309805,81.9740569196691,0,60,1.0,2,0.10527192752162577
3.61,0.19245222055656455,82.2670305887381,0,60,1.0,2,0.11216542561736693
3.615,0.17213889801761392,82.6068399772209,0,60,1.0,3,0.12016094064049178
3.62,0.15275638501270183,82.97707830332679,0,60,1.0,3,0.12887243066651274
3.625,0.13448814019607322,83.36524231629802,0,60,1.0,3,0.13800570155995348
3.63,0.11747159495449566,83.76158527846451,0,60,1.0,3,0.14733141831681196
3.635,0.10179958433370105,84.15821910240557,0,60,1.0,3,0.156663978880131
3.64,0.08752324394101413,84.54846447631488,0,60,1.0,3,0.16584622297211474
3.645,0.07465606047174059,84.92641729835339,0,60,1.0,3,0.17473923054949142
3.65,0.0631787448609295,85.2866873918496,0,60,1.0,3,0.18321617392587286
3.655,0.05304460019959574,85.6242648120442,0,60,1.0,3,0.19115917204809887
3.66,0.044185078305849994,85.93447459191242,0,60,1.0,3,0.19845822569205693
3.665,0.03651525513023255,86.21298860076058,0,60,1.0,3,0.20501149648848427
3.67,0.0299390014708757,86.45587095455626,0,60,1.0,3,0.21072637540132377
3.675,0.024353677220580638,86.65963999461131,0,60,1.0,3,0.2155209410496779
3.68,0.01965423034339045,86.82133492105665,0,60,1.0,3,0.21932552755427404
3.685,0.015736632374757337,86.93857885017128,0,60,1.0,3,0.2220842082393243
3.69,0.012500627640593535,87.00963266008729,0,60,1.0,3,0.2237560625902892
3.695,0.009851811652115898,87.03343582049601,0,60,1.0,3,0.2243161369528473
3.7,0.007703084175428559,87.00963173891398,0,60,1.0,3,0.2237560409156231
3.705,0.005975544002062424,86.938576193165,0,60,1.0,3,0.22208414572152954
3.71,0.004598905818663047,86.82132827999462,0,60,1.0,3,0.219325371293991
3.715,0.0035115256454839104,86.65962406044066,0,60,1.0,3,0.2155205661280156
3.72,0.002660121266303676,86.45583375264079,0,60,1.0,3,0.21072550006213614
3.725,0.0019992692560877024,86.21290391749133,0,60,1.0,3,0.2050095039409725
3.73,0.0014907520044639367,85.93428659481444,0,60,1.0,3,0.19845380223092796
3.735,0.0011028178277539807,85.62385776540609,0,60,1.0,3,0.1911495944801432
3.74,0.0008094059938923333,85.28582782555713,0,60,1.0,3,0.18319594883663848
3.745,0.0005893771793717645,84.92464695644118,0,60,1.0,3,0.17469757544567482
3.75,0.0004257792353490551,84.54490834692771,0,60,1.0,3,0.1657625493394756
3.755,0.0003051686392901525,84.1512521860989,0,60,1.0,3,0.1565000514376212
3.76,0.00021699992642659966,83.74827318768754,0,60,1.0,3,0.14701819265147165
3.765,0.00015308884054097838,83.34043415451329,0,60,1.0,3,0.13742198010619505
3.77,0.00010714989329311098,82.93198775273756,0,60,1.0,3,0.1278114765350013
3.775,7.440535854020571e-05,82.52690826257488,0,60,1.0,3,0.11828019441352654
3.78,5.1260276743925106e-05,82.12883462523583,0,60,1.0,3,0.10891375588790177
3.785,3.503659887882241e-05,81.74102563739208,0,60,1.0,3,0.09978883852687258
3.79,2.375894748103639e-05,81.36632767600855,0,60,1.0,3,0.09097241590608358
3.795,1.5984413869232557e-05,81.00715488812935,0,60,1.0,3,0.08252129148539646
3.8,1.0669166579899869e-05,80.66548136982472,0,60,1.0,3,0.07448191458411102
3.805,7.06526633560511e-06,80.34284450049499,0,60,1.0,3,0.06689045883517625
3.81,4.641847214699205e-06,80.04035830388436,0,60,1.0,3,0.059773136561984956
3.815,3.025641074479182e-06,79.75873548233507,0,60,1.0,3,0.0531467172314134
3.82,1.9566278676921314e-06,79.4983166189272,0,60,1.0,3,0.04701921456299307
3.825,1.2553456560008793e-06,79.25910496239372,0,60,1.0,3,0.04139070499749932
3.83,7.990660428214668e-07,79.04080519796145,0,60,1.0,3,0.03625423995203405
3.835,5.046221251618276e-07,78.84286465667756,0,60,1.0,3,0.03159681545123677
3.84,3.1616527078858815e-07,78.66451551736972,0,60,1.0,3,0.02740036511458169
3.845,1.9652884407760343e-07,78.50481669878073,0,60,1.0,3,0.023642745853664215
3.85,1.2120002189836396e-07,78.36269431353409,0,60,1.0,3,0.020298689730213936
3.855,7.415549848886236e-08,78.23697974928406,0,60,1.0,3,0.01734069998315436
3.86,4.501406988770349e-08,78.12644464506172,0,60,1.0,3,0.014739874001452335
3.865,0.0,78.02983223281902,0,60,1.0,3,0.012466640772212191
3.87,0.0,77.94588470720849,0,60,1.0,3,0.010491404875493934
3.875,0.0,77.87336646401664,0,60,1.0,3,0.008785093270979788
3.88,0.0,77.81108320437647,0,60,1.0,3,0.00731960480885819
3.885,0.0,77.75789703460497,0,60,1.0,3,0.006068165520116843
3.89,0.0,77.7127377985272,0,60,1.0,3,0.0050055952594635425
3.895,0.0,77.67461096019198,0,60,1.0,3,0.0041084931809878605
3.9,0.0,77.64260241090227,0,60,1.0,3,0.003355350844759307
3.905,0.0,77.61588060740796,0,60,1.0,3,0.0027266025272461
3.91,0.0,77.5936964605813,0,60,1.0,3,0.0022046226019129147
3.915,0.0,77.57538138902093,0,60,1.0,3,0.0017736797416690105
3.92,0.0,77.56034393314094,0,60,1.0,3,0.001419857250375103
3.925,0.0,77.5480652957481,0,60,1.0,3,0.0011309481352494754
3.93,0.0,77.53809413809743,0,60,1.0,3,0.0008963326611161151
3.935,0.0,77.53004091886824,0,60,1.0,3,0.0007068451498408944
3.94,0.0,77.52357201997987,0,60,1.0,3,0.0005546357642321495
3.945,0.0,77.51840385980424,0,60,1.0,3,0.0004330319953938295
3.95,0.0,77.51429715282914,0,60,1.0,3,0.0003364035959798591
3.955,0.0,77.51105143644553,0,60,1.0,3,0.00026003379871828174
3.96,0.0,77.5084999511344,0,60,1.0,3,0.0001999988502210967
3.965,0.0,77.50650493041393,0,60,1.0,3,0.0001530571862100019
3.97,0.0,77.50495333166883,0,60,1.0,3,0.00011654898044305221
3.975,0.0,77.50375301836885,0,60,1.0,3,8.830631456128364e-05
3.98,0.0,77.50282938794548,0,60,1.0,3,6.65738340113448e-05
3.985,0.0,77.5021224273595,0,60,1.0,3,4.9939467282242466e-05
3.99,0.0,77.50158416968905,0,60,1.0,3,3.7274580918900775e-05
3.995,0.0,77.50117651939523,0,60,1.0,3,2.7682809299529468e-05
4.0,0.0,77.5008694107589,0,60,1.0,3,2.0456723738708902e-05
4.005,0.0,77.50063926283588,0,60,1.0,3,1.5041478491184535e-05
4.01,0.0,77.50046769468173,0,60,1.0,3,1.1004580746617542e-05
4.015,0.0,77.50034046614508,0,60,1.0,3,8.010968119432458e-06
4.02,0.0,77.50024661186245,0,60,1.0,3,5.80263205767337e-06
4.025,0.0,77.50017773891317,0,60,1.0,3,4.182092074496027e-06
4.03,0.0,77.5001274616702,0,60,1.0,3,2.9990981224326627e-06
4.035,0.0,77.50009095052647,0,60,1.0,3,2.1400123875323246e-06
4.04,0.0,77.500064574248,0,60,1.0,3,1.5193940705959155e-06
4.045,0.0,77.50004561860754,0,60,1.0,3,1.0733790010336259e-06
4.05,0.0,77.50003206662257,0,60,1.0,3,7.545087662626483e-07
4.055,0.0,77.5000224281237,0,60,1.0,3,5.277205576369263e-07
4.06,0.0,77.50001560850087,0,60,1.0,3,3.6725884409433465e-07
4.065,0.0,77.50001080831444,0,60,1.0,3,2.5431328100132624e-07
4.07,0.001684486749771458,77.50000744703297,0,60,1.0,3,1.7522430519367096e-07
4.075,0.003097557930867117,77.50000510548624,0,60,1.0,3,1.2012908795815533e-07
4.08,0.005475106668887023,77.5000034827273,0,60,1.0,3,8.194652456736282e-08
4.085,0.00930222931468658,77.50000236390684,0,60,1.0,3,5.5621337517496775e-08
4.09,0.01519157517868857,77.50000159650313,0,60,1.0,3,3.7564779417794744e-08
4.095,0.023847336626128316,77.50000107284681,0,60,1.0,3,2.5243454448333496e-08
4.1,0.0359830743700859,77.50000071735509,0,60,1.0,3,1.6878943356727284e-08
4.105,0.05218887796857759,77.50000047726456,0,60,1.0,3,1.1229754443989162e-08
4.11,0.0727577001223134,77.5000003159459,0,60,1.0,3,7.4340211058905185e-09
4.115,0.0974992498694751,77.50000020811088,0,60,1.0,3,4.89672649617954e-09
4.12,0.12558706050443358,77.50000013639716,0,60,1.0,3,3.209344988456852e-09
4.125,0.15549263588878245,77.50000008894969,0,60,1.0,3,2.092933888942592e-09
4.13,0.1850529723539114,77.50000005771811,0,60,1.0,3,1.358073204220786e-09
4.135,0.21169159439317053,77.50000003726561,0,60,1.0,3,8.768378232643419e-10
4.14,0.23277292922115492,77.50000002394049,0,60,1.0,3,5.633055747346267e-10
4.145,0.24602692519491282,77.50000001530334,0,60,1.0,3,3.6007864925041384e-10
4.15,0.24995056064839283,77.50000000973347,0,60,1.0,3,2.2902280333629974e-10
4.155,0.24408826520424054,77.50000000615996,0,60,1.0,3,1.4494035253044465e-10
4.16,0.22911894216865275,77.50000000387898,0,60,1.0,3,9.127013393427821e-11
4.165,0.20672661788705934,77.50000000243044,0,60,1.0,3,5.718681998533772e-11
4.17,0.17928878030241233,77.50000000151523,0,60,1.0,3,3.565252668255091e-11
4.175,0.14946211903866036,77.50000000093995,0,60,1.0,3,2.2116436786531908e-11
4.18,0.1197651512573837,77.50000000058017,0,60,1.0,3,1.3651114225949106e-11
4.185,0.09224675744988023,77.50000000035632,0,60,1.0,3,8.38406990891706e-12
4.19,0.06829565320281596,77.50000000021774,0,60,1.0,3,5.123263904619414e-12
4.195,0.04860224607515734,77.5000000001324,0,60,1.0,3,3.1153537266244016e-12
4.2,0.03324612389699793,77.5000000000801,0,60,1.0,3,1.884860894813969e-12
4.205,0.021859876340472782,77.50000000004822,0,60,1.0,3,1.1345277658513034e-12
4.21,0.01381595518554205,77.50000000002889,0,60,1.0,3,6.797804149648394e-13
4.215,0.008394095110402422,77.50000000001721,0,60,1.0,3,4.049257661202265e-13
4.22,0.0049052535271608,77.5000000000102,0,60,1.0,3,2.4007985142388327e-13
4.225,0.0027671663551903634,77.50000000000603,0,60,1.0,3,1.4177417409989764e-13
4.23,0.0015425553464444616,77.50000000000354,0,60,1.0,3,8.325888997847762e-14
4.235,0.0009638206637011801,77.50000000000206,0,60,1.0,3,4.848409255774801e-14
4.24,0.0009804935156568228,77.5000000000012,0,60,1.0,3,2.808733637828161e-14
4.245,0.0018793744894085216,77.5000000000007,0,60,1.0,3,1.6384279553997603e-14
4.25,0.004535525206900863,77.5000000000004,0,60,1.0,3,9.362445459427202e-15
4.255,0.010832767979632273,77.50000000000023,0,60,1.0,3,5.349968833958401e-15
4.26,0.024208003392322392,77.50000000000013,0,60,1.0,3,3.0093574691016007e-15
4.265,0.0500971897335304,77.50000000000007,0,60,1.0,3,1.6718652606120004e-15
4.27,0.09582894921774403,77.50000000000004,0,60,1.0,3,1.0031191563672002e-15
4.275,0.16937896721820658,77.50000000000003,0,60,1.0,3,6.687461042448002e-16
4.28,0.27661303008991756,77.50000000000001,0,60,1.0,3,3.343730521224001e-16
4.285,0.4173782800009149,77.5,0,60,1.0,3,0.0
4.29,0.5818720934538056,77.5,0,60,1.0,3,0.0
4.295,0.7494718801585675,77.5,0,60,1.0,3,0.0
4.3,0.891813020752378,77.5,0,60,1.0,3,0.0
4.305,0.9800361632936612,77.5,0,60,1.0,3,0.0
4.31,0.993574479225126,77.5000024966485,1,60,1.0,3,5.874467072263702e-08
4.315,0.9263438449375362,77.50000388454893,0,60,1.0,3,9.140115132729132e-08
4.32,0.7873015962290536,77.50000618232913,0,60,1.0,3,1.454665677743726e-07
4.325,0.5959516244629897,77.5000101847726,0,60,1.0,3,2.396417083700191e-07
4.33,0.376910120078773,77.50001756083037,0,60,1.0,3,4.1319600875474007e-07
4.335,0.15739335672107918,77.50003188149957,0,60,1.0,3,7.501529309780274e-07
4.34,-0.033361226269301235,77.50006080365405,0,60,1.0,3,1.4306742129707239e-06
4.345,-0.1680180840843834,77.50012058486693,0,60,1.0,3,2.8372909866902773e-06
4.35,-0.23069703190837854,77.50024513995355,0,60,1.0,3,5.7679989070306076e-06
4.355,-0.22587267821131068,77.50050363241509,0,60,1.0,3,1.1850174472690068e-05
4.36,-0.17718181630665902,77.50103350758017,0,60,1.0,3,2.4317825415878626e-05
4.365,-0.11494332516451301,77.50210036935763,0,60,1.0,3,4.942045547375742e-05
4.37,-0.061810214049552864,77.50420258594323,0,60,1.0,3,9.888437513489087e-05
4.375,-0.026546104631500547,77.50824711533218,0,60,1.0,3,0.00019404977252192754
4.38,-0.00719600351942686,77.51583324529174,0,60,1.0,3,0.0003725469480410565
4.385,0.0022072757983807078,77.52969102922935,0,60,1.0,3,0.0006986124524554029
4.39,0.006917199873730717,77.55432766935884,0,60,1.0,3,0.0012782981025609656
4.395,0.01004859748264829,77.5969322368778,0,60,1.0,3,0.0022807585147718865
4.4,0.013037082251128167,77.66856909864642,0,60,1.0,3,0.003966331732856829
4.405,0.01645163937690478,77.78564441251984,0,60,1.0,3,0.006721045000466909
4.41,0.020526639934696615,77.97155076923681,0,60,1.0,3,0.011095312217336789
4.415,0.02539629541761738,78.2582808201053,0,60,1.0,3,0.017841901649536432
4.42,0.031171612185577933,78.68766052792253,0,60,1.0,3,0.027944953598177214
4.425,0.03795853426638131,79.31171075246023,0,60,1.0,3,0.04262848829318186
4.43,0.0458588961882057,80.19154347445966,0,60,1.0,3,0.06333043469316856
4.435,0.054966995891435555,81.39419054317591,0,60,1.0,3,0.09162801278060964
4.44,0.06536491004445595,82.9869047835598,0,60,1.0,3,0.1291036419661128
4.445,0.07711726085088699,85.02880519220997,0,60,1.0,3,0.17714835746376406
4.45,0.09026570629555215,87.56025991780172,0,60,1.0,3,0.23671199806592272
4.455,0.10482339848670268,90.59105402879193,0,60,1.0,3,0.3080248006774572
4.46,0.12076968927580028,94.08904924277502,0,60,1.0,3,0.3903305704182357
4.465,0.13804539501007884,97.97153364558193,0,60,1.0,3,0.48168314460192774
4.47,0.15654895051787066,102.10159121830677,0,60,1.0,3,0.5788609698425121
4.475,0.17613378141900526,106.29144711748273,0,60,1.0,3,0.6774458145290054
4.48,0.19660720058055794,110.31382182199403,0,60,1.0,3,0.7720899252233888
4.485,0.21773108748496234,113.92095766616347,0,60,1.0,3,0.8569637097920817
4.49,0.23922453870058807,116.86941633089845,0,60,1.0,3,0.9263392077858458
4.495,0.2607685857914563,118.94734075580467,0,60,1.0,3,0.9752315471954041
4.5,0.2820129681603682,120.0,0,60,1.0,3,1.0
4.505,0.30258482867153996,119.94936806517826,0,60,1.0,3,0.9988086603571356
4.51,0.3220990771751686,118.80431883209974,0,60,1.0,3,0.9718663254611704
4.515,0.3401700499968971,116.65961054384493,0,60,1.0,3,0.9214026010316455
4.52,0.3564239911198326,113.6838413525704,0,60,1.0,3,0.8513845024134211
4.525,0.3705118017738417,110.09852371838782,0,60,1.0,3,0.7670240874914782
4.53,0.3821214567925213,106.15190294941635,0,60,1.0,3,0.6741624223392083
4.535,0.39098947374066967,102.09182171295444,0,60,1.0,3,0.5786310991283398
4.54,0.3969108472035567,98.14171008969322,0,60,1.0,3,0.48568729622807577
4.545,0.3997469255491936,94.48278858522536,0,60,1.0,3,0.39959502553471443
4.55,0.3994308076379137,91.24411073570738,0,60,1.0,3,0.32339084084017367
4.555,0.3959699661768434,88.50051791606685,0,60,1.0,3,0.2588357156721613
4.56,0.38944595408114946,86.27727400892925,0,60,1.0,3,0.20652409432774715
4.565,0.38001120995358023,84.55931872476093,0,60,1.0,3,0.1661016170531983
4.57,0.3678831374098315,83.3028005744429,0,60,1.0,3,0.13653648410453878
4.575,0.35333577933796634,82.44675842842192,0,60,1.0,3,0.1163943159628686
4.58,0.33668953221163944,81.9233555217599,0,60,1.0,3,0.10407895345317417
4.585,0.3182994390982644,81.6657405782961,0,60,1.0,3,0.09801742537167282
4.59,0.29854265738230645,81.61324823680155,0,60,1.0,3,0.0967823114541542
4.595,0.2778057157821067,81.71414190823803,0,60,1.0,3,0.09915628019383609
4.6,0.2564721553719815,81.92639917335062,0,60,1.0,3,0.10415056878472041
4.605,0.23491109433464996,82.21715152529522,0,60,1.0,3,0.1109918005951817
4.61,0.21346717185309805,82.56136080468661,0,60,1.0,3,0.11909084246321447
4.615,0.19245222055656455,82.94020128362216,0,60,1.0,3,0.12800473608522728
4.62,0.17213889801761392,83.33947177339249,0,60,1.0,3,0.13739933584452915
4.625,0.15275638501270183,83.74822470521731,0,60,1.0,3,0.14701705188746614
4.63,0.13448814019607322,84.1576901961562,0,60,1.0,3,0.1566515340272046
4.635,0.11747159495449566,84.56049942906901,0,60,1.0,3,0.16612939833103557
4.64,0.10179958433370105,84.95017025612171,0,60,1.0,3,0.17529812367345196
4.645,0.08752324394101413,85.32080099438407,0,60,1.0,3,0.18401884692668405
4.65,0.07465606047174059,85.66691715781909,0,60,1.0,3,0.19216275665456672
4.655,0.0631787448609295,85.98342289070791,0,60,1.0,3,0.19960995036959797
4.66,0.05304460019959574,86.26561884786955,0,60,1.0,3,0.20624985524398934
4.665,0.044185078305849994,86.50925808244908,0,60,1.0,3,0.21198254311644893
4.67,0.03651525513023255,86.71061970560895,0,60,1.0,3,0.21672046366138703
4.675,0.0299390014708757,86.86658630913784,0,60,1.0,3,0.22039026609736104
4.68,0.024353677220580638,86.97471559675341,0,60,1.0,3,0.22293448462949206
4.685,0.01965423034339045,87.03329977142683,0,60,1.0,3,0.22431293579827827
4.69,0.015736632374757337,87.04140840180983,0,60,1.0,3,0.2245037271014078
4.695,0.012500627640593535,86.99891208474476,0,60,1.0,3,0.2235038137587002
4.7,0.009851811652115898,86.90648547061232,0,60,1.0,3,0.22132906989676057
4.705,0.007703084175428559,86.76558926724239,0,60,1.0,3,0.21801386511158566
4.71,0.005975544002062424,86.5784317591195,0,60,1.0,3,0.2136101590381058
4.715,0.004598905818663047,86.34791119812435,0,60,1.0,3,0.20818614583822
4.72,0.0035115256454839104,86.07754113966531,0,60,1.0,3,0.20182449740388975
4.725,0.002660121266303676,85.77136140052126,0,60,1.0,3,0.19462026824755901
4.73,0.0019992692560877024,85.43383778522907,0,60,1.0,3,0.18667853612303703
4.735,0.0014907520044639367,85.06975405182008,0,60,1.0,3,0.1781118600428255
4.74,0.0011028178277539807,84.68409975610096,0,60,1.0,3,0.16903764132002266
4.745,0.0008094059938923333,84.2819576246531,0,60,1.0,3,0.15957547352124948
4.75,0.0005893771793717645,83.86839396614698,0,60,1.0,3,0.14984456390934076
4.755,0.0004257792353490551,83.44835535165316,0,60,1.0,3,0.13996130239183913
4.76,0.0003051686392901525,83.02657439701731,0,60,1.0,3,0.13003704463570148
4.765,0.00021699992642659966,82.6074869887465,0,60,1.0,3,0.12017616444109415
4.77,0.00015308884054097838,82.19516273734413,0,60,1.0,3,0.11047441734927374
4.775,0.00010714989329311098,81.7932498483948,0,60,1.0,3,0.1010176434916422
4.78,7.440535854020571e-05,81.40493500158567,0,60,1.0,3,0.09188082356672166
4.785,5.1260276743925106e-05,81.03291824914021,0,60,1.0,3,0.08312748821506374
4.79,3.503659887882241e-05,80.6794024125245,0,60,1.0,3,0.07480946852998814
4.795,2.375894748103639e-05,80.34609599014749,0,60,1.0,3,0.06696696447405857
4.8,1.5984413869232557e-05,80.03422820440662,0,60,1.0,3,0.05962889892721451
4.805,1.0669166579899869e-05,79.74457452363798,0,60,1.0,3,0.05281351820324657
4.81,7.06526633560511e-06,79.4774907976045,0,60,1.0,3,0.04652919523775301
4.815,4.641847214699205e-06,79.23295404316598,0,60,1.0,3,0.04077538925096412
4.82,3.025641074479182e-06,79.01060790415472,0,60,1.0,4,0.035543715391875876
4.825,1.9566278676921314e-06,78.80981087682954,0,60,1.0,4,0.030819079454812815
4.83,1.2553456560008793e-06,78.62968552729907,0,60,1.0,4,0.0265808359364488
4.835,7.990660428214668e-07,78.4691671158064,0,60,1.0,4,0.022803932136621168
4.84,5.046221251618276e-07,78.32705026967079,0,60,1.0,4,0.01946000634519511
4.845,3.1616527078858815e-07,78.2020325969465,0,60,1.0,4,0.01651841404579988
4.85,1.9652884407760343e-07,78.0927543922857,0,60,1.0,4,0.013947162171428197
4.855,1.2120002189836396e-07,77.99783384238104,0,60,1.0,4,0.011713737467789209
4.86,7.415549848886236e-08,77.91589737998032,0,60,1.0,4,0.009785820705419343
4.865,4.501406988770349e-08,77.84560505434425,0,60,1.0,4,0.008131883631629347
4.87,0.0,77.78567097606587,0,60,1.0,4,0.006721670025079367
4.875,0.0,77.73487905164139,0,60,1.0,4,0.0055265659209737805
4.88,0.0,77.69209434649721,0,60,1.0,4,0.004519866976405036
4.885,0.0,77.65627050466959,0,60,1.0,4,0.0036769530510492344
4.89,0.0,77.62645371089663,0,60,1.0,4,0.0029753814328618024
4.895,0.0,77.60178370962433,0,60,1.0,4,0.0023949108146900794
4.9,0.0,77.58149239927823,0,60,1.0,4,0.0019174682183113552
4.905,0.0,77.5649005035173,0,60,1.0,4,0.001527070670995138
4.91,0.0,77.55141278863067,0,60,1.0,4,0.001209712673662847
4.915,0.0,77.5405122522104,0,60,1.0,4,0.0009532294637742379
4.92,0.0,77.53175365686594,0,60,1.0,4,0.0007471448674339974
4.925,0.0,77.5247567276939,0,60,1.0,4,0.0005825112398564242
4.93,0.0,77.51919927656837,0,60,1.0,4,0.0004517476839616981
4.935,0.0,77.51481046255032,0,60,1.0,4,0.0003484814717721212
4.94,0.0,77.51136434769356,0,60,1.0,4,0.0002673964163190088
4.945,0.0,77.50867386254117,0,60,1.0,4,0.00020409088332170916
4.95,0.0,77.50658525642717,0,60,1.0,4,0.0001549472100511112
4.955,0.0,77.50497307465665,0,60,1.0,4,0.00011701352133286491
4.96,0.0,77.50373567769842,0,60,1.0,4,8.78982987862454e-05
4.965,0.0,77.50279129638474,0,60,1.0,4,6.567756199394674e-05
4.97,0.0,77.50207460126839,0,60,1.0,4,4.88141474915317e-05
4.975,0.0,77.50153375311476,0,60,1.0,4,3.608830858250739e-05
4.98,0.0,77.50112789431837,0,60,1.0,4,2.653868984406044e-05
4.985,0.0,77.50082503712781,0,60,1.0,4,1.9412638301432976e-05
4.99,0.0,77.50060030327039,0,60,1.0,4,1.4124782832676133e-05
4.995,0.0,77.50043447026465,0,60,1.0,4,1.022282975648469e-05
5.0,0.0,77.50031278184728,0,60,1.0,4,7.35957287728899e-06
5.005,0.0,77.50022398305025,0,60,1.0,4,5.270189417588507e-06
5.01,0.0,77.50015954415629,0,60,1.0,4,3.753980147995903e-06
5.015,0.0,77.50011304172635,0,60,1.0,4,2.659805325907548e-06
5.02,0.0,77.50007966889501,0,60,1.0,4,1.8745622355709203e-06
5.025,0.0,77.50005585099808,0,60,1.0,4,1.3141411313079194e-06
5.03,0.0,77.50003894621133,0,60,1.0,4,9.163814431357263e-07
5.035,0.0,77.50002701416986,0,60,1.0,4,6.356275261008276e-07
5.04,0.0,77.50001863846614,0,60,1.0,4,4.3855214458102745e-07
5.045,0.001684486749771458,77.50001279148142,0,60,1.0,4,3.00976033512972e-07
5.05,0.003097557930867117,77.50000873219956,0,60,1.0,4,2.0546351907689635e-07
5.055,0.005475106668887023,77.5000059295071,0,60,1.0,4,1.3951781404423802e-07
5.06,0.00930222931468658,77.50000400502901,0,60,1.0,4,9.42359767631227e-08
5.065,0.01519157517868857,77.50000269082139,0,60,1.0,4,6.331344446366797e-08
5.07,0.023847336626128316,77.50000179827543,0,60,1.0,4,4.231236316092477e-08
5.075,0.0359830743700859,77.5000011954177,0,60,1.0,4,2.8127475188204484e-08
5.08,0.05218887796857759,77.50000079045161,0,60,1.0,4,1.8598861368659796e-08
5.085,0.0727577001223134,77.50000051990384,0,60,1.0,4,1.2233031424436965e-08
5.09,0.0974992498694751,77.50000034014406,0,60,1.0,4,8.003389532806229e-09
5.095,0.12558706050443358,77.50000022135784,0,60,1.0,4,5.208419692922582e-09
5.1,0.15549263588878245,77.50000014329103,0,60,1.0,4,3.3715537028911058e-09
5.105,0.1850529723539114,77.50000009226464,0,60,1.0,4,2.170932756438132e-09
5.11,0.21169159439317053,77.50000005909403,0,60,1.0,4,1.3904478718733812e-09
5.115,0.23277292922115492,77.5000000376482,0,60,1.0,4,8.858401489466333e-10
5.12,0.24602692519491282,77.50000002385815,0,60,1.0,4,5.613682172706296e-10
5.125,0.24995056064839283,77.50000001503909,0,60,1.0,4,3.538609823461978e-10
5.13,0.24408826520424054,77.50000000942971,0,60,1.0,4,2.2187557934718345e-10
5.135,0.22911894216865275,77.50000000588122,0,60,1.0,4,1.3838162511306377e-10
5.14,0.20672661788705934,77.50000000364862,0,60,1.0,4,8.58499467593741e-11
5.145,0.17928878030241233,77.50000000225155,0,60,1.0,4,5.297773200522095e-11
5.15,0.14946211903866036,77.50000000138206,0,60,1.0,4,3.25191168111119e-11
5.155,0.1197651512573837,77.50000000084385,0,60,1.0,4,1.985540620808024e-11
5.16,0.09224675744988023,77.5000000005125,0,60,1.0,4,1.2058829751742238e-11
5.165,0.06829565320281596,77.50000000030961,0,60,1.0,4,7.28498568659073e-12
5.17,0.04860224607515734,77.50000000018605,0,60,1.0,4,4.377611998386462e-12
5.175,0.03324612389699793,77.50000000011121,0,60,1.0,4,2.6168035059099033e-12
5.18,0.021859876340472782,77.50000000006612,0,60,1.0,4,1.5558378115255276e-12
5.185,0.01381595518554205,77.50000000003911,0,60,1.0,4,9.20194639440845e-13
5.19,0.008394095110402422,77.50000000002301,0,60,1.0,4,5.413499713861657e-13
5.195,0.0049052535271608,77.50000000001346,0,60,1.0,4,3.1665128035991287e-13
5.2,0.0027671663551903634,77.50000000000783,0,60,1.0,4,1.8423955171944245e-13
5.205,0.0015425553464444616,77.50000000000453,0,60,1.0,4,1.0666500362704563e-13
5.21,0.0009638206637011801,77.50000000000261,0,60,1.0,4,6.152464159052161e-14
5.215,0.0009804935156568228,77.50000000000149,0,60,1.0,4,3.510917047285201e-14
5.22,0.0018793744894085216,77.50000000000085,0,60,1.0,4,2.0062383127344007e-14
5.225,0.004535525206900863,77.50000000000048,0,60,1.0,4,1.1368683772161604e-14
5.23,0.010832767979632273,77.50000000000027,0,60,1.0,4,6.353087990325602e-15
5.235,0.024208003392322392,77.50000000000016,0,60,1.0,4,3.678103573346401e-15
5.24,0.0500971897335304,77.50000000000009,0,60,1.0,4,2.0062383127344005e-15
5.245,0.09582894921774403,77.50000000000004,0,60,1.0,4,1.0031191563672002e-15
5.25,0.16937896721820658,77.50000000000003,0,60,1.0,4,6.687461042448002e-16
5.255,0.27661303008991756,77.50000000000001,0,60,1.0,4,3.343730521224001e-16
5.26,0.4173782800009149,77.50000000000001,0,60,1.0,4,3.343730521224001e-16
5.265,0.5818720934538056,77.5,0,60,1.0,4,0.0
5.27,0.7494718801585675,77.5,0,60,1.0,4,0.0
5.275,0.891813020752378,77.5,0,60,1.0,4,0.0
5.28,0.9800361632936612,77.5,0,60,1.0,4,0.0
5.285,0.993574479225126,77.50000249729354,1,60,1.0,4,5.875984791547286e-08
5.29,0.9263438449375362,77.50000393227262,0,60,1.0,4,9.25240616358197e-08
5.295,0.7873015962290536,77.50000634326607,0,60,1.0,4,1.4925331918354512e-07
5.3,0.5959516244629897,77.50001061853068,0,60,1.0,4,2.498477807180547e-07
5.305,0.376910120078773,77.50001866333935,0,60,1.0,4,4.391373963966651e-07
5.31,0.15739335672107918,77.5000346400049,0,60,1.0,4,8.150589387830277e-07
5.315,-0.033361226269301235,77.50006764856651,0,60,1.0,4,1.5917309767968726e-06
5.32,-0.1680180840843834,77.50013735562356,0,60,1.0,4,3.2318970250558136e-06
5.325,-0.23069703190837854,77.50028544051958,0,60,1.0,4,6.7162475194409665e-06
5.33,-0.22587267821131068,77.500598088742,0,60,1.0,4,1.4072676282239627e-05
5.335,-0.17718181630665902,77.5012486355544,0,60,1.0,4,2.9379660103626627e-05
5.34,-0.11494332516451301,77.50257543369767,0,60,1.0,4,6.0598439945218105e-05
5.345,-0.061810214049552864,77.50521857085394,0,60,1.0,4,0.00012278990244567466
5.35,-0.026546104631500547,77.51035022511448,0,60,1.0,4,0.0002435347085759745
5.355,-0.00719600351942686,77.52004622347734,0,60,1.0,4,0.00047167584652557334
5.36,0.0022072757983807078,77.53785797415782,0,60,1.0,4,0.0008907758625368575
5.365,0.006917199873730717,77.56964902320131,0,60,1.0,4,0.0016388005459131204
5.37,0.01004859748264829,77.62475069237783,0,60,1.0,4,0.0029353104088901253
5.375,0.013037082251128167,77.71745577339965,0,60,1.0,4,0.005116606432932927
5.38,0.01645163937690478,77.86879695371151,0,60,1.0,4,0.008677575381447282
5.385,0.020526639934696615,78.10844035963862,0,60,1.0,4,0.014316243756202846
5.39,0.02539629541761738,78.47636733926622,0,60,1.0,4,0.02297334915920514
5.395,0.031171612185577933,79.02383946781148,0,60,1.0,4,0.03585504630144669
5.4,0.03795853426638131,79.81298480498413,0,60,1.0,4,0.054423171881979426
5.405,0.0458588961882057,80.91427084037524,0,60,1.0,4,0.08033578447941736
5.41,0.054966995891435555,82.40121542205652,0,60,1.0,4,0.11532271581309467
5.415,0.06536491004445595,84.34199522017235,0,60,1.0,4,0.1609881228275847
5.42,0.07711726085088699,86.78816642223576,0,60,1.0,4,0.21854509228790026
5.425,0.09026570629555215,89.7614698877538,0,60,1.0,4,0.2885051738295013
5.43,0.10482339848670268,93.24052207061501,0,60,1.0,4,0.3703652251909415
5.435,0.12076968927580028,97.14988444916018,0,60,1.0,4,0.4623502223331808
5.44,0.13804539501007884,101.35431154880669,0,60,1.0,4,0.5612779187954515
5.445,0.15654895051787066,105.66068807456148,0,60,1.0,4,0.6626044252837995
5.45,0.17613378141900526,109.82918294110652,0,60,1.0,4,0.7606866574378005
5.455,0.19660720058055794,113.59355865930326,0,60,1.0,4,0.8492602037483119
5.46,0.21773108748496234,116.6886667904499,0,60,1.0,4,0.9220862774223506
5.465,0.23922453870058807,118.88137576601841,0,60,1.0,4,0.9736794297886684
5.47,0.2607685857914563,120.0,0,60,1.0,4,1.0
5.475,0.2820129681603682,119.95710897620492,0,60,1.0,4,0.9989907994401158
5.48,0.30258482867153996,118.7615370490011,0,60,1.0,4,0.9708596952706142
5.485,0.3220990771751686,116.51733188460247,0,60,1.0,4,0.9180548678729993
5.49,0.3401700499968971,113.40983908257753,0,60,1.0,4,0.844937390178295
5.495,0.3564239911198326,109.68153227755616,0,60,1.0,4,0.757212524177792
5.5,0.3705118017738417,105.60198566964596,0,60,1.0,4,0.6612231922269637
5.505,0.3821214567925213,101.4371540045614,0,60,1.0,4,0.5632271530485037
5.51,0.39098947374066967,97.422764291288,0,60,1.0,4,0.4687709245008942
5.515,0.3969108472035567,93.74532237651536,0,60,1.0,4,0.38224287944742025
5.52,0.3997469255491936,90.53240175874944,0,60,1.0,4,0.3066447472646928
5.525,0.3994308076379137,87.85199809938081,0,60,1.0,4,0.24357642586778372
5.53,0.3959699661768434,85.71922450867264,0,60,1.0,4,0.1933935178511209
5.535,0.38944595408114946,84.10774793473297,0,60,1.0,4,0.15547642199371695
5.54,0.38001120995358023,82.96318113142691,0,60,1.0,4,0.12854543838651547
5.545,0.3678831374098315,82.21602810766474,0,60,1.0,4,0.11096536723917037
5.55,0.35333577933796634,81.79251012512853,0,60,1.0,4,0.10100023823831834
5.555,0.33668953221163944,81.62242952229444,0,60,1.0,4,0.09699834170104563
5.56,0.3182994390982644,81.64396106938082,0,60,1.0,4,0.09750496633837229
5.565,0.29854265738230645,81.80577806979818,0,60,1.0,4,0.10131242517172187
5.57,0.2778057157821067,82.0671908817687,0,60,1.0,4,0.10746331486514578
5.575,0.2564721553719815,82.3970316464962,0,60,1.0,4,0.11522427403520477
5.58,0.23491109433464996,82.77192809116943,0,60,1.0,4,0.12404536685104538
5.585,0.21346717185309805,83.1744448392447,0,60,1.0,4,0.1335163491586988
5.59,0.19245222055656455,83.59139300208605,0,60,1.0,4,0.1433268941667306
5.595,0.17213889801761392,84.0124564670148,0,60,1.0,4,0.15323426981211294
5.6,0.15275638501270183,84.42917328586134,0,60,1.0,4,0.1630393714320315
5.605,0.13448814019607322,84.83424390403286,0,60,1.0,4,0.1725704448007732
5.61,0.11747159495449566,85.22110653223218,0,60,1.0,4,0.1816730948760514
5.615,0.10179958433370105,85.58371248503667,0,60,1.0,4,0.19020499964792167
5.62,0.08752324394101413,85.91644030794227,0,60,1.0,4,0.19803388959864157
5.625,0.07465606047174059,86.21409913961364,0,60,1.0,4,0.20503762681443852
5.63,0.0631787448609295,86.47198412748827,0,60,1.0,4,0.21110550888207694
5.635,0.05304460019959574,86.68595740280897,0,60,1.0,4,0.2161401741837404
5.64,0.044185078305849994,86.85253634861876,0,60,1.0,4,0.22005967879102956
5.645,0.03651525513023255,86.96897679592873,0,60,1.0,4,0.22279945402185236
5.65,0.0299390014708757,87.03334286760078,0,60,1.0,4,0.2243139498259007
5.655,0.024353677220580638,87.04455801855013,0,60,1.0,4,0.2245778357305914
5.66,0.01965423034339045,87.00243386008354,0,60,1.0,4,0.22358667906078922
5.665,0.015736632374757337,86.90767493113825,0,60,1.0,4,0.22135705720325283
5.67,0.012500627640593535,86.76185888714967,0,60,1.0,4,0.2179260914623452
5.675,0.009851811652115898,86.56739271881541,0,60,1.0,4,0.2133504169133038
5.68,0.007703084175428559,86.32744662507005,0,60,1.0,4,0.20770462647223653
5.685,0.005975544002062424,86.04586804742218,0,60,1.0,4,0.2010792481746394
5.69,0.004598905818663047,85.72707910938607,0,60,1.0,4,0.19357833198555455
5.695,0.0035115256454839104,85.3759612733947,0,60,1.0,4,0.18531673584458103
5.7,0.002660121266303676,84.99773140981047,0,60,1.0,4,0.1764172096425993
5.705,0.0019992692560877024,84.59781365754361,0,60,1.0,4,0.16700738017749672
5.71,0.0014907520044639367,84.1817114421235,0,60,1.0,4,0.1572167398146706
5.715,0.0011028178277539807,83.75488381385719,0,60,1.0,4,0.14717373679663978
5.72,0.0008094059938923333,83.3226298946003,0,60,1.0,4,0.1370030563435364
5.725,0.0005893771793717645,82.88998470356078,0,60,1.0,4,0.12682316949554787
5.73,0.0004257792353490551,82.46162900365687,0,60,1.0,4,0.11674421185074982
5.735,0.0003051686392901525,82.04181510746733,0,60,1.0,4,0.10686623782276068
5.74,0.00021699992642659966,81.63430984453429,0,60,1.0,4,0.09727787869492438
5.745,0.00015308884054097838,81.242355157684,0,60,1.0,4,0.08805541547491771
5.75,0.00010714989329311098,80.86864610012042,0,60,1.0,4,0.07926226117930388
5.755,7.440535854020571e-05,80.51532537751636,0,60,1.0,4,0.07094883241214969
5.76,5.1260276743925106e-05,80.18399304420547,0,60,1.0,4,0.06315277751071682
5.765,3.503659887882241e-05,79.87572953684843,0,60,1.0,4,0.055899518514080586
5.77,2.375894748103639e-05,79.59112992222373,0,60,1.0,4,0.04920305699349951
5.775,1.5984413869232557e-05,79.33034705046295,0,60,1.0,4,0.04306698942265758
5.78,1.0669166579899869e-05,79.09314123688262,0,60,1.0,4,0.037485676161943905
5.785,7.06526633560511e-06,78.87893413465613,0,60,1.0,4,0.032445509050732575
5.79,4.641847214699205e-06,78.68686459254717,0,60,1.0,4,0.02792622570699216
5.795,3.025641074479182e-06,78.51584449930009,0,60,1.0,4,0.023902223512943223
5.8,1.9566278676921314e-06,78.36461287981392,0,60,1.0,4,0.020343832466209855
5.805,1.2553456560008793e-06,78.23178680825401,0,60,1.0,4,0.017218513135388573
5.81,7.990660428214668e-07,78.115908020864,0,60,1.0,4,0.014491953432094066
5.815,5.046221251618276e-07,78.01548442923266,0,60,1.0,4,0.012129045393709582
5.82,3.1616527078858815e-07,77.9290260383968,0,60,1.0,4,0.0100947303152188
5.825,1.9652884407760343e-07,77.85507505159521,0,60,1.0,4,0.008354707096357822
5.83,1.2120002189836396e-07,77.79223018604874,0,60,1.0,4,0.006876004377617432
5.835,7.415549848886236e-08,77.73916542629568,0,60,1.0,4,0.005627421795192584
5.84,4.501406988770349e-08,77.69464360077374,0,60,1.0,4,0.004579849429970462
5.845,0.0,77.65752528354044,0,60,1.0,4,0.0037064772597749894
5.85,0.0,77.62677359845337,0,60,1.0,4,0.002982908198902792
5.855,0.0,77.60145554165466,0,60,1.0,4,0.00238718921540373
5.86,0.0,77.58074044483718,0,60,1.0,4,0.0018997751726394254
5.865,0.0,77.56389618220217,0,60,1.0,4,0.00150343958122756
5.87,0.0,77.55028368416444,0,60,1.0,4,0.001183145509751552
5.875,0.0,77.53935026650197,0,60,1.0,4,0.0009258886235757553
5.88,0.0,77.53062222013041,0,60,1.0,4,0.0007205228265979044
5.885,0.0,77.52369703872787,0,60,1.0,4,0.0005575773818323422
5.89,0.0,77.51823559299608,0,60,1.0,4,0.0004290727763783011
5.895,0.0,77.51395449456273,0,60,1.0,4,0.00032834104853470626
5.9,0.0,77.5106188317357,0,60,1.0,4,0.00024985486436936724
5.905,0.0,77.5080354050833,0,60,1.0,4,0.00018906835490129731
5.91,0.0,77.50604654403189,0,60,1.0,4,0.0001422716242797485
5.915,0.0,77.50452454666993,0,60,1.0,4,0.00010645992164534298
5.92,0.0,77.5033667535964,0,60,1.0,4,7.921773167989908e-05
5.925,0.0,77.50249124248262,0,60,1.0,4,5.861747017928899e-05
5.93,0.0,77.50183311232645,0,60,1.0,4,4.313205474003927e-05
5.935,0.0,77.50134131432361,0,60,1.0,4,3.156033702613486e-05
5.94,0.0,77.50097597895923,0,60,1.0,4,2.296421080546572e-05
5.945,0.0,77.50070618543435,0,60,1.0,4,1.6616127867136504e-05
5.95,0.0,77.50050811903469,0,60,1.0,4,1.1955741992738588e-05
5.955,0.0,77.50036356375567,0,60,1.0,4,8.554441309878016e-06
5.96,0.0,77.5002586807467,0,60,1.0,4,6.086605804632521e-06
5.965,0.0,77.5001830273698,0,60,1.0,4,4.30652634824636e-06
5.97,0.0,77.50012877642952,0,60,1.0,4,3.030033635762747e-06
5.975,0.0,77.50009010007003,0,60,1.0,4,2.120001647654135e-06
5.98,0.0,77.50006268769272,0,60,1.0,4,1.475004534554233e-06
5.985,0.0,77.50004337184035,0,60,1.0,4,1.0205138905535826e-06
5.99,0.0,77.50002984020645,0,60,1.0,4,7.021225047430883e-07
5.995,0.001684486749771458,77.50002041569667,0,60,1.0,4,4.80369333351572e-07
6.0,0.003097557930867117,77.50001388976806,0,60,1.0,4,3.2681807189927736e-07
6.005,0.005475106668887023,77.5000093971074,0,60,1.0,4,2.2110840953192724e-07
6.01,0.00930222931468658,77.50000632210633,0,60,1.0,4,1.487554430589037e-07
6.015,0.01519157517868857,77.5000042295855,0,60,1.0,4,9.951965881448225e-08
6.02,0.023847336626128316,77.50000281385834,0,60,1.0,4,6.620843163652941e-08
6.025,0.0359830743700859,77.50000186155152,0,60,1.0,5,4.380121234081504e-08
6.03,0.05218887796857759,77.50000122466216,0,60,1.0,5,2.8815580154674963e-08
6.035,0.0727577001223134,77.50000080117233,0,60,1.0,5,1.885111373667314e-08
6.04,0.0974992498694751,77.50000052119951,0,60,1.0,5,1.2263517887464225e-08
6.045,0.12558706050443358,77.50000033717119,0,60,1.0,5,7.933439693421378e-09
6.05,0.15549263588878245,77.50000021690289,0,60,1.0,5,5.103597419185783e-09
6.055,0.1850529723539114,77.50000013875498,0,60,1.0,5,3.264823162145844e-09
6.06,0.21169159439317053,77.50000008826738,0,60,1.0,5,2.0768796355910393e-09
6.065,0.23277292922115492,77.50000005583678,0,60,1.0,5,1.313806558969458e-09
6.07,0.24602692519491282,77.5000000351244,0,60,1.0,5,8.264564980088514e-10
6.075,0.24995056064839283,77.5000000219718,0,60,1.0,5,5.169835383319022e-10
6.08,0.24408826520424054,77.50000001366756,0,60,1.0,5,3.215896359667086e-10
6.085,0.22911894216865275,77.50000000845444,0,60,1.0,5,1.9892789115307524e-10
6.09,0.20672661788705934,77.50000000520052,0,60,1.0,5,1.223651559164008e-10
6.095,0.17928878030241233,77.5000000031811,0,60,1.0,5,7.484940771759926e-11
6.1,0.14946211903866036,77.50000000193498,0,60,1.0,5,4.552890352309024e-11
6.105,0.1197651512573837,77.50000000117042,0,60,1.0,5,2.7539298945852995e-11
6.11,0.09224675744988023,77.500000000704,0,60,1.0,5,1.6564841002143702e-11
6.115,0.06829565320281596,77.5000000004211,0,60,1.0,5,9.90814228049096e-12
6.12,0.04860224607515734,77.50000000025047,0,60,1.0,5,5.893325043657301e-12
6.125,0.03324612389699793,77.50000000014815,0,60,1.0,5,3.4858390683760207e-12
6.13,0.021859876340472782,77.50000000008714,0,60,1.0,5,2.0503755556145573e-12
6.135,0.01381595518554205,77.50000000005096,0,60,1.0,5,1.1990617649109267e-12
6.14,0.008394095110402422,77.50000000002964,0,60,1.0,5,6.975021867273266e-13
6.145,0.0049052535271608,77.50000000001714,0,60,1.0,5,4.032539008596145e-13
6.15,0.0027671663551903634,77.50000000000986,0,60,1.0,5,2.3205489817294564e-13
6.155,0.0015425553464444616,77.50000000000564,0,60,1.0,5,1.3274610169259284e-13
6.16,0.0009638206637011801,77.50000000000321,0,60,1.0,5,7.556830977966242e-14
6.165,0.0009804935156568228,77.50000000000182,0,60,1.0,5,4.279975067166721e-14
6.17,0.0018793744894085216,77.50000000000102,0,60,1.0,5,2.4074859752812806e-14
6.175,0.004535525206900863,77.50000000000057,0,60,1.0,5,1.3374922084896003e-14
6.18,0.010832767979632273,77.50000000000031,0,60,1.0,5,7.356207146692803e-15
6.185,0.024208003392322392,77.50000000000017,0,60,1.0,5,4.012476625468801e-15
6.19,0.0500971897335304,77.5000000000001,0,60,1.0,5,2.3406113648568006e-15
6.195,0.09582894921774403,77.50000000000006,0,60,1.0,5,1.3374922084896003e-15
6.2,0.16937896721820658,77.50000000000003,0,60,1.0,5,6.687461042448002e-16
6.205,0.27661303008991756,77.50000000000001,0,60,1.0,5,3.343730521224001e-16
6.21,0.4173782800009149,77.50000000000001,0,60,1.0,5,3.343730521224001e-16
6.215,0.5818720934538056,77.5,0,60,1.0,5,0.0
6.22,0.7494718801585675,77.5,0,60,1.0,5,0.0
6.225,0.891813020752378,77.5,0,60,1.0,5,0.0
6.23,0.9800361632936612,77.5,0,60,1.0,5,0.0
6.235,0.993574479225126,77.50000249065474,1,60,1.0,5,5.860364086295115e-08
6.24,0.9263438449375362,77.50000381481783,0,60,1.0,5,8.976041954156244e-08
6.245,0.7873015962290536,77.50000596523532,0,60,1.0,5,1.4035847805323155e-07
6.25,0.5959516244629897,77.50000962503476,0,60,1.0,5,2.2647140620874244e-07
6.255,0.376910120078773,77.50001618917643,0,60,1.0,5,3.809217984700594e-07
6.26,0.15739335672107918,77.5000285614158,0,60,1.0,5,6.720333130140395e-07
6.265,-0.033361226269301235,77.50005280883279,0,60,1.0,5,1.2425607715559796e-06
6.27,-0.1680180840843834,77.50010151190543,0,60,1.0,5,2.388515421818524e-06
6.275,-0.23069703190837854,77.50020036214238,0,60,1.0,5,4.714403350108649e-06
6.28,-0.22587267821131068,77.50040077561245,0,60,1.0,5,9.430014410541202e-06
6.285,-0.17718181630665902,77.50080326727193,0,60,1.0,5,1.8900406398442475e-05
6.29,-0.11494332516451301,77.50159937912407,0,60,1.0,5,3.763244997819182e-05
6.295,-0.061810214049552864,77.50314438198903,0,60,1.0,5,7.398545856544308e-05
6.3,-0.026546104631500547,77.5060789517361,0,60,1.0,5,0.00014303415849647481
6.305,-0.00719600351942686,77.5115253796782,0,60,1.0,5,0.00027118540419304043
6.31,0.0022072757983807078,77.5213917627598,0,60,1.0,5,0.0005033355943483537
6.315,0.006917199873730717,77.53882411894206,0,60,1.0,5,0.0009135086809896406
6.32,0.01004859748264829,77.56884815932884,0,60,1.0,5,0.0016199566900902884
6.325,0.013037082251128167,77.6192346558676,0,60,1.0,5,0.002805521314531782
6.33,0.01645163937690478,77.70159894500465,0,60,1.0,5,0.004743504588344649
6.335,0.020526639934696615,77.83270008287926,0,60,1.0,5,0.007828237244217797
6.34,0.02539629541761738,78.03583465142736,0,60,1.0,5,0.012607874151232115
6.345,0.031171612185577933,78.34212553437393,0,60,1.0,5,0.019814718455857288
6.35,0.03795853426638131,78.79139701937089,0,60,1.0,5,0.030385812220491543
6.355,0.0458588961882057,79.43222533468237,0,60,1.0,5,0.045464125521938153
6.36,0.054966995891435555,80.32069048739088,0,60,1.0,5,0.06636918793860887
6.365,0.06536491004445595,81.5173707975343,0,60,1.0,5,0.09452637170668936
6.37,0.07711726085088699,83.08225427174436,0,60,1.0,5,0.13134715933516145
6.375,0.09026570629555215,85.06751487992965,0,60,1.0,5,0.17805917364540344
6.38,0.10482339848670268,87.50851138218808,0,60,1.0,5,0.23549438546324883
6.385,0.12076968927580028,90.41386466435996,0,60,1.0,5,0.3038556391614109
6.39,0.13804539501007884,93.75596504105044,0,60,1.0,5,0.38249329508353985
6.395,0.15654895051787066,97.4636280918179,0,60,1.0,5,0.4697324256898328
6.4,0.17613378141900526,101.41872257270964,0,60,1.0,5,0.5627934722990504
6.405,0.19660720058055794,105.45833242352343,0,60,1.0,5,0.6578431158476101
6.41,0.21773108748496234,109.38335163215552,0,60,1.0,5,0.7501965089918947
6.415,0.23922453870058807,112.9734084393601,0,60,1.0,5,0.8346684338672965
6.42,0.2607685857914563,116.00683982528938,0,60,1.0,5,0.9060432900068088
6.425,0.2820129681603682,118.28333120453613,0,60,1.0,5,0.9596077930479089
6.43,0.30258482867153996,119.646064803065,0,60,1.0,5,0.9916721130132942
6.435,0.3220990771751686,120.0,0,60,1.0,5,1.0
6.44,0.3401700499968971,119.32334270778719,0,60,1.0,5,0.9840786519479339
6.445,0.3564239911198326,117.6702984466819,0,60,1.0,5,0.9451834928631034
6.45,0.3705118017738417,115.1646448291192,0,60,1.0,5,0.8862269371557459
6.455,0.3821214567925213,111.9851997850634,0,60,1.0,5,0.8114164655309035
6.46,0.39098947374066967,108.34557221481842,0,60,1.0,5,0.7257781697604334
6.465,0.3969108472035567,104.47139174943496,0,60,1.0,5,0.634620982339646
6.47,0.3997469255491936,100.57838099842344,0,60,1.0,5,0.5430207293746692
6.475,0.3994308076379137,96.85417087272945,0,60,1.0,5,0.45539225582892834
6.48,0.3959699661768434,93.44582268957237,0,60,1.0,5,0.37519582798993806
6.485,0.38944595408114946,90.45385471397468,0,60,1.0,5,0.30479658150528655
6.49,0.38001120995358023,87.93243962502166,0,60,1.0,5,0.24546916764756843
6.495,0.3678831374098315,85.89455992933536,0,60,1.0,5,0.19751905716083196
6.5,0.35333577933796634,84.32040601189054,0,60,1.0,5,0.160480141456248
6.505,0.33668953221163944,83.16719725117376,0,60,1.0,5,0.13334581767467674
6.51,0.3182994390982644,82.37883285219493,0,60,1.0,5,0.114796067110469
6.515,0.29854265738230645,81.89421459224894,0,60,1.0,5,0.10339328452350455
6.52,0.2778057157821067,81.65359406235096,0,60,1.0,5,0.09773162499649321
6.525,0.2564721553719815,81.60276811068044,0,60,1.0,5,0.09653572025130455
6.53,0.23491109433464996,81.6953041114732,0,60,1.0,5,0.0987130379170166
6.535,0.21346717185309805,81.89319219750705,0,60,1.0,5,0.10336922817663642
6.54,0.19245222055656455,82.16640283127366,0,60,1.0,5,0.10979771367702724
6.545,0.17213889801761392,82.49180664386697,0,60,1.0,5,0.11745427397334036
6.55,0.15275638501270183,82.85182970057085,0,60,1.0,5,0.12592540471931402
6.555,0.13448814019607322,83.23310877819486,0,60,1.0,5,0.13489667713399672
6.56,0.11747159495449566,83.62530580186197,0,60,1.0,5,0.14412484239675222
6.565,0.10179958433370105,84.02015461343919,0,60,1.0,5,0.15341540266915737
6.57,0.08752324394101413,84.41075278688982,0,60,1.0,5,0.1626059479268192
6.575,0.07465606047174059,84.79107511020709,0,60,1.0,5,0.17155470847546092
6.58,0.0631787448609295,85.15566858139451,0,60,1.0,5,0.18013337838575313
6.585,0.05304460019959574,85.49948511358731,0,60,1.0,5,0.18822317914323086
6.59,0.044185078305849994,85.81781198508382,0,60,1.0,5,0.19571322317844286
6.595,0.03651525513023255,86.1062671685372,0,60,1.0,5,0.2025004039655812
6.6,0.0299390014708757,86.36083432317702,0,60,1.0,5,0.20849021936887097
6.605,0.024353677220580638,86.57791901100559,0,60,1.0,5,0.21359809437660213
6.61,0.01965423034339045,86.75441307651025,0,60,1.0,5,0.21775089591788815
6.615,0.015736632374757337,86.88775811124916,0,60,1.0,5,0.22088842614703896
6.62,0.012500627640593535,86.97600175641713,0,60,1.0,5,0.2229647472098149
6.625,0.009851811652115898,87.017842589161,0,60,1.0,5,0.2239492373920237
6.63,0.007703084175428559,87.012660771883,0,60,1.0,5,0.22382731227960015
6.635,0.005975544002062424,86.96053273007563,0,60,1.0,5,0.22260077011942653
6.64,0.004598905818663047,86.86222900437889,0,60,1.0,5,0.2202877412795033
6.645,0.0035115256454839104,86.719195178689,0,60,1.0,5,0.21692223949856484
6.65,0.002660121266303676,86.53351645798008,0,60,1.0,5,0.21255332842306082
6.655,0.0019992692560877024,86.30786706938648,0,60,1.0,5,0.20724393104438765
6.66,0.0014907520044639367,86.04544618487417,0,60,1.0,5,0.2010693219970392
6.665,0.0011028178277539807,85.74990250322291,0,60,1.0,5,0.19411535301700972
6.67,0.0008094059938923333,85.42524997119911,0,60,1.0,5,0.18647646991056724
6.675,0.0005893771793717645,85.0757773587906,0,60,1.0,5,0.17825358491272006
6.68,0.0004257792353490551,84.70595452519278,0,60,1.0,5,0.1695518711810066
6.685,0.0003051686392901525,84.32033821979824,0,60,1.0,5,0.160478546348194
6.69,0.00021699992642659966,83.92348015988665,0,60,1.0,5,0.1511407096443918
6.695,0.00015308884054097838,83.51983992315786,0,60,1.0,5,0.1416432923095967
6.7,0.00010714989329311098,83.11370490220835,0,60,1.0,5,0.13208717416960833
6.705,7.440535854020571e-05,82.70911920653026,0,60,1.0,5,0.12256751074188849
6.71,5.1260276743925106e-05,82.30982298507394,0,60,1.0,5,0.11317230553115143
6.715,3.503659887882241e-05,81.91920319962112,0,60,1.0,5,0.10398125175579112
6.72,2.375894748103639e-05,81.5402564270607,0,60,1.0,5,0.09506485710731052
6.725,1.5984413869232557e-05,81.1755638270808,0,60,1.0,5,0.0864838547548422
6.73,1.0669166579899869e-05,80.82727799879292,0,60,1.0,5,0.07828889408924523
6.735,7.06526633560511e-06,80.49712108066727,0,60,1.0,5,0.07052049601570047
6.74,4.641847214699205e-06,80.18639313486506,0,60,1.0,5,0.06320925023211899
6.745,3.025641074479182e-06,79.89598960793784,0,60,1.0,5,0.05637622606912554
6.75,1.9566278676921314e-06,79.6264264795071,0,60,1.0,5,0.050033564223696536
6.755,1.2553456560008793e-06,79.37787159987418,0,60,1.0,5,0.04418521411468666
6.76,7.990660428214668e-07,79.15018067413585,0,60,1.0,5,0.03882778056790244
6.765,5.046221251618276e-07,78.94293636900822,0,60,1.0,5,0.03395144397666406
6.77,3.1616527078858815e-07,78.75548909159917,0,60,1.0,5,0.029540919802333494
6.775,1.9652884407760343e-07,78.58699810755667,0,60,1.0,5,0.025576426060156872
6.78,1.2120002189836396e-07,78.43647181909245,0,60,1.0,5,0.022034631037469325
6.785,7.415549848886236e-08,78.30280620070539,0,60,1.0,5,0.018889557663656246
6.79,4.501406988770349e-08,78.18482058158935,0,60,1.0,5,0.01611342544916116
6.795,0.0,78.08129015900583,0,60,1.0,5,0.01367741550601957
6.8,0.0,77.99097481773615,0,60,1.0,5,0.011552348652615178
6.805,0.0,77.91264400989799,0,60,1.0,5,0.00970927082112914
6.81,0.0,77.84509761126496,0,60,1.0,5,0.008119943794469679
6.815,0.0,77.7871828107303,0,60,1.0,5,0.00675724260541883
6.82,0.0,77.73780720624384,0,60,1.0,5,0.005595463676325728
6.825,0.0,77.69594837242065,0,60,1.0,5,0.004610549939309294
6.83,0.0,77.66066023234221,0,60,1.0,5,0.0037802407609931646
6.835,0.0,77.63107661018051,0,60,1.0,5,0.00308415553365916
6.84,0.0,77.60641236432045,0,60,1.0,5,0.0025038203369517225
6.845,0.0,77.58596250536276,0,60,1.0,5,0.002022647185006075
6.85,0.0,77.56909969282334,0,60,1.0,5,0.0016258751252551332
6.855,0.0,77.55527048169948,0,60,1.0,5,0.0013004819223407166
6.86,0.0,77.54399065849753,0,60,1.0,5,0.0010350743175890516
6.865,0.0,77.53483996875943,0,60,1.0,5,0.0008197639708100724
6.87,0.0,77.52745649724005,0,60,1.0,5,0.0006460352291777086
6.875,0.0,77.52153091995265,0,60,1.0,5,0.000506609881238894
6.88,0.0,77.51680080618708,0,60,1.0,5,0.00039531308675477437
6.885,0.0,77.51304510977057,0,60,1.0,5,0.0003069437593076012
6.89,0.0,77.51007895333593,0,60,1.0,5,0.00023715184319846283
6.895,0.0,77.50774877787383,0,60,1.0,5,0.00018232418526655932
6.9,0.0,77.50592790273667,0,60,1.0,5,0.00013948006439230032
6.905,0.0,77.50451251862505,0,60,1.0,5,0.00010617690882467662
6.91,0.0,77.50341811780184,0,60,1.0,5,8.042630121983219e-05
6.915,0.0,77.50257635156204,0,60,1.0,5,6.062003675390984e-05
6.92,0.0,77.50193229444417,0,60,1.0,5,4.5465751627622974e-05
6.925,0.0,77.50144208734422,0,60,1.0,5,3.3931466922735235e-05
6.93,0.0,77.5010709270944,0,60,1.0,5,2.519828457419702e-05
6.935,0.0,77.50079136771336,0,60,1.0,5,1.862041678497703e-05
6.94,0.0,77.50058189795325,0,60,1.0,5,1.3691716547140567e-05
6.945,0.0,77.50042576054396,0,60,1.0,5,1.0017895152045373e-05
6.95,0.0,77.5003099802863,0,60,1.0,5,7.293653795373115e-06
6.955,0.0,77.50022457055825,0,60,1.0,5,5.284013135183962e-06
6.96,0.0,77.5001618906037,0,60,1.0,5,3.809190675450308e-06
6.965,0.0,77.5001161289628,0,60,1.0,5,2.7324461835659724e-06
6.97,0.0,77.50008289141098,0,60,1.0,5,1.950386140780371e-06
6.975,0.0,77.5000588746852,0,60,1.0,5,1.3852867104614074e-06
6.98,0.0,77.50004161000271,0,60,1.0,5,9.7905888731689e-07
6.985,0.0,77.50002926287357,0,60,1.0,5,6.885382015966838e-07
6.99,0.0,77.50002047794057,0,60,1.0,5,4.818338956791943e-07
6.995,0.0,77.50001425954493,0,60,1.0,5,3.3551870414532246e-07
7.0,0.0,77.50000988041381,0,60,1.0,5,2.3248032501963763e-07
7.005,0.001684486749771458,77.5000068123144,0,60,1.0,5,1.6028975049748088e-07
7.01,0.003097557930867117,77.50000467373745,0,60,1.0,5,1.0997029295033237e-07
7.015,0.005475106668887023,77.50000319068567,0,60,1.0,5,7.507495705367012e-08
7.02,0.00930222931468658,77.50000216747358,0,60,1.0,5,5.099937839879524e-08
7.025,0.01519157517868857,77.50000146512164,0,60,1.0,5,3.447345039496534e-08
7.03,0.023847336626128316,77.50000098547052,0,60,1.0,5,2.318754167497579e-08
7.035,0.0359830743700859,77.50000065957421,0,60,1.0,5,1.5519393226735273e-08
7.04,0.05218887796857759,77.50000043927226,0,60,1.0,5,1.0335817785958438e-08
7.045,0.0727577001223134,77.50000029110788,0,60,1.0,5,6.849597197929945e-09
7.05,0.0974992498694751,77.50000019196597,0,60,1.0,5,4.516846274782438e-09
7.055,0.12558706050443358,77.50000012596347,0,60,1.0,5,2.963846287350273e-09
7.06,0.15549263588878245,77.50000008224605,0,60,1.0,5,1.9352010921840486e-09
7.065,0.1850529723539114,77.5000000534362,0,60,1.0,5,1.2573222567666295e-09
7.07,0.21169159439317053,77.50000003454666,0,60,1.0,5,8.128625615748152e-10
7.075,0.23277292922115492,77.50000002222423,0,60,1.0,5,5.229230068567524e-10
7.08,0.24602692519491282,77.50000001422649,0,60,1.0,5,3.3474086247973474e-10
7.085,0.24995056064839283,77.50000000906188,0,60,1.0,5,2.1322066726604723e-10
7.09,0.24408826520424054,77.50000000574367,0,60,1.0,5,1.3514522834157106e-10
7.095,0.22911894216865275,77.50000000362252,0,60,1.0,5,8.523570346262525e-11
7.1,0.20672661788705934,77.50000000227342,0,60,1.0,5,5.349233213243732e-11
7.105,0.17928878030241233,77.50000000141972,0,60,1.0,5,3.3405205399236256e-11
7.11,0.14946211903866036,77.50000000088221,0,60,1.0,5,2.0757879075758598e-11
7.115,0.1197651512573837,77.5000000005455,0,60,1.0,5,1.283524397877045e-11
7.12,0.09224675744988023,77.50000000033563,0,60,1.0,5,7.897222745026846e-12
7.125,0.06829565320281596,77.50000000020549,0,60,1.0,5,4.8350343336899055e-12
7.13,0.04860224607515734,77.50000000012518,0,60,1.0,5,2.9454922161462225e-12
7.135,0.03324612389699793,77.50000000007589,0,60,1.0,5,1.7855520983336164e-12
7.14,0.021859876340472782,77.50000000004577,0,60,1.0,5,1.0770156008862506e-12
7.145,0.01381595518554205,77.50000000002747,0,60,1.0,5,6.463431097525994e-13
7.15,0.008394095110402422,77.50000000001641,0,60,1.0,5,3.862008752013721e-13
7.155,0.0049052535271608,77.50000000000975,0,60,1.0,5,2.2937991375596645e-13
7.16,0.0027671663551903634,77.50000000000577,0,60,1.0,5,1.3575545916169443e-13
7.165,0.0015425553464444616,77.5000000000034,0,60,1.0,5,7.991515945725361e-14
7.17,0.0009638206637011801,77.50000000000199,0,60,1.0,5,4.681222729713601e-14
7.175,0.0009804935156568228,77.50000000000115,0,60,1.0,5,2.7084217221914406e-14
7.18,0.0018793744894085216,77.50000000000067,0,60,1.0,5,1.5715533449752805e-14
7.185,0.004535525206900863,77.50000000000038,0,60,1.0,5,9.028072407304802e-15
7.19,0.010832767979632273,77.50000000000023,0,60,1.0,5,5.349968833958401e-15
7.195,0.024208003392322392,77.50000000000013,0,60,1.0,5,3.0093574691016007e-15
7.2,0.0500971897335304,77.50000000000007,0,60,1.0,5,1.6718652606120004e-15
7.205,0.09582894921774403,77.50000000000004,0,60,1.0,5,1.0031191563672002e-15
7.21,0.16937896721820658,77.50000000000003,0,60,1.0,5,6.687461042448002e-16
7.215,0.27661303008991756,77.50000000000001,0,60,1.0,5,3.343730521224001e-16
7.22,0.4173782800009149,77.5,0,60,1.0,5,0.0
7.225,0.5818720934538056,77.5,0,60,1.0,5,0.0
7.23,0.7494718801585675,77.5,0,60,1.0,6,0.0
7.235,0.891813020752378,77.5,0,60,1.0,6,0.0
7.24,0.9800361632936612,77.5,0,60,1.0,6,0.0
7.245,0.993574479225126,77.50000248994282,1,60,1.0,6,5.8586889776158976e-08
7.25,0.9263438449375362,77.50000380552395,0,60,1.0,6,8.954173989984744e-08
7.255,0.7873015962290536,77.50000593638781,0,60,1.0,6,1.39679713129226e-07
7.26,0.5959516244629897,77.50000955146527,0,60,1.0,6,2.2474035925851614e-07
7.265,0.376910120078773,77.50001601150335,0,60,1.0,6,3.7674125524865623e-07
7.27,0.15739335672107918,77.50002813833666,0,60,1.0,6,6.62078509642871e-07
7.275,-0.033361226269301235,77.50005180683414,0,60,1.0,6,1.2189843326215102e-06
7.28,-0.1680180840843834,77.50009915896051,0,60,1.0,6,2.3331520119828543e-06
7.285,-0.23069703190837854,77.5001949173451,0,60,1.0,6,4.586290472897257e-06
7.29,-0.22587267821131068,77.50038842890842,0,60,1.0,6,9.13950372759085e-06
7.295,-0.17718181630665902,77.50077594134726,0,60,1.0,6,1.8257443464870662e-05
7.3,-0.11494332516451301,77.50154050202146,0,60,1.0,6,3.6247106387196145e-05
7.305,-0.061810214049552864,77.50302106429805,0,60,1.0,6,7.108386583655267e-05
7.31,-0.026546104631500547,77.50582806699363,0,60,1.0,6,0.00013713098808539945
7.315,-0.00719600351942686,77.5110297722934,0,60,1.0,6,0.00025952405396230247
7.32,0.0022072757983807078,77.52044123887686,0,60,1.0,6,0.00048097032651425893
7.325,0.006917199873730717,77.53705421595274,0,60,1.0,6,0.0008718639047702602
7.33,0.01004859748264829,77.5656483921687,0,60,1.0,6,0.0015446680510281647
7.335,0.013037082251128167,77.61361778133262,0,60,1.0,6,0.002673359560767561
7.34,0.01645163937690478,77.69202488768812,0,60,1.0,6,0.004518232651485184
7.345,0.020526639934696615,77.81685387265462,0,60,1.0,6,0.007455385238932208
7.35,0.02539629541761738,78.01036829501618,0,60,1.0,6,0.012008665765086548
7.355,0.031171612185577933,78.30238982620193,0,60,1.0,6,0.018879760616516035
7.36,0.03795853426638131,78.73121019613063,0,60,1.0,6,0.02896965167366194
7.365,0.0458588961882057,79.34374842619829,0,60,1.0,6,0.043382315910547975
7.37,0.054966995891435555,80.19449891225777,0,60,1.0,6,0.0633999744060652
7.375,0.06536491004445595,81.34282055819683,0,60,1.0,6,0.09041930725169021
7.38,0.07711726085088699,82.84823024479076,0,60,1.0,6,0.12584071164213542
7.385,0.09026570629555215,84.76361058293982,0,60,1.0,6,0.17090848430446634
7.39,0.10482339848670268,87.12662098861364,0,60,1.0,6,0.2265087291438503
7.395,0.12076968927580028,89.95007326204762,0,60,1.0,6,0.29294290028347353
7.4,0.13804539501007884,93.21251614850307,0,60,1.0,6,0.3697062623177193
7.405,0.15654895051787066,96.85065144980784,0,60,1.0,6,0.45530944587783156
7.41,0.17613378141900526,100.75534889717845,0,60,1.0,6,0.5471846799336106
7.415,0.19660720058055794,104.77283232444243,0,60,1.0,6,0.6417137017515867
7.42,0.21773108748496234,108.71203014349793,0,60,1.0,6,0.7344007092587748
7.425,0.23922453870058807,112.35816304783853,0,60,1.0,6,0.8201920717138478
7.43,0.2607685857914563,115.49152435431921,0,60,1.0,6,0.8939182201016285
7.435,0.2820129681603682,117.90931557476307,0,60,1.0,6,0.9508074252885428
7.44,0.30258482867153996,119.44758504432397,0,60,1.0,6,0.987002001042917
7.445,0.3220990771751686,120.0,0,60,1.0,6,1.0
7.45,0.3401700499968971,119.53048331157143,0,60,1.0,6,0.9889525485075631
7.455,0.3564239911198326,118.07764512178605,0,60,1.0,6,0.954768120512613
7.46,0.3705118017738417,115.75027089627324,0,60,1.0,6,0.9000063740299585
7.465,0.3821214567925213,112.71461532107598,0,60,1.0,6,0.8285791840253173
7.47,0.39098947374066967,109.17558029645926,0,60,1.0,6,0.7453077716813943
7.475,0.3969108472035567,105.35475009686118,0,60,1.0,6,0.6554058846320278
7.48,0.3997469255491936,101.46855261644002,0,60,1.0,6,0.5639659439162358
7.485,0.3994308076379137,97.70949370222844,0,60,1.0,6,0.47551749887596334
7.49,0.3959699661768434,94.23259379733645,0,60,1.0,6,0.3937080893490929
7.495,0.38944595408114946,91.14806229054459,0,60,1.0,6,0.3211308774245785
7.5,0.38001120995358023,88.5201284436027,0,60,1.0,6,0.25929713984947533
7.505,0.3678831374098315,86.37103019757335,0,60,1.0,6,0.20873012229584345
7.51,0.35333577933796634,84.68858588314299,0,60,1.0,6,0.16914319725042332
7.515,0.33668953221163944,83.43558240598455,0,60,1.0,6,0.13966076249375406
7.52,0.3182994390982644,82.5593606642362,0,60,1.0,6,0.11904378033496929
7.525,0.29854265738230645,82.00035857665452,0,60,1.0,6,0.10589079003892989
7.53,0.2778057157821067,81.69885586979706,0,60,1.0,6,0.09879660870110724
7.535,0.2564721553719815,81.59963653358932,0,60,1.0,6,0.09646203608445456
7.54,0.23491109433464996,81.65466301792299,0,60,1.0,6,0.09775677689230552
7.545,0.21346717185309805,81.82410177142309,0,60,1.0,6,0.10174357109230794
7.55,0.19245222055656455,82.07615171988677,0,60,1.0,6,0.10767415811498274
7.555,0.17213889801761392,82.3861310312197,0,60,1.0,6,0.1149677889698754
7.56,0.15275638501270183,82.73521037592705,0,60,1.0,6,0.12318142061004832
7.565,0.13448814019607322,83.10908026135901,0,60,1.0,6,0.13197835909080027
7.57,0.11747159495449566,83.4967355800674,0,60,1.0,6,0.1410996607074681
7.575,0.10179958433370105,83.8894711137067,0,60,1.0,6,0.15034049679309894
7.58,0.08752324394101413,84.28011585858825,0,60,1.0,6,0.1595321378491352
7.585,0.07465606047174059,84.66249236323388,0,60,1.0,6,0.1685292320760913
7.59,0.0631787448609295,85.03106583868113,0,60,1.0,6,0.17720154914543834
7.595,0.05304460019959574,85.38074083876755,0,60,1.0,6,0.1854291962062953
7.6,0.044185078305849994,85.70676514941869,0,60,1.0,6,0.19310035645691026
7.605,0.03651525513023255,86.00470666351954,0,60,1.0,6,0.20011074502398923
7.61,0.0299390014708757,86.27047640104377,0,60,1.0,6,0.20636415061279448
7.615,0.024353677220580638,86.50037773141064,0,60,1.0,6,0.21177359368025028
7.62,0.01965423034339045,86.69116751454428,0,60,1.0,6,0.2162627650481006
7.625,0.015736632374757337,86.84011916090118,0,60,1.0,6,0.2197675096682631
7.63,0.012500627640593535,86.94508069587606,0,60,1.0,6,0.22223719284414253
7.635,0.009851811652115898,87.00452308891684,0,60,1.0,6,0.2236358373862786
7.64,0.007703084175428559,87.01757565612239,0,60,1.0,6,0.22394295661464445
7.645,0.005975544002062424,86.98404649438511,0,60,1.0,6,0.22315403516200263
7.65,0.004598905818663047,86.9044268139302,0,60,1.0,6,0.22128063091600472
7.655,0.0035115256454839104,86.77987880203669,0,60,1.0,6,0.21835008945968687
7.66,0.002660121266303676,86.61220732526297,0,60,1.0,6,0.2144048782414817
7.665,0.0019992692560877024,86.40381638099026,0,60,1.0,6,0.20950156190565328
7.67,0.0014907520044639367,86.15765174322021,0,60,1.0,6,0.2037094527816521
7.675,0.0011028178277539807,85.87713170445551,0,60,1.0,6,0.19710898128130605
7.68,0.0008094059938923333,85.56606818397677,0,60,1.0,6,0.18978983962298276
7.685,0.0005893771793717645,85.22858074240006,0,60,1.0,6,0.18184895864470718
7.69,0.0004257792353490551,84.86900620562017,0,60,1.0,6,0.17338838130870982
7.695,0.0003051686392901525,84.49180665504765,0,60,1.0,6,0.16451309776582715
7.7,0.00021699992642659966,84.10147848725309,0,60,1.0,6,0.15532890558242562
7.705,0.00015308884054097838,83.70246509143067,0,60,1.0,6,0.1459403550924863
7.71,0.00010714989329311098,83.29907544860849,0,60,1.0,6,0.13644883408490566
7.715,7.440535854020571e-05,82.89541063710034,0,60,1.0,6,0.12695083852000802
7.72,5.1260276743925106e-05,82.49529985192366,0,60,1.0,6,0.11753646710408615
7.725,3.503659887882241e-05,82.10224713113755,0,60,1.0,6,0.10828816779147166
7.73,2.375894748103639e-05,81.71938954924038,0,60,1.0,6,0.09927975409977353
7.735,1.5984413869232557e-05,81.34946720642466,0,60,1.0,6,0.09057569897469794
7.74,1.0669166579899869e-05,80.99480493070575,0,60,1.0,6,0.0822307042519001
7.745,7.06526633560511e-06,80.65730523356406,0,60,1.0,6,0.07428953490738964
7.75,4.641847214699205e-06,80.33845173171007,0,60,1.0,6,0.06678709956964861
7.755,3.025641074479182e-06,80.03932197752341,0,60,1.0,6,0.059748752412315635
7.76,1.9566278676921314e-06,79.7606084347192,0,60,1.0,6,0.05319078669927535
7.765,1.2553456560008793e-06,79.50264619642017,0,60,1.0,6,0.0471210869745923
7.77,7.990660428214668e-07,79.26544596930036,0,60,1.0,6,0.04153990516000844
7.775,5.046221251618276e-07,79.04873083608925,0,60,1.0,6,0.03644072555504114
7.78,3.1616527078858815e-07,78.85197535329688,0,60,1.0,6,0.03181118478345598
7.785,1.9652884407760343e-07,78.67444563345711,0,60,1.0,6,0.027634014904873203
7.79,1.2120002189836396e-07,78.51523919213612,0,60,1.0,6,0.023887980991438153
7.795,7.415549848886236e-08,78.37332349940569,0,60,1.0,6,0.020548788221310253
7.8,4.501406988770349e-08,78.24757235335397,0,60,1.0,6,0.01758993772597585
7.805,0.0,78.13679937985393,0,60,1.0,6,0.014983514820092376
7.81,0.0,78.03978814945174,0,60,1.0,6,0.012700897634158537
7.815,0.0,77.95531858127889,0,60,1.0,6,0.010713378383032665
7.82,0.0,77.88218946913811,0,60,1.0,6,0.008992693391484983
7.825,0.0,77.81923711168028,0,60,1.0,6,0.007511461451300714
7.83,0.0,77.7653501537141,0,60,1.0,6,0.006243533028566952
7.835,0.0,77.71948084745911,0,60,1.0,6,0.005164255234331998
7.84,0.0,77.68065302056385,0,60,1.0,6,0.004250659307384761
7.845,0.0,77.647967092686,0,60,1.0,6,0.0034815786514353505
7.85,0.0,77.62060251599861,0,60,1.0,6,0.0028377062587908847
7.855,0.0,77.59781802945105,0,60,1.0,6,0.0023016006929658353
7.86,0.0,77.57895011472735,0,60,1.0,6,0.0018576497582905498
7.865,0.0,77.56341002660088,0,60,1.0,6,0.001492000625902994
7.87,0.0,77.55067974482027,0,60,1.0,6,0.0011924645840063958
7.875,0.0,77.54030716171373,0,60,1.0,6,0.0009484038050288745
7.88,0.0,77.53190078207007,0,60,1.0,6,0.0007506066369427679
7.885,0.0,77.52512417193833,0,60,1.0,6,0.0005911569867842392
7.89,0.0,77.51969035280118,0,60,1.0,6,0.0004633024188512322
7.895,0.0,77.515356298754,0,60,1.0,6,0.00036132467656470373
7.9,0.0,77.5119176580947,0,60,1.0,6,0.0002804154845812397
7.905,0.0,77.50920378796964,0,60,1.0,6,0.00021655971693268624
7.91,0.0,77.50707316196097,0,60,1.0,6,0.0001664273402582239
7.915,0.0,77.5054091859877,0,60,1.0,6,0.00012727496441651537
7.92,0.0,77.50411643763564,0,60,1.0,6,9.685735613281983e-05
7.925,0.0,77.50311732785518,0,60,1.0,6,7.334889071009511e-05
7.93,0.0,77.50234917155994,0,60,1.0,6,5.527462493981094e-05
7.935,0.0,77.50176164462405,0,60,1.0,6,4.1450461742442714e-05
7.94,0.0,77.50131459866044,0,60,1.0,6,3.0931733186889686e-05
7.945,0.0,77.50097620130107,0,60,1.0,6,2.296944237815189e-05
7.95,0.0,77.50072136803325,0,60,1.0,6,1.6973365488330967e-05
7.955,0.0,77.50053045154435,0,60,1.0,6,1.2481212808231303e-05
7.96,0.0,77.50038815560109,0,60,1.0,6,9.133072966746756e-06
7.965,0.0,77.50028264239916,0,60,1.0,6,6.650409391915994e-06
7.97,0.0,77.50020480477525,0,60,1.0,6,4.818935888258292e-06
7.975,0.0,77.50014767744172,0,60,1.0,6,3.4747633345191655e-06
7.98,0.0,77.50010596429578,0,60,1.0,6,2.4932775478619614e-06
7.985,0.0,77.50007566172987,0,60,1.0,6,1.7802759968537216e-06
7.99,0.0,77.50005376062273,0,60,1.0,6,1.2649558290350423e-06
7.995,0.0,77.50003801225458,0,60,1.0,6,8.94405990065399e-07
8.0,0.0,77.50002674571927,0,60,1.0,6,6.293110415941449e-07
8.005,0.0,77.50001872648421,0,60,1.0,6,4.4062315797579207e-07
8.01,0.0,77.50001304756682,0,60,1.0,6,3.070015723364229e-07
8.015,0.0,77.50000904636538,0,60,1.0,6,2.128556559455319e-07
8.02,0.001684486749771458,77.50000624151522,0,60,1.0,6,1.4685918171487762e-07
8.025,0.003097557930867117,77.5000042852608,0,60,1.0,6,1.0082966589246045e-07
8.03,0.005475106668887023,77.50000292776217,0,60,1.0,6,6.888852159564147e-08
8.035,0.00930222931468658,77.50000199051588,0,60,1.0,6,4.683566785120895e-08
8.04,0.01519157517868857,77.50000134668745,0,60,1.0,6,3.168676364432887e-08
8.045,0.023847336626128316,77.50000090664922,0,60,1.0,6,2.133292281648798e-08
8.05,0.0359830743700859,77.50000060741161,0,60,1.0,6,1.4292037817272906e-08
8.055,0.05218887796857759,77.50000040494702,0,60,1.0,6,9.528165090908741e-09
8.06,0.0727577001223134,77.50000026864862,0,60,1.0,6,6.32114399516414e-09
8.065,0.0974992498694751,77.50000017735456,0,60,1.0,6,4.173048583812916e-09
8.07,0.12558706050443358,77.5000001165122,0,60,1.0,6,2.74146346408302e-09
8.075,0.15549263588878245,77.50000007616786,0,60,1.0,6,1.7921850565685685e-09
8.08,0.1850529723539114,77.50000004954998,0,60,1.0,6,1.1658819269488209e-09
8.085,0.21169159439317053,77.50000003207646,0,60,1.0,6,7.547401657896391e-10
8.09,0.23277292922115492,77.50000002066335,0,60,1.0,6,4.861964739307843e-10
8.095,0.24602692519491282,77.50000001324605,0,60,1.0,6,3.116717968677061e-10
8.1,0.24995056064839283,77.50000000844973,0,60,1.0,6,1.9881721367282272e-10
8.105,0.24408826520424054,77.50000000536379,0,60,1.0,6,1.2620676791223507e-10
8.11,0.22911894216865275,77.50000000338821,0,60,1.0,6,7.972256057923112e-11
8.115,0.20672661788705934,77.50000000212981,0,60,1.0,6,5.011315806768835e-11
8.12,0.17928878030241233,77.50000000133224,0,60,1.0,6,3.1346804890370766e-11
8.125,0.14946211903866036,77.50000000082927,0,60,1.0,6,1.9512339456602656e-11
8.13,0.1197651512573837,77.50000000051367,0,60,1.0,6,1.2086248342016274e-11
8.135,0.09224675744988023,77.50000000031662,0,60,1.0,6,7.449831601287074e-12
8.14,0.06829565320281596,77.5000000001942,0,60,1.0,6,4.56954213030472e-12
8.145,0.04860224607515734,77.50000000011853,0,60,1.0,6,2.789005627752939e-12
8.15,0.03324612389699793,77.500000000072,0,60,1.0,6,1.6942682551042012e-12
8.155,0.021859876340472782,77.50000000004351,0,60,1.0,6,1.023850285598789e-12
8.16,0.01381595518554205,77.50000000002618,0,60,1.0,6,6.15915162009461e-13
8.165,0.008394095110402422,77.50000000001566,0,60,1.0,6,3.684791034388849e-13
8.17,0.0049052535271608,77.50000000000934,0,60,1.0,6,2.1968309524441686e-13
8.175,0.0027671663551903634,77.50000000000553,0,60,1.0,6,1.3007111727561363e-13
8.18,0.0015425553464444616,77.50000000000325,0,60,1.0,6,7.657142893602963e-14
8.185,0.0009638206637011801,77.50000000000192,0,60,1.0,6,4.514036203652401e-14
8.19,0.0009804935156568228,77.50000000000112,0,60,1.0,6,2.6415471117669608e-14
8.195,0.0018793744894085216,77.50000000000065,0,60,1.0,6,1.5381160397630403e-14
8.2,0.004535525206900863,77.50000000000037,0,60,1.0,6,8.693699355182403e-15
8.205,0.010832767979632273,77.50000000000021,0,60,1.0,6,5.015595781836002e-15
8.21,0.024208003392322392,77.50000000000013,0,60,1.0,6,3.0093574691016007e-15
8.215,0.0500971897335304,77.50000000000007,0,60,1.0,6,1.6718652606120004e-15
8.22,0.09582894921774403,77.50000000000004,0,60,1.0,6,1.0031191563672002e-15
8.225,0.16937896721820658,77.50000000000003,0,60,1.0,6,6.687461042448002e-16
8.23,0.27661303008991756,77.50000000000001,0,60,1.0,6,3.343730521224001e-16
8.235,0.4173782800009149,77.5,0,60,1.0,6,0.0
8.24,0.5818720934538056,77.5,0,60,1.0,6,0.0
8.245,0.7494718801585675,77.5,0,60,1.0,6,0.0
8.25,0.891813020752378,77.5,0,60,1.0,6,0.0
8.255,0.9800361632936612,77.5,0,60,1.0,6,0.0
8.26,0.993574479225126,77.50000249065474,1,60,1.0,6,5.860364086295115e-08
8.265,0.9263438449375362,77.50000381481783,0,60,1.0,6,8.976041954156244e-08
8.27,0.7873015962290536,77.50000596523532,0,60,1.0,6,1.4035847805323155e-07
8.275,0.5959516244629897,77.50000962503476,0,60,1.0,6,2.2647140620874244e-07
8.28,0.376910120078773,77.50001618917643,0,60,1.0,6,3.809217984700594e-07
8.285,0.15739335672107918,77.5000285614158,0,60,1.0,6,6.720333130140395e-07
8.29,-0.033361226269301235,77.50005280883279,0,60,1.0,6,1.2425607715559796e-06
8.295,-0.1680180840843834,77.50010151190543,0,60,1.0,6,2.388515421818524e-06
8.3,-0.23069703190837854,77.50020036214238,0,60,1.0,6,4.714403350108649e-06
8.305,-0.22587267821131068,77.50040077561245,0,60,1.0,6,9.430014410541202e-06
8.31,-0.17718181630665902,77.50080326727193,0,60,1.0,6,1.8900406398442475e-05
8.315,-0.11494332516451301,77.50159937912407,0,60,1.0,6,3.763244997819182e-05
8.32,-0.061810214049552864,77.50314438198903,0,60,1.0,6,7.398545856544308e-05
8.325,-0.026546104631500547,77.5060789517361,0,60,1.0,6,0.00014303415849647481
8.33,-0.00719600351942686,77.5115253796782,0,60,1.0,6,0.00027118540419304043
8.335,0.0022072757983807078,77.5213917627598,0,60,1.0,6,0.0005033355943483537
8.34,0.006917199873730717,77.53882411894206,0,60,1.0,6,0.0009135086809896406
8.345,0.01004859748264829,77.56884815932884,0,60,1.0,6,0.0016199566900902884
8.35,0.013037082251128167,77.6192346558676,0,60,1.0,6,0.002805521314531782
8.355,0.01645163937690478,77.70159894500465,0,60,1.0,6,0.004743504588344649
8.36,0.020526639934696615,77.83270008287926,0,60,1.0,6,0.007828237244217797
8.365,0.02539629541761738,78.03583465142736,0,60,1.0,6,0.012607874151232115
8.37,0.031171612185577933,78.34212553437393,0,60,1.0,6,0.019814718455857288
8.375,0.03795853426638131,78.79139701937089,0,60,1.0,6,0.030385812220491543
8.38,0.0458588961882057,79.43222533468237,0,60,1.0,6,0.045464125521938153
8.385,0.054966995891435555,80.32069048739088,0,60,1.0,6,0.06636918793860887
8.39,0.06536491004445595,81.5173707975343,0,60,1.0,6,0.09452637170668936
8.395,0.07711726085088699,83.08225427174436,0,60,1.0,6,0.13134715933516145
8.4,0.09026570629555215,85.06751487992965,0,60,1.0,6,0.17805917364540344
8.405,0.10482339848670268,87.50851138218808,0,60,1.0,6,0.23549438546324883
8.41,0.12076968927580028,90.41386466435996,0,60,1.0,6,0.3038556391614109
8.415,0.13804539501007884,93.75596504105044,0,60,1.0,6,0.38249329508353985
8.42,0.15654895051787066,97.4636280918179,0,60,1.0,6,0.4697324256898328
8.425,0.17613378141900526,101.41872257270964,0,60,1.0,6,0.5627934722990504
8.43,0.19660720058055794,105.45833242352343,0,60,1.0,6,0.6578431158476101
8.435,0.21773108748496234,109.38335163215552,0,60,1.0,7,0.7501965089918947
8.44,0.23922453870058807,112.9734084393601,0,60,1.0,7,0.8346684338672965
8.445,0.2607685857914563,116.00683982528938,0,60,1.0,7,0.9060432900068088
8.45,0.2820129681603682,118.28333120453613,0,60,1.0,7,0.9596077930479089
8.455,0.30258482867153996,119.646064803065,0,60,1.0,7,0.9916721130132942
8.46,0.3220990771751686,120.0,0,60,1.0,7,1.0
8.465,0.3401700499968971,119.32334270778719,0,60,1.0,7,0.9840786519479339
8.47,0.3564239911198326,117.6702984466819,0,60,1.0,7,0.9451834928631034
8.475,0.3705118017738417,115.1646448291192,0,60,1.0,7,0.8862269371557459
8.48,0.3821214567925213,111.9851997850634,0,60,1.0,7,0.8114164655309035
8.485,0.39098947374066967,108.34557221481842,0,60,1.0,7,0.7257781697604334
8.49,0.3969108472035567,104.47139174943496,0,60,1.0,7,0.634620982339646
8.495,0.3997469255491936,100.57838099842344,0,60,1.0,7,0.5430207293746692
8.5,0.3994308076379137,96.85417087272945,0,60,1.0,7,0.45539225582892834
8.505,0.3959699661768434,93.44582268957237,0,60,1.0,7,0.37519582798993806
8.51,0.38944595408114946,90.45385471397468,0,60,1.0,7,0.30479658150528655
8.515,0.38001120995358023,87.93243962502166,0,60,1.0,7,0.24546916764756843
8.52,0.3678831374098315,85.89455992933536,0,60,1.0,7,0.19751905716083196
8.525,0.35333577933796634,84.32040601189054,0,60,1.0,7,0.160480141456248
8.53,0.33668953221163944,83.16719725117376,0,60,1.0,7,0.13334581767467674
8.535,0.3182994390982644,82.37883285219493,0,60,1.0,7,0.114796067110469
8.54,0.29854265738230645,81.89421459224894,0,60,1.0,7,0.10339328452350455
8.545,0.2778057157821067,81.65359406235096,0,60,1.0,7,0.09773162499649321
8.55,0.2564721553719815,81.60276811068044,0,60,1.0,7,0.09653572025130455
8.555,0.23491109433464996,81.6953041114732,0,60,1.0,7,0.0987130379170166
8.56,0.21346717185309805,81.89319219750705,0,60,1.0,7,0.10336922817663642
8.565,0.19245222055656455,82.16640283127366,0,60,1.0,7,0.10979771367702724
8.57,0.17213889801761392,82.49180664386697,0,60,1.0,7,0.11745427397334036
8.575,0.15275638501270183,82.85182970057085,0,60,1.0,7,0.12592540471931402
8.58,0.13448814019607322,83.23310877819486,0,60,1.0,7,0.13489667713399672
8.585,0.11747159495449566,83.62530580186197,0,60,1.0,7,0.14412484239675222
8.59,0.10179958433370105,84.02015461343919,0,60,1.0,7,0.15341540266915737
8.595,0.08752324394101413,84.41075278688982,0,60,1.0,7,0.1626059479268192
8.6,0.07465606047174059,84.79107511020709,0,60,1.0,7,0.17155470847546092
8.605,0.0631787448609295,85.15566858139451,0,60,1.0,7,0.18013337838575313
8.61,0.05304460019959574,85.49948511358731,0,60,1.0,7,0.18822317914323086
8.615,0.044185078305849994,85.81781198508382,0,60,1.0,7,0.19571322317844286
8.62,0.03651525513023255,86.1062671685372,0,60,1.0,7,0.2025004039655812
8.625,0.0299390014708757,86.36083432317702,0,60,1.0,7,0.20849021936887097
8.63,0.024353677220580638,86.57791901100559,0,60,1.0,7,0.21359809437660213
8.635,0.01965423034339045,86.75441307651025,0,60,1.0,7,0.21775089591788815
8.64,0.015736632374757337,86.88775811124916,0,60,1.0,7,0.22088842614703896
8.645,0.012500627640593535,86.97600175641713,0,60,1.0,7,0.2229647472098149
8.65,0.009851811652115898,87.017842589161,0,60,1.0,7,0.2239492373920237
8.655,0.007703084175428559,87.012660771883,0,60,1.0,7,0.22382731227960015
8.66,0.005975544002062424,86.96053273007563,0,60,1.0,7,0.22260077011942653
8.665,0.004598905818663047,86.86222900437889,0,60,1.0,7,0.2202877412795033
8.67,0.0035115256454839104,86.719195178689,0,60,1.0,7,0.21692223949856484
8.675,0.002660121266303676,86.53351645798008,0,60,1.0,7,0.21255332842306082
8.68,0.0019992692560877024,86.30786706938648,0,60,1.0,7,0.20724393104438765
8.685,0.0014907520044639367,86.04544618487417,0,60,1.0,7,0.2010693219970392
8.69,0.0011028178277539807,85.74990250322291,0,60,1.0,7,0.19411535301700972
8.695,0.0008094059938923333,85.42524997119911,0,60,1.0,7,0.18647646991056724
8.7,0.0005893771793717645,85.0757773587906,0,60,1.0,7,0.17825358491272006
8.705,0.0004257792353490551,84.70595452519278,0,60,1.0,7,0.1695518711810066
8.71,0.0003051686392901525,84.32033821979824,0,60,1.0,7,0.160478546348194
8.715,0.00021699992642659966,83.92348015988665,0,60,1.0,7,0.1511407096443918
8.72,0.00015308884054097838,83.51983992315786,0,60,1.0,7,0.1416432923095967
8.725,0.00010714989329311098,83.11370490220835,0,60,1.0,7,0.13208717416960833
8.73,7.440535854020571e-05,82.70911920653026,0,60,1.0,7,0.12256751074188849
8.735,5.1260276743925106e-05,82.30982298507394,0,60,1.0,7,0.11317230553115143
8.74,3.503659887882241e-05,81.91920319962112,0,60,1.0,7,0.10398125175579112
8.745,2.375894748103639e-05,81.5402564270607,0,60,1.0,7,0.09506485710731052
8.75,1.5984413869232557e-05,81.1755638270808,0,60,1.0,7,0.0864838547548422
8.755,1.0669166579899869e-05,80.82727799879292,0,60,1.0,7,0.07828889408924523
8.76,7.06526633560511e-06,80.49712108066727,0,60,1.0,7,0.07052049601570047
8.765,4.641847214699205e-06,80.18639313486506,0,60,1.0,7,0.06320925023211899
8.77,3.025641074479182e-06,79.89598960793784,0,60,1.0,7,0.05637622606912554
8.775,1.9566278676921314e-06,79.6264264795071,0,60,1.0,7,0.050033564223696536
8.78,1.2553456560008793e-06,79.37787159987418,0,60,1.0,7,0.04418521411468666
8.785,7.990660428214668e-07,79.15018067413585,0,60,1.0,7,0.03882778056790244
8.79,5.046221251618276e-07,78.94293636900822,0,60,1.0,7,0.03395144397666406
8.795,3.1616527078858815e-07,78.75548909159917,0,60,1.0,7,0.029540919802333494
8.8,1.9652884407760343e-07,78.58699810755667,0,60,1.0,7,0.025576426060156872
8.805,1.2120002189836396e-07,78.43647181909245,0,60,1.0,7,0.022034631037469325
8.81,7.415549848886236e-08,78.30280620070539,0,60,1.0,7,0.018889557663656246
8.815,4.501406988770349e-08,78.18482058158935,0,60,1.0,7,0.01611342544916116
8.82,0.0,78.08129015900583,0,60,1.0,7,0.01367741550601957
8.825,0.0,77.99097481773615,0,60,1.0,7,0.011552348652615178
8.83,0.0,77.91264400989799,0,60,1.0,7,0.00970927082112914
8.835,0.0,77.84509761126496,0,60,1.0,7,0.008119943794469679
