Time,ECG,Pressure,R_Peaks,mean_hr,hrv_scale,Phase_Bin,Normalized_Pressure
0.0,0.001684486749771458,77.5,0,60,3.0,0,0.0
0.005,0.003097557930867117,77.5,0,60,3.0,0,0.0
0.01,0.005475106668887023,77.5,0,60,3.0,0,0.0
0.015,0.00930222931468658,77.5,0,60,3.0,0,0.0
0.02,0.01519157517868857,77.5,0,60,3.0,0,0.0
0.025,0.023847336626128316,77.5,0,60,3.0,0,0.0
0.03,0.0359830743700859,77.5,0,60,3.0,0,0.0
0.035,0.05218887796857759,77.5,0,60,3.0,0,0.0
0.04,0.0727577001223134,77.5,0,60,3.0,0,0.0
0.045,0.0974992498694751,77.5,0,60,3.0,0,0.0
0.05,0.12558706050443358,77.5,0,60,3.0,0,0.0
0.055,0.15549263588878245,77.5,0,60,3.0,0,0.0
0.06,0.1850529723539114,77.5,0,60,3.0,0,0.0
0.065,0.21169159439317053,77.5,0,60,3.0,0,0.0
0.07,0.23277292922115492,77.5,0,60,3.0,0,0.0
0.075,0.24602692519491282,77.5,0,60,3.0,0,0.0
0.08,0.24995056064839283,77.5,0,60,3.0,0,0.0
0.085,0.24408826520424054,77.5,0,60,3.0,0,0.0
0.09,0.22911894216865275,77.5,0,60,3.0,0,0.0
0.095,0.20672661788705934,77.5,0,60,3.0,0,0.0
0.1,0.17928878030241233,77.5,0,60,3.0,0,0.0
0.105,0.14946211903866036,77.5,0,60,3.0,0,0.0
0.11,0.1197651512573837,77.5,0,60,3.0,0,0.0
0.115,0.09224675744988023,77.5,0,60,3.0,0,0.0
0.12,0.06829565320281596,77.5,0,60,3.0,0,0.0
0.125,0.04860224607515734,77.5,0,60,3.0,0,0.0
0.13,0.03324612389699793,77.5,0,60,3.0,0,0.0
0.135,0.021859876340472782,77.5,0,60,3.0,0,0.0
0.14,0.01381595518554205,77.5,0,60,3.0,0,0.0
0.145,0.008394095110402422,77.5,0,60,3.0,0,0.0
0.15,0.0049052535271608,77.5,0,60,3.0,0,0.0
0.155,0.0027671663551903634,77.5,0,60,3.0,0,0.0
0.16,0.0015425553464444616,77.5,0,60,3.0,0,0.0
0.165,0.0009638206637011801,77.5,0,60,3.0,0,0.0
0.17,0.0009804935156568228,77.5,0,60,3.0,0,0.0
0.175,0.0018793744894085216,77.5,0,60,3.0,0,0.0
0.18,0.004535525206900863,77.5,0,60,3.0,0,0.0
0.185,0.010832767979632273,77.5,0,60,3.0,0,0.0
0.19,0.024208003392322392,77.5,0,60,3.0,0,0.0
0.195,0.0500971897335304,77.5,0,60,3.0,0,0.0
0.2,0.09582894921774403,77.5,0,60,3.0,0,0.0
0.205,0.16937896721820658,77.5,0,60,3.0,0,0.0
0.21,0.27661303008991756,77.5,0,60,3.0,0,0.0
0.215,0.4173782800009149,77.5,0,60,3.0,0,0.0
0.22,0.5818720934538056,77.5,0,60,3.0,0,0.0
0.225,0.7494718801585675,77.5,0,60,3.0,0,0.0
0.23,0.891813020752378,77.5,0,60,3.0,0,0.0
0.235,0.9800361632936612,77.5,0,60,3.0,0,0.0
0.24,0.993574479225126,77.5,0,60,3.0,0,0.0
0.245,0.9263438449375362,77.5,0,60,3.0,0,0.0
0.25,0.7873015962290536,77.5,0,60,3.0,0,0.0
0.255,0.5959516244629897,77.5,0,60,3.0,0,0.0
0.26,0.376910120078773,77.5,0,60,3.0,0,0.0
0.265,0.15739335672107918,77.5,0,60,3.0,0,0.0
0.27,-0.033361226269301235,77.5,0,60,3.0,0,0.0
0.275,-0.1680180840843834,77.5,0,60,3.0,0,0.0
0.28,-0.23069703190837854,77.5,0,60,3.0,0,0.0
0.285,-0.22587267821131068,77.5,0,60,3.0,0,0.0
0.29,-0.17718181630665902,77.5,0,60,3.0,0,0.0
0.295,-0.11494332516451301,77.5,0,60,3.0,0,0.0
0.3,-0.061810214049552864,77.5,0,60,3.0,0,0.0
0.305,-0.026546104631500547,77.5,0,60,3.0,0,0.0
0.31,-0.00719600351942686,77.5,0,60,3.0,0,0.0
0.315,0.0022072757983807078,77.5,0,60,3.0,0,0.0
0.32,0.006917199873730717,77.5,0,60,3.0,0,0.0
0.325,0.01004859748264829,77.5,0,60,3.0,0,0.0
0.33,0.013037082251128167,77.5,0,60,3.0,0,0.0
0.335,0.01645163937690478,77.5,0,60,3.0,0,0.0
0.34,0.020526639934696615,77.5,0,60,3.0,0,0.0
0.345,0.02539629541761738,77.5,0,60,3.0,0,0.0
0.35,0.031171612185577933,77.5,0,60,3.0,0,0.0
0.355,0.03795853426638131,77.5,0,60,3.0,0,0.0
0.36,0.0458588961882057,77.5,0,60,3.0,0,0.0
0.365,0.054966995891435555,77.5,0,60,3.0,0,0.0
0.37,0.06536491004445595,77.5,0,60,3.0,0,0.0
0.375,0.07711726085088699,77.5,0,60,3.0,0,0.0
0.38,0.09026570629555215,77.5,0,60,3.0,0,0.0
0.385,0.10482339848670268,77.5,0,60,3.0,0,0.0
0.39,0.12076968927580028,77.5,0,60,3.0,0,0.0
0.395,0.13804539501007884,77.5,0,60,3.0,0,0.0
0.4,0.15654895051787066,77.5,0,60,3.0,0,0.0
0.405,0.17613378141900526,77.5,0,60,3.0,0,0.0
0.41,0.19660720058055794,77.5,0,60,3.0,0,0.0
0.415,0.21773108748496234,77.5,0,60,3.0,0,0.0
0.42,0.23922453870058807,77.5,0,60,3.0,0,0.0
0.425,0.2607685857914563,77.5,0,60,3.0,0,0.0
0.43,0.2820129681603682,77.5,0,60,3.0,0,0.0
0.435,0.30258482867153996,77.5,0,60,3.0,0,0.0
0.44,0.3220990771751686,77.5,0,60,3.0,0,0.0
0.445,0.3401700499968971,77.5,0,60,3.0,0,0.0
0.45,0.3564239911198326,77.5,0,60,3.0,0,0.0
0.455,0.3705118017738417,77.5,0,60,3.0,0,0.0
0.46,0.3821214567925213,77.5,0,60,3.0,0,0.0
0.465,0.39098947374066967,77.5,0,60,3.0,0,0.0
0.47,0.3969108472035567,77.5,0,60,3.0,0,0.0
0.475,0.3997469255491936,77.5,0,60,3.0,0,0.0
0.48,0.3994308076379137,77.5,0,60,3.0,0,0.0
0.485,0.3959699661768434,77.5,0,60,3.0,0,0.0
0.49,0.38944595408114946,77.5,0,60,3.0,0,0.0
0.495,0.38001120995358023,77.5,0,60,3.0,0,0.0
0.5,0.3678831374098315,77.5,0,60,3.0,0,0.0
0.505,0.35333577933796634,77.5,0,60,3.0,0,0.0
0.51,0.33668953221163944,77.5,0,60,3.0,0,0.0
0.515,0.3182994390982644,77.5,0,60,3.0,0,0.0
0.52,0.29854265738230645,77.5,0,60,3.0,0,0.0
0.525,0.2778057157821067,77.5,0,60,3.0,0,0.0
0.53,0.2564721553719815,77.5,0,60,3.0,0,0.0
0.535,0.23491109433464996,77.5,0,60,3.0,0,0.0
0.54,0.21346717185309805,77.5,0,60,3.0,0,0.0
0.545,0.19245222055656455,77.5,0,60,3.0,0,0.0
0.55,0.17213889801761392,77.5,0,60,3.0,0,0.0
0.555,0.15275638501270183,77.5,0,60,3.0,0,0.0
0.56,0.13448814019607322,77.5,0,60,3.0,0,0.0
0.565,0.11747159495449566,77.5,0,60,3.0,0,0.0
0.57,0.10179958433370105,77.5,0,60,3.0,0,0.0
0.575,0.08752324394101413,77.5,0,60,3.0,0,0.0
0.58,0.07465606047174059,77.5,0,60,3.0,0,0.0
0.585,0.0631787448609295,77.5,0,60,3.0,0,0.0
0.59,0.05304460019959574,77.5,0,60,3.0,0,0.0
0.595,0.044185078305849994,77.5,0,60,3.0,0,0.0
0.6,0.03651525513023255,77.5,0,60,3.0,0,0.0
0.605,0.0299390014708757,77.5,0,60,3.0,0,0.0
0.61,0.024353677220580638,77.5,0,60,3.0,0,0.0
0.615,0.01965423034339045,77.5,0,60,3.0,0,0.0
0.62,0.015736632374757337,77.5,0,60,3.0,0,0.0
0.625,0.012500627640593535,77.5,0,60,3.0,0,0.0
0.63,0.009851811652115898,77.5,0,60,3.0,0,0.0
0.635,0.007703084175428559,77.5,0,60,3.0,0,0.0
0.64,0.005975544002062424,77.5,0,60,3.0,0,0.0
0.645,0.004598905818663047,77.5,0,60,3.0,0,0.0
0.65,0.0035115256454839104,77.5,0,60,3.0,0,0.0
0.655,0.002660121266303676,77.5,0,60,3.0,0,0.0
0.66,0.0019992692560877024,77.5,0,60,3.0,0,0.0
0.665,0.0014907520044639367,77.5,0,60,3.0,0,0.0
0.67,0.0011028178277539807,77.5,0,60,3.0,0,0.0
0.675,0.0008094059938923333,77.5,0,60,3.0,0,0.0
0.68,0.0005893771793717645,77.5,0,60,3.0,0,0.0
0.685,0.0004257792353490551,77.5,0,60,3.0,0,0.0
0.69,0.0003051686392901525,77.5,0,60,3.0,0,0.0
0.695,0.00021699992642659966,77.5,0,60,3.0,0,0.0
0.7,0.00015308884054097838,77.5,0,60,3.0,0,0.0
0.705,0.00010714989329311098,77.5,0,60,3.0,0,0.0
0.71,7.440535854020571e-05,77.5,0,60,3.0,0,0.0
0.715,5.1260276743925106e-05,77.5,0,60,3.0,0,0.0
0.72,3.503659887882241e-05,77.5,0,60,3.0,0,0.0
0.725,2.375894748103639e-05,77.5,0,60,3.0,0,0.0
0.73,1.5984413869232557e-05,77.5,0,60,3.0,0,0.0
0.735,1.0669166579899869e-05,77.5,0,60,3.0,0,0.0
0.74,7.06526633560511e-06,77.5,0,60,3.0,0,0.0
0.745,4.641847214699205e-06,77.5,0,60,3.0,0,0.0
0.75,3.025641074479182e-06,77.5,0,60,3.0,0,0.0
0.755,1.9566278676921314e-06,77.5,0,60,3.0,0,0.0
0.76,1.2553456560008793e-06,77.5,0,60,3.0,0,0.0
0.765,7.990660428214668e-07,77.5,0,60,3.0,0,0.0
0.77,5.046221251618276e-07,77.5,0,60,3.0,0,0.0
0.775,3.1616527078858815e-07,77.5,0,60,3.0,0,0.0
0.78,1.9652884407760343e-07,77.5,0,60,3.0,0,0.0
0.785,1.2120002189836396e-07,77.5,0,60,3.0,0,0.0
0.79,7.415549848886236e-08,77.5,0,60,3.0,0,0.0
0.795,4.501406988770349e-08,77.5,0,60,3.0,0,0.0
0.8,0.0,77.5,0,60,3.0,0,0.0
0.805,0.0,77.5,0,60,3.0,0,0.0
0.81,0.0,77.5,0,60,3.0,0,0.0
0.815,0.0,77.5,0,60,3.0,0,0.0
0.82,0.0,77.5,0,60,3.0,0,0.0
0.825,0.0,77.5,0,60,3.0,0,0.0
0.83,0.0,77.5,0,60,3.0,0,0.0
0.835,0.0,77.5,0,60,3.0,0,0.0
0.84,0.0,77.5,0,60,3.0,0,0.0
0.845,0.0,77.5,0,60,3.0,0,0.0
0.85,0.0,77.5,0,60,3.0,0,0.0
0.855,0.0,77.5,0,60,3.0,0,0.0
0.86,0.0,77.5,0,60,3.0,0,0.0
0.865,0.0,77.5,0,60,3.0,0,0.0
0.87,0.0,77.5,0,60,3.0,0,0.0
0.875,0.0,77.5,0,60,3.0,0,0.0
0.88,0.0,77.5,0,60,3.0,0,0.0
0.885,0.0,77.5,0,60,3.0,0,0.0
0.89,0.0,77.5,0,60,3.0,0,0.0
0.895,0.0,77.5,0,60,3.0,0,0.0
0.9,0.0,77.5,0,60,3.0,0,0.0
0.905,0.0,77.5,0,60,3.0,0,0.0
0.91,0.0,77.5,0,60,3.0,0,0.0
0.915,0.0,77.5,0,60,3.0,0,0.0
0.92,0.0,77.5,0,60,3.0,0,0.0
0.925,0.0,77.5,0,60,3.0,0,0.0
0.93,0.0,77.5,0,60,3.0,0,0.0
0.935,0.0,77.5,0,60,3.0,0,0.0
0.94,0.0,77.5,0,60,3.0,0,0.0
0.945,0.0,77.5,0,60,3.0,0,0.0
0.95,0.0,77.5,0,60,3.0,0,0.0
0.955,0.0,77.5,0,60,3.0,0,0.0
0.96,0.0,77.5,0,60,3.0,0,0.0
0.965,0.0,77.5,0,60,3.0,0,0.0
0.97,0.0,77.5,0,60,3.0,0,0.0
0.975,0.0,77.5,0,60,3.0,0,0.0
0.98,0.0,77.5,0,60,3.0,0,0.0
0.985,0.0,77.5,0,60,3.0,0,0.0
0.99,0.001684486749771458,77.5,0,60,3.0,0,0.0
0.995,0.003097557930867117,77.5,0,60,3.0,0,0.0
1.0,0.005475106668887023,77.5,0,60,3.0,0,0.0
1.005,0.00930222931468658,77.5,0,60,3.0,0,0.0
1.01,0.01519157517868857,77.5,0,60,3.0,0,0.0
1.015,0.023847336626128316,77.5,0,60,3.0,0,0.0
1.02,0.0359830743700859,77.5,0,60,3.0,0,0.0
1.025,0.05218887796857759,77.5,0,60,3.0,0,0.0
1.03,0.0727577001223134,77.5,0,60,3.0,0,0.0
1.035,0.0974992498694751,77.5,0,60,3.0,0,0.0
1.04,0.12558706050443358,77.5,0,60,3.0,0,0.0
1.045,0.15549263588878245,77.5,0,60,3.0,0,0.0
1.05,0.1850529723539114,77.5,0,60,3.0,0,0.0
1.055,0.21169159439317053,77.5,0,60,3.0,0,0.0
1.06,0.23277292922115492,77.5,0,60,3.0,0,0.0
1.065,0.24602692519491282,77.5,0,60,3.0,0,0.0
1.07,0.24995056064839283,77.5,0,60,3.0,0,0.0
1.075,0.24408826520424054,77.5,0,60,3.0,0,0.0
1.08,0.22911894216865275,77.5,0,60,3.0,0,0.0
1.085,0.20672661788705934,77.5,0,60,3.0,0,0.0
1.09,0.17928878030241233,77.5,0,60,3.0,0,0.0
1.095,0.14946211903866036,77.5,0,60,3.0,0,0.0
1.1,0.1197651512573837,77.5,0,60,3.0,0,0.0
1.105,0.09224675744988023,77.5,0,60,3.0,0,0.0
1.11,0.06829565320281596,77.5,0,60,3.0,0,0.0
1.115,0.04860224607515734,77.5,0,60,3.0,0,0.0
1.12,0.03324612389699793,77.5,0,60,3.0,0,0.0
1.125,0.021859876340472782,77.5,0,60,3.0,0,0.0
1.13,0.01381595518554205,77.5,0,60,3.0,0,0.0
1.135,0.008394095110402422,77.5,0,60,3.0,0,0.0
1.14,0.0049052535271608,77.5,0,60,3.0,0,0.0
1.145,0.0027671663551903634,77.5,0,60,3.0,0,0.0
1.15,0.0015425553464444616,77.5,0,60,3.0,0,0.0
1.155,0.0009638206637011801,77.5,0,60,3.0,0,0.0
1.16,0.0009804935156568228,77.5,0,60,3.0,0,0.0
1.165,0.0018793744894085216,77.5,0,60,3.0,0,0.0
1.17,0.004535525206900863,77.5,0,60,3.0,0,0.0
1.175,0.010832767979632273,77.5,0,60,3.0,0,0.0
1.18,0.024208003392322392,77.5,0,60,3.0,0,0.0
1.185,0.0500971897335304,77.5,0,60,3.0,0,0.0
1.19,0.09582894921774403,77.5,0,60,3.0,0,0.0
1.195,0.16937896721820658,77.5,0,60,3.0,0,0.0
1.2,0.27661303008991756,77.5,0,60,3.0,0,0.0
1.205,0.4173782800009149,77.5,0,60,3.0,1,0.0
1.21,0.5818720934538056,77.5,0,60,3.0,1,0.0
1.215,0.7494718801585675,77.5,0,60,3.0,1,0.0
1.22,0.891813020752378,77.5,0,60,3.0,1,0.0
1.225,0.9800361632936612,77.5,0,60,3.0,1,0.0
1.23,0.993574479225126,77.50000248994282,1,60,3.0,1,5.8586889776158976e-08
1.235,0.9263438449375362,77.50000380552395,0,60,3.0,1,8.954173989984744e-08
1.24,0.7873015962290536,77.50000593638781,0,60,3.0,1,1.39679713129226e-07
1.245,0.5959516244629897,77.50000955146527,0,60,3.0,1,2.2474035925851614e-07
1.25,0.376910120078773,77.50001601150335,0,60,3.0,1,3.7674125524865623e-07
1.255,0.15739335672107918,77.50002813833666,0,60,3.0,1,6.62078509642871e-07
1.26,-0.033361226269301235,77.50005180683414,0,60,3.0,1,1.2189843326215102e-06
1.265,-0.1680180840843834,77.50009915896051,0,60,3.0,1,2.3331520119828543e-06
1.27,-0.23069703190837854,77.5001949173451,0,60,3.0,1,4.586290472897257e-06
1.275,-0.22587267821131068,77.50038842890842,0,60,3.0,1,9.13950372759085e-06
1.28,-0.17718181630665902,77.50077594134726,0,60,3.0,1,1.8257443464870662e-05
1.285,-0.11494332516451301,77.50154050202146,0,60,3.0,1,3.6247106387196145e-05
1.29,-0.061810214049552864,77.50302106429805,0,60,3.0,1,7.108386583655267e-05
1.295,-0.026546104631500547,77.50582806699363,0,60,3.0,1,0.00013713098808539945
1.3,-0.00719600351942686,77.5110297722934,0,60,3.0,1,0.00025952405396230247
1.305,0.0022072757983807078,77.52044123887686,0,60,3.0,1,0.00048097032651425893
1.31,0.006917199873730717,77.53705421595274,0,60,3.0,1,0.0008718639047702602
1.315,0.01004859748264829,77.5656483921687,0,60,3.0,1,0.0015446680510281647
1.32,0.013037082251128167,77.61361778133262,0,60,3.0,1,0.002673359560767561
1.325,0.01645163937690478,77.69202488768812,0,60,3.0,1,0.004518232651485184
1.33,0.020526639934696615,77.81685387265462,0,60,3.0,1,0.007455385238932208
1.335,0.02539629541761738,78.01036829501618,0,60,3.0,1,0.012008665765086548
1.34,0.031171612185577933,78.30238982620193,0,60,3.0,1,0.018879760616516035
1.345,0.03795853426638131,78.73121019613063,0,60,3.0,1,0.02896965167366194
1.35,0.0458588961882057,79.34374842619829,0,60,3.0,1,0.043382315910547975
1.355,0.054966995891435555,80.19449891225777,0,60,3.0,1,0.0633999744060652
1.36,0.06536491004445595,81.34282055819683,0,60,3.0,1,0.09041930725169021
1.365,0.07711726085088699,82.84823024479076,0,60,3.0,1,0.12584071164213542
1.37,0.09026570629555215,84.76361058293982,0,60,3.0,1,0.17090848430446634
1.375,0.10482339848670268,87.12662098861364,0,60,3.0,1,0.2265087291438503
1.38,0.12076968927580028,89.95007326204762,0,60,3.0,1,0.29294290028347353
1.385,0.13804539501007884,93.21251614850307,0,60,3.0,1,0.3697062623177193
1.39,0.15654895051787066,96.85065144980784,0,60,3.0,1,0.45530944587783156
1.395,0.17613378141900526,100.75534889717845,0,60,3.0,1,0.5471846799336106
1.4,0.19660720058055794,104.77283232444243,0,60,3.0,1,0.6417137017515867
1.405,0.21773108748496234,108.71203014349793,0,60,3.0,1,0.7344007092587748
1.41,0.23922453870058807,112.35816304783853,0,60,3.0,1,0.8201920717138478
1.415,0.2607685857914563,115.49152435431921,0,60,3.0,1,0.8939182201016285
1.42,0.2820129681603682,117.90931557476307,0,60,3.0,1,0.9508074252885428
1.425,0.30258482867153996,119.44758504432397,0,60,3.0,1,0.987002001042917
1.43,0.3220990771751686,120.0,0,60,3.0,1,1.0
1.435,0.3401700499968971,119.53048331157143,0,60,3.0,1,0.9889525485075631
1.44,0.3564239911198326,118.07764512178605,0,60,3.0,1,0.954768120512613
1.445,0.3705118017738417,115.75027089627324,0,60,3.0,1,0.9000063740299585
1.45,0.3821214567925213,112.71461532107598,0,60,3.0,1,0.8285791840253173
1.455,0.39098947374066967,109.17558029645926,0,60,3.0,1,0.7453077716813943
1.46,0.3969108472035567,105.35475009686118,0,60,3.0,1,0.6554058846320278
1.465,0.3997469255491936,101.46855261644002,0,60,3.0,1,0.5639659439162358
1.47,0.3994308076379137,97.70949370222844,0,60,3.0,1,0.47551749887596334
1.475,0.3959699661768434,94.23259379733645,0,60,3.0,1,0.3937080893490929
1.48,0.38944595408114946,91.14806229054459,0,60,3.0,1,0.3211308774245785
1.485,0.38001120995358023,88.5201284436027,0,60,3.0,1,0.25929713984947533
1.49,0.3678831374098315,86.37103019757335,0,60,3.0,1,0.20873012229584345
1.495,0.35333577933796634,84.68858588314299,0,60,3.0,1,0.16914319725042332
1.5,0.33668953221163944,83.43558240598455,0,60,3.0,1,0.13966076249375406
1.505,0.3182994390982644,82.5593606642362,0,60,3.0,1,0.11904378033496929
1.51,0.29854265738230645,82.00035857665452,0,60,3.0,1,0.10589079003892989
1.515,0.2778057157821067,81.69885586979706,0,60,3.0,1,0.09879660870110724
1.52,0.2564721553719815,81.59963653358932,0,60,3.0,1,0.09646203608445456
1.525,0.23491109433464996,81.65466301792299,0,60,3.0,1,0.09775677689230552
1.53,0.21346717185309805,81.82410177142309,0,60,3.0,1,0.10174357109230794
1.535,0.19245222055656455,82.07615171988677,0,60,3.0,1,0.10767415811498274
1.54,0.17213889801761392,82.3861310312197,0,60,3.0,1,0.1149677889698754
1.545,0.15275638501270183,82.73521037592705,0,60,3.0,1,0.12318142061004832
1.55,0.13448814019607322,83.10908026135901,0,60,3.0,1,0.13197835909080027
1.555,0.11747159495449566,83.4967355800674,0,60,3.0,1,0.1410996607074681
1.56,0.10179958433370105,83.8894711137067,0,60,3.0,1,0.15034049679309894
1.565,0.08752324394101413,84.28011585858825,0,60,3.0,1,0.1595321378491352
1.57,0.07465606047174059,84.66249236323388,0,60,3.0,1,0.1685292320760913
1.575,0.0631787448609295,85.03106583868113,0,60,3.0,1,0.17720154914543834
1.58,0.05304460019959574,85.38074083876755,0,60,3.0,1,0.1854291962062953
1.585,0.044185078305849994,85.70676514941869,0,60,3.0,1,0.19310035645691026
1.59,0.03651525513023255,86.00470666351954,0,60,3.0,1,0.20011074502398923
1.595,0.0299390014708757,86.27047640104377,0,60,3.0,1,0.20636415061279448
1.6,0.024353677220580638,86.50037773141064,0,60,3.0,1,0.21177359368025028
1.605,0.01965423034339045,86.69116751454428,0,60,3.0,1,0.2162627650481006
1.61,0.015736632374757337,86.84011916090118,0,60,3.0,1,0.2197675096682631
1.615,0.012500627640593535,86.94508069587606,0,60,3.0,1,0.22223719284414253
1.62,0.009851811652115898,87.00452308891684,0,60,3.0,1,0.2236358373862786
1.625,0.007703084175428559,87.01757565612239,0,60,3.0,1,0.22394295661464445
1.63,0.005975544002062424,86.98404649438511,0,60,3.0,1,0.22315403516200263
1.635,0.004598905818663047,86.9044268139302,0,60,3.0,1,0.22128063091600472
1.64,0.0035115256454839104,86.77987880203669,0,60,3.0,1,0.21835008945968687
1.645,0.002660121266303676,86.61220732526297,0,60,3.0,1,0.2144048782414817
1.65,0.0019992692560877024,86.40381638099026,0,60,3.0,1,0.20950156190565328
1.655,0.0014907520044639367,86.15765174322021,0,60,3.0,1,0.2037094527816521
1.66,0.0011028178277539807,85.87713170445551,0,60,3.0,1,0.19710898128130605
1.665,0.0008094059938923333,85.56606818397677,0,60,3.0,1,0.18978983962298276
1.67,0.0005893771793717645,85.22858074240006,0,60,3.0,1,0.18184895864470718
1.675,0.0004257792353490551,84.86900620562017,0,60,3.0,1,0.17338838130870982
1.68,0.0003051686392901525,84.49180665504765,0,60,3.0,1,0.16451309776582715
1.685,0.00021699992642659966,84.10147848725309,0,60,3.0,1,0.15532890558242562
1.69,0.00015308884054097838,83.70246509143067,0,60,3.0,1,0.1459403550924863
1.695,0.00010714989329311098,83.29907544860849,0,60,3.0,1,0.13644883408490566
1.7,7.440535854020571e-05,82.89541063710034,0,60,3.0,1,0.12695083852000802
1.705,5.1260276743925106e-05,82.49529985192366,0,60,3.0,1,0.11753646710408615
1.71,3.503659887882241e-05,82.10224713113755,0,60,3.0,1,0.10828816779147166
1.715,2.375894748103639e-05,81.71938954924038,0,60,3.0,1,0.09927975409977353
1.72,1.5984413869232557e-05,81.34946720642466,0,60,3.0,1,0.09057569897469794
1.725,1.0669166579899869e-05,80.99480493070575,0,60,3.0,1,0.0822307042519001
1.73,7.06526633560511e-06,80.65730523356406,0,60,3.0,1,0.07428953490738964
1.735,4.641847214699205e-06,80.33845173171007,0,60,3.0,1,0.06678709956964861
1.74,3.025641074479182e-06,80.03932197752341,0,60,3.0,1,0.059748752412315635
1.745,1.9566278676921314e-06,79.7606084347192,0,60,3.0,1,0.05319078669927535
1.75,1.2553456560008793e-06,79.50264619642017,0,60,3.0,1,0.0471210869745923
1.755,7.990660428214668e-07,79.26544596930036,0,60,3.0,1,0.04153990516000844
1.76,5.046221251618276e-07,79.04873083608925,0,60,3.0,1,0.03644072555504114
1.765,3.1616527078858815e-07,78.85197535329688,0,60,3.0,1,0.03181118478345598
1.77,1.9652884407760343e-07,78.67444563345711,0,60,3.0,1,0.027634014904873203
1.775,1.2120002189836396e-07,78.51523919213612,0,60,3.0,1,0.023887980991438153
1.78,7.415549848886236e-08,78.37332349940569,0,60,3.0,1,0.020548788221310253
1.785,4.501406988770349e-08,78.24757235335397,0,60,3.0,1,0.01758993772597585
1.79,0.0,78.13679937985393,0,60,3.0,1,0.014983514820092376
1.795,0.0,78.03978814945174,0,60,3.0,1,0.012700897634158537
1.8,0.0,77.95531858127889,0,60,3.0,1,0.010713378383032665
1.805,0.0,77.88218946913811,0,60,3.0,1,0.008992693391484983
1.81,0.0,77.81923711168028,0,60,3.0,1,0.007511461451300714
1.815,0.0,77.7653501537141,0,60,3.0,1,0.006243533028566952
1.82,0.0,77.71948084745911,0,60,3.0,1,0.005164255234331998
1.825,0.0,77.68065302056385,0,60,3.0,1,0.004250659307384761
1.83,0.0,77.647967092686,0,60,3.0,1,0.0034815786514353505
1.835,0.0,77.62060251599861,0,60,3.0,1,0.0028377062587908847
1.84,0.0,77.59781802945105,0,60,3.0,1,0.0023016006929658353
1.845,0.0,77.57895011472735,0,60,3.0,1,0.0018576497582905498
1.85,0.0,77.56341002660088,0,60,3.0,1,0.001492000625902994
1.855,0.0,77.55067974482027,0,60,3.0,1,0.0011924645840063958
1.86,0.0,77.54030716171373,0,60,3.0,1,0.0009484038050288745
1.865,0.0,77.53190078207007,0,60,3.0,1,0.0007506066369427679
1.87,0.0,77.52512417193833,0,60,3.0,1,0.0005911569867842392
1.875,0.0,77.51969035280118,0,60,3.0,1,0.0004633024188512322
1.88,0.0,77.515356298754,0,60,3.0,1,0.00036132467656470373
1.885,0.0,77.5119176580947,0,60,3.0,1,0.0002804154845812397
1.89,0.0,77.50920378796964,0,60,3.0,1,0.00021655971693268624
1.895,0.0,77.50707316196097,0,60,3.0,1,0.0001664273402582239
1.9,0.0,77.5054091859877,0,60,3.0,1,0.00012727496441651537
1.905,0.0,77.50411643763564,0,60,3.0,1,9.685735613281983e-05
1.91,0.0,77.50311732785518,0,60,3.0,1,7.334889071009511e-05
1.915,0.0,77.50234917155994,0,60,3.0,1,5.527462493981094e-05
1.92,0.0,77.50176164462405,0,60,3.0,1,4.1450461742442714e-05
1.925,0.0,77.50131459866044,0,60,3.0,1,3.0931733186889686e-05
1.93,0.0,77.50097620130107,0,60,3.0,1,2.296944237815189e-05
1.935,0.0,77.50072136803325,0,60,3.0,1,1.6973365488330967e-05
1.94,0.0,77.50053045154435,0,60,3.0,1,1.2481212808231303e-05
1.945,0.0,77.50038815560109,0,60,3.0,1,9.133072966746756e-06
1.95,0.0,77.50028264239916,0,60,3.0,1,6.650409391915994e-06
1.955,0.0,77.50020480477525,0,60,3.0,1,4.818935888258292e-06
1.96,0.0,77.50014767744172,0,60,3.0,1,3.4747633345191655e-06
1.965,0.0,77.50010596429578,0,60,3.0,1,2.4932775478619614e-06
1.97,0.0,77.50007566172987,0,60,3.0,1,1.7802759968537216e-06
1.975,0.0,77.50005376062273,0,60,3.0,1,1.2649558290350423e-06
1.98,0.0,77.50003801225458,0,60,3.0,1,8.94405990065399e-07
1.985,0.0,77.50002674571927,0,60,3.0,1,6.293110415941449e-07
1.99,0.0,77.50001872648421,0,60,3.0,1,4.4062315797579207e-07
1.995,0.0,77.50001304756682,0,60,3.0,1,3.070015723364229e-07
2.0,0.0,77.50000904636538,0,60,3.0,1,2.128556559455319e-07
2.005,0.001684486749771458,77.50000624151522,0,60,3.0,1,1.4685918171487762e-07
2.01,0.003097557930867117,77.5000042852608,0,60,3.0,1,1.0082966589246045e-07
2.015,0.005475106668887023,77.50000292776217,0,60,3.0,1,6.888852159564147e-08
2.02,0.00930222931468658,77.50000199051588,0,60,3.0,1,4.683566785120895e-08
2.025,0.01519157517868857,77.50000134668745,0,60,3.0,1,3.168676364432887e-08
2.03,0.023847336626128316,77.50000090664922,0,60,3.0,1,2.133292281648798e-08
2.035,0.0359830743700859,77.50000060741161,0,60,3.0,1,1.4292037817272906e-08
2.04,0.05218887796857759,77.50000040494702,0,60,3.0,1,9.528165090908741e-09
2.045,0.0727577001223134,77.50000026864862,0,60,3.0,1,6.32114399516414e-09
2.05,0.0974992498694751,77.50000017735456,0,60,3.0,1,4.173048583812916e-09
2.055,0.12558706050443358,77.5000001165122,0,60,3.0,1,2.74146346408302e-09
2.06,0.15549263588878245,77.50000007616786,0,60,3.0,1,1.7921850565685685e-09
2.065,0.1850529723539114,77.50000004954998,0,60,3.0,1,1.1658819269488209e-09
2.07,0.21169159439317053,77.50000003207646,0,60,3.0,1,7.547401657896391e-10
2.075,0.23277292922115492,77.50000002066335,0,60,3.0,1,4.861964739307843e-10
2.08,0.24602692519491282,77.50000001324605,0,60,3.0,1,3.116717968677061e-10
2.085,0.24995056064839283,77.50000000844973,0,60,3.0,1,1.9881721367282272e-10
2.09,0.24408826520424054,77.50000000536379,0,60,3.0,1,1.2620676791223507e-10
2.095,0.22911894216865275,77.50000000338821,0,60,3.0,1,7.972256057923112e-11
2.1,0.20672661788705934,77.50000000212981,0,60,3.0,1,5.011315806768835e-11
2.105,0.17928878030241233,77.50000000133224,0,60,3.0,1,3.1346804890370766e-11
2.11,0.14946211903866036,77.50000000082927,0,60,3.0,1,1.9512339456602656e-11
2.115,0.1197651512573837,77.50000000051367,0,60,3.0,1,1.2086248342016274e-11
2.12,0.09224675744988023,77.50000000031662,0,60,3.0,1,7.449831601287074e-12
2.125,0.06829565320281596,77.5000000001942,0,60,3.0,1,4.56954213030472e-12
2.13,0.04860224607515734,77.50000000011853,0,60,3.0,1,2.789005627752939e-12
2.135,0.03324612389699793,77.500000000072,0,60,3.0,1,1.6942682551042012e-12
2.14,0.021859876340472782,77.50000000004351,0,60,3.0,1,1.023850285598789e-12
2.145,0.01381595518554205,77.50000000002618,0,60,3.0,1,6.15915162009461e-13
2.15,0.008394095110402422,77.50000000001566,0,60,3.0,1,3.684791034388849e-13
2.155,0.0049052535271608,77.50000000000934,0,60,3.0,1,2.1968309524441686e-13
2.16,0.0027671663551903634,77.50000000000553,0,60,3.0,1,1.3007111727561363e-13
2.165,0.0015425553464444616,77.50000000000325,0,60,3.0,1,7.657142893602963e-14
2.17,0.0009638206637011801,77.50000000000192,0,60,3.0,1,4.514036203652401e-14
2.175,0.0009804935156568228,77.50000000000112,0,60,3.0,1,2.6415471117669608e-14
2.18,0.0018793744894085216,77.50000000000065,0,60,3.0,1,1.5381160397630403e-14
2.185,0.004535525206900863,77.50000000000037,0,60,3.0,1,8.693699355182403e-15
2.19,0.010832767979632273,77.50000000000021,0,60,3.0,1,5.015595781836002e-15
2.195,0.024208003392322392,77.50000000000013,0,60,3.0,1,3.0093574691016007e-15
2.2,0.0500971897335304,77.50000000000007,0,60,3.0,1,1.6718652606120004e-15
2.205,0.09582894921774403,77.50000000000004,0,60,3.0,1,1.0031191563672002e-15
2.21,0.16937896721820658,77.50000000000003,0,60,3.0,1,6.687461042448002e-16
2.215,0.27661303008991756,77.50000000000001,0,60,3.0,1,3.343730521224001e-16
2.22,0.4173782800009149,77.5,0,60,3.0,1,0.0
2.225,0.5818720934538056,77.5,0,60,3.0,1,0.0
2.23,0.7494718801585675,77.5,0,60,3.0,1,0.0
2.235,0.891813020752378,77.5,0,60,3.0,1,0.0
2.24,0.9800361632936612,77.5,0,60,3.0,1,0.0
2.245,0.993574479225126,77.50000249045704,1,60,3.0,1,5.8598989065050027e-08
2.25,0.9263438449375362,77.50000400286618,0,60,3.0,1,9.418508652208189e-08
2.255,0.7873015962290536,77.50000660952055,0,60,3.0,1,1.555181306818721e-07
2.26,0.5959516244629897,77.5000113773939,0,60,3.0,1,2.6770338596339997e-07
2.265,0.376910120078773,77.5000206800147,0,60,3.0,1,4.865885811715784e-07
2.27,0.15739335672107918,77.50003988970043,0,60,3.0,1,9.385811866275831e-07
2.275,-0.033361226269301235,77.50008114480768,0,60,3.0,1,1.909289592477388e-06
2.28,-0.1680180840843834,77.50017146932757,0,60,3.0,1,4.034572413381872e-06
2.285,-0.23069703190837854,77.50036966292575,0,60,3.0,1,8.697951194094725e-06
2.29,-0.22587267821131068,77.50080013320535,0,60,3.0,1,1.8826663655184294e-05
2.295,-0.17718181630665902,77.50171803030102,0,60,3.0,1,4.042424237695741e-05
2.3,-0.11494332516451301,77.50362954819681,0,60,3.0,1,8.54011340426469e-05
2.305,-0.061810214049552864,77.50750465345409,0,60,3.0,1,0.00017658008127274544
2.31,-0.026546104631500547,77.51513635873366,0,60,3.0,1,0.0003561496172624977
2.315,-0.00719600351942686,77.52971845398473,0,60,3.0,1,0.0006992577408171281
2.32,0.0022072757983807078,77.55672640712274,0,60,3.0,1,0.001334738991123258
2.325,0.006917199873730717,77.60518349208301,0,60,3.0,1,0.0024749056960709313
2.33,0.01004859748264829,77.68936109165882,0,60,3.0,1,0.004455555097854692
2.335,0.013037082251128167,77.83088124422308,0,60,3.0,1,0.007785441040543032
2.34,0.01645163937690478,78.06104685361299,0,60,3.0,1,0.013201102437952774
2.345,0.020526639934696615,78.42301913064607,0,60,3.0,1,0.021718097191672194
2.35,0.02539629541761738,78.97321532329926,0,60,3.0,1,0.03466388995998253
2.355,0.031171612185577933,79.78106862202478,0,60,3.0,1,0.0536722028711712
2.36,0.03795853426638131,80.92616704013723,0,60,3.0,1,0.08061569506205248
2.365,0.0458588961882057,82.49188087315376,0,60,3.0,1,0.11745602054479437
2.37,0.054966995891435555,84.55499957417746,0,60,3.0,1,0.16599998998064608
2.375,0.06536491004445595,87.17167035654579,0,60,3.0,1,0.22756871427166564
2.38,0.07711726085088699,90.36099647690827,0,60,3.0,1,0.30261168180960635
2.385,0.09026570629555215,94.0888101039506,0,60,3.0,1,0.3903249436223672
2.39,0.10482339848670268,98.25505812911113,0,60,3.0,1,0.488354308920262
2.395,0.12076968927580028,102.68855449551354,0,60,3.0,1,0.5926718704826716
2.4,0.13804539501007884,107.15225614582596,0,60,3.0,1,0.6977001446076696
2.405,0.15654895051787066,111.36061521112637,0,60,3.0,1,0.7967203579088559
2.41,0.17613378141900526,115.00815548001408,0,60,3.0,2,0.8825448348238607
2.415,0.19660720058055794,117.80573409149028,0,60,3.0,2,0.9483702139174184
2.42,0.21773108748496234,119.51869485233112,0,60,3.0,2,0.9886751729960265
2.425,0.23922453870058807,120.0,0,60,3.0,2,1.0
2.43,0.2607685857914563,119.21189098020238,0,60,3.0,2,0.9814562583577031
2.435,0.2820129681603682,117.23168901317155,0,60,3.0,2,0.934863270898154
2.44,0.30258482867153996,114.2405381865799,0,60,3.0,2,0.8644832514489388
2.445,0.3220990771751686,110.49739961418078,0,60,3.0,2,0.7764094026866065
2.45,0.3401700499968971,106.30350731821878,0,60,3.0,2,0.6777295839580889
2.455,0.3564239911198326,101.96406843219336,0,60,3.0,2,0.5756251395810201
2.46,0.3705118017738417,97.75391648887043,0,60,3.0,2,0.4765627409145984
2.465,0.3821214567925213,93.89227362858045,0,60,3.0,2,0.3857005559665989
2.47,0.39098947374066967,90.52930083433867,0,60,3.0,2,0.30657178433738047
2.475,0.3969108472035567,87.7444479493286,0,60,3.0,2,0.24104583410184946
2.48,0.3997469255491936,85.55442755793808,0,60,3.0,2,0.18951594253971962
2.485,0.3994308076379137,83.92735255965935,0,60,3.0,2,0.15123182493316129
2.49,0.3959699661768434,82.79929983163439,0,60,3.0,2,0.12468940780316203
2.495,0.38944595408114946,82.0901146172202,0,60,3.0,2,0.10800269687576929
2.5,0.38001120995358023,81.71631047268848,0,60,3.0,2,0.09920730523972887
2.505,0.3678831374098315,81.60007781779635,0,60,3.0,2,0.09647241924226699
2.51,0.35333577933796634,81.67439999880918,0,60,3.0,2,0.0982211764425689
2.515,0.33668953221163944,81.88493163304463,0,60,3.0,2,0.1031748619539913
2.52,0.3182994390982644,82.18959337525769,0,60,3.0,2,0.11034337353547498
2.525,0.29854265738230645,82.55684664422355,0,60,3.0,2,0.11898462692290716
2.53,0.2778057157821067,82.96344010636709,0,60,3.0,2,0.1285515319145197
2.535,0.2564721553719815,83.39217445531156,0,60,3.0,2,0.13863939894850733
2.54,0.23491109433464996,83.82999341927682,0,60,3.0,2,0.14894102163004277
2.545,0.21346717185309805,84.26652148916875,0,60,3.0,2,0.15921227033338242
2.55,0.19245222055656455,84.69304616891482,0,60,3.0,2,0.16924814515093692
2.555,0.17213889801761392,85.10187795604234,0,60,3.0,2,0.17886771661276105
2.56,0.15275638501270183,85.48599890030965,0,60,3.0,2,0.1879058564778742
2.565,0.13448814019607322,85.83891352299925,0,60,3.0,2,0.19620972995292352
2.57,0.11747159495449566,86.15463052503546,0,60,3.0,2,0.20363836529495194
2.575,0.10179958433370105,86.4277212025642,0,60,3.0,2,0.21006402829562823
2.58,0.08752324394101413,86.65341617743188,0,60,3.0,2,0.2153744982925148
2.585,0.07465606047174059,86.82771425468918,0,60,3.0,2,0.21947562952209845
2.59,0.0631787448609295,86.9474859418092,0,60,3.0,2,0.22229378686609894
2.595,0.05304460019959574,87.0105601271492,0,60,3.0,2,0.22377788534468718
2.6,0.044185078305849994,87.0157864779795,0,60,3.0,2,0.22390085830540007
2.605,0.03651525513023255,86.96306900177544,0,60,3.0,2,0.22266044710059854
2.61,0.0299390014708757,86.85336841846404,0,60,3.0,2,0.22007925690503632
2.615,0.024353677220580638,86.68867281242585,0,60,3.0,2,0.21620406617472587
2.62,0.01965423034339045,86.47193761649515,0,60,3.0,2,0.21110441450576833
2.625,0.015736632374757337,86.20699737426307,0,60,3.0,2,0.20487052645324866
2.63,0.012500627640593535,85.8984529263956,0,60,3.0,2,0.1976106570916613
2.635,0.009851811652115898,85.55153864288467,0,60,3.0,2,0.18944796806787448
2.64,0.007703084175428559,85.17197504361916,0,60,3.0,2,0.1805170598498625
2.645,0.005975544002062424,84.76581258930942,0,60,3.0,2,0.17096029621904515
2.65,0.004598905818663047,84.33927257205036,0,60,3.0,2,0.16092406051883204
2.655,0.0035115256454839104,83.89859089414512,0,60,3.0,2,0.150555079862238
2.66,0.002660121266303676,83.44987011584652,0,60,3.0,2,0.1399969439022711
2.665,0.0019992692560877024,82.99894451253525,0,60,3.0,2,0.12938692970671167
2.67,0.0014907520044639367,82.55126205636239,0,60,3.0,2,0.11885322485558564
2.675,0.0011028178277539807,82.11178628145264,0,60,3.0,2,0.10851261838712088
2.68,0.0008094059938923333,81.68491996439298,0,60,3.0,2,0.0984687050445406
2.685,0.0005893771793717645,81.27445151196082,0,60,3.0,2,0.08881062381084281
2.69,0.0004257792353490551,80.88352395118474,0,60,3.0,2,0.0796123282631704
2.695,0.0003051686392901525,80.51462551121838,0,60,3.0,2,0.07093236496984433
2.7,0.00021699992642659966,80.16960001103217,0,60,3.0,2,0.06281411790663938
2.705,0.00015308884054097838,79.84967464939723,0,60,3.0,2,0.05528646233875834
2.71,0.00010714989329311098,79.55550235008373,0,60,3.0,2,0.04836476117844066
2.715,7.440535854020571e-05,79.2872155500403,0,60,3.0,2,0.042052130589183556
2.72,5.1260276743925106e-05,79.04448822532551,0,60,3.0,2,0.036340899419423735
2.725,3.503659887882241e-05,78.82660301340243,0,60,3.0,2,0.03121418855064549
2.73,2.375894748103639e-05,78.63252048869307,0,60,3.0,2,0.02664754091042529
2.735,1.5984413869232557e-05,78.46094795381482,0,60,3.0,2,0.022610540089760555
2.74,1.0669166579899869e-05,78.31040549197006,0,60,3.0,2,0.01906836451694256
2.745,7.06526633560511e-06,78.179287456471,0,60,3.0,2,0.015983234269905926
2.75,4.641847214699205e-06,78.06591802285838,0,60,3.0,2,0.013315718184903142
2.755,3.025641074479182e-06,77.96859987210378,0,60,3.0,2,0.011025879343618365
2.76,1.9566278676921314e-06,77.8856554887536,0,60,3.0,2,0.009074246794202335
2.765,1.2553456560008793e-06,77.81546092920453,0,60,3.0,2,0.007422610098930203
2.77,7.990660428214668e-07,77.7564722312998,0,60,3.0,2,0.006034640736465783
2.775,5.046221251618276e-07,77.70724489073726,0,60,3.0,2,0.004876350370288412
2.78,3.1616527078858815e-07,77.66644702050948,0,60,3.0,2,0.003916400482576003
2.785,1.9652884407760343e-07,77.6328669386945,0,60,3.0,2,0.003126280910458945
2.79,1.2120002189836396e-07,77.60541600235295,0,60,3.0,2,0.002480376525951843
2.795,7.415549848886236e-08,77.58312752819495,0,60,3.0,2,0.0019559418398811803
2.8,4.501406988770349e-08,77.56515262252844,0,60,3.0,2,0.001533002883022217
2.805,0.0,77.55075369282372,0,60,3.0,2,0.0011942045370286745
2.81,0.0,77.53929633998295,0,60,3.0,2,0.0009246197643048002
2.815,0.0,77.53024024244493,0,60,3.0,2,0.0007115351163513558
2.82,0.0,77.52312954797354,0,60,3.0,2,0.0005442246582009268
2.825,0.0,77.51758319256689,0,60,3.0,2,0.000413722178044442
2.83,0.0,77.51328547327073,0,60,3.0,2,0.00031259937107593565
2.835,0.0,77.50997711637612,0,60,3.0,2,0.00023475567943812754
2.84,0.0,77.50744700690414,0,60,3.0,2,0.00017522369186220952
2.845,0.0,77.50552468073164,0,60,3.0,2,0.00012999248780327916
2.85,0.0,77.5040736276038,0,60,3.0,2,9.585006126592495e-05
2.855,0.0,77.50298541131669,0,60,3.0,2,7.024497215732427e-05
2.86,0.0,77.50217458173086,0,60,3.0,2,5.11666289613084e-05
2.865,0.0,77.50157433085046,0,60,3.0,2,3.704307883434494e-05
2.87,0.0,77.5011328306406,0,60,3.0,2,2.665483860235273e-05
2.875,0.0,77.50081018216575,0,60,3.0,2,1.90631097823638e-05
2.88,0.0,77.50057590265568,0,60,3.0,2,1.3550650721954833e-05
2.885,0.0,77.50040687798673,0,60,3.0,2,9.573599687856212e-06
2.89,0.0,77.5002857116946,0,60,3.0,2,6.722628108277337e-06
2.895,0.0,77.5001994070693,0,60,3.0,2,4.691931042423354e-06
2.9,0.0,77.50013832535542,0,60,3.0,2,3.254714245231833e-06
2.905,0.0,77.50009536999269,0,60,3.0,2,2.2439998280574134e-06
2.91,0.0,77.50006535373524,0,60,3.0,2,1.5377349467705832e-06
2.915,0.001684486749771458,77.50004451206985,0,60,3.0,2,1.0473428199689165e-06
2.92,0.003097557930867117,77.50003013241054,0,60,3.0,2,7.089978951438859e-07
2.925,0.005475106668887023,77.50002027396405,0,60,3.0,2,4.770344483350687e-07
2.93,0.00930222931468658,77.50001355789229,0,60,3.0,2,3.1900923030501446e-07
2.935,0.01519157517868857,77.50000901144418,0,60,3.0,2,2.1203398064779535e-07
2.94,0.023847336626128316,77.50000595312942,0,60,3.0,2,1.4007363334070866e-07
2.945,0.0359830743700859,77.50000390881361,0,60,3.0,2,9.197208495446403e-08
2.95,0.05218887796857759,77.50000255089928,0,60,3.0,2,6.002115957712436e-08
2.955,0.0727577001223134,77.50000165458991,0,60,3.0,2,3.893152726210674e-08
2.96,0.0974992498694751,77.50000106668489,0,60,3.0,2,2.509846795232186e-08
2.965,0.12558706050443358,77.50000068348757,0,60,3.0,2,1.6082060483313397e-08
2.97,0.15549263588878245,77.5000004352851,0,60,3.0,2,1.0242002404351404e-08
2.975,0.1850529723539114,77.50000027552798,0,60,3.0,2,6.483011314712177e-09
2.98,0.21169159439317053,77.50000017334301,0,60,3.0,2,4.078659083675387e-09
2.985,0.23277292922115492,77.5000001083916,0,60,3.0,2,2.550390664670404e-09
2.99,0.24602692519491282,77.5000000673649,0,60,3.0,2,1.5850563319391393e-09
2.995,0.24995056064839283,77.50000004161217,0,60,3.0,2,9.791098337326035e-10
3.0,0.24408826520424054,77.50000002554793,0,60,3.0,2,6.011278481524e-10
3.005,0.22911894216865275,77.50000001558978,0,60,3.0,2,3.6681827248899295e-10
3.01,0.20672661788705934,77.50000000945525,0,60,3.0,2,2.224764477218474e-10
3.015,0.17928878030241233,77.50000000569973,0,60,3.0,2,1.341113468644086e-10
3.02,0.14946211903866036,77.50000000341495,0,60,3.0,2,8.035185066332547e-11
3.025,0.1197651512573837,77.50000000203359,0,60,3.0,2,4.7849118131767574e-11
3.03,0.09224675744988023,77.50000000120363,0,60,3.0,2,2.8320728768663044e-11
3.035,0.06829565320281596,77.50000000070806,0,60,3.0,2,1.6660137321998583e-11
3.04,0.04860224607515734,77.50000000041399,0,60,3.0,2,9.74095575442976e-12
3.045,0.03324612389699793,77.50000000024059,0,60,3.0,2,5.660935772432234e-12
3.05,0.021859876340472782,77.50000000013895,0,60,3.0,2,3.269499703652828e-12
3.055,0.01381595518554205,77.50000000007978,0,60,3.0,2,1.877170314615154e-12
3.06,0.008394095110402422,77.50000000004552,0,60,3.0,2,1.0709968859480474e-12
3.065,0.0049052535271608,77.5000000000258,0,60,3.0,2,6.072214626542785e-13
3.07,0.0027671663551903634,77.50000000001455,0,60,3.0,2,3.423980053733377e-13
3.075,0.0015425553464444616,77.50000000000816,0,60,3.0,2,1.9193013191825765e-13
3.08,0.0009638206637011801,77.50000000000453,0,60,3.0,2,1.0666500362704563e-13
3.085,0.0009804935156568228,77.50000000000252,0,60,3.0,2,5.918403022566482e-14
3.09,0.0018793744894085216,77.50000000000138,0,60,3.0,2,3.243418605587281e-14
3.095,0.004535525206900863,77.50000000000075,0,60,3.0,2,1.7721771762487205e-14
3.1,0.010832767979632273,77.50000000000041,0,60,3.0,2,9.696818511549603e-15
3.105,0.024208003392322392,77.50000000000023,0,60,3.0,2,5.349968833958401e-15
3.11,0.0500971897335304,77.50000000000011,0,60,3.0,2,2.6749844169792007e-15
3.115,0.09582894921774403,77.50000000000006,0,60,3.0,2,1.3374922084896003e-15
3.12,0.16937896721820658,77.50000000000003,0,60,3.0,2,6.687461042448002e-16
3.125,0.27661303008991756,77.50000000000001,0,60,3.0,2,3.343730521224001e-16
3.13,0.4173782800009149,77.50000000000001,0,60,3.0,2,3.343730521224001e-16
3.135,0.5818720934538056,77.5,0,60,3.0,2,0.0
3.14,0.7494718801585675,77.5,0,60,3.0,2,0.0
3.145,0.891813020752378,77.5,0,60,3.0,2,0.0
3.15,0.9800361632936612,77.5,0,60,3.0,2,0.0
3.155,0.993574479225126,77.50000249060646,1,60,3.0,2,5.860250499769309e-08
3.16,0.9263438449375362,77.50000385734029,0,60,3.0,2,9.076094797552179e-08
3.165,0.7873015962290536,77.50000610730334,0,60,3.0,2,1.437012549425109e-07
3.17,0.5959516244629897,77.50000999976028,0,60,3.0,2,2.3528847718272813e-07
3.175,0.376910120078773,77.50001711607312,0,60,3.0,2,4.027311323331078e-07
3.18,0.15739335672107918,77.5000308127143,0,60,3.0,2,7.250050423542288e-07
3.185,-0.033361226269301235,77.50005823243188,0,60,3.0,2,1.3701748678292514e-06
3.19,-0.1680180840843834,77.50011443699209,0,60,3.0,2,2.6926351080526407e-06
3.195,-0.23069703190837854,77.50023065316174,0,60,3.0,2,5.427133217327697e-06
3.2,-0.22587267821131068,77.50047021644501,0,60,3.0,2,1.106391635316333e-05
3.205,-0.17718181630665902,77.5009583966,0,60,3.0,2,2.255050823524631e-05
3.21,-0.11494332516451301,77.50193629964134,0,60,3.0,2,4.5559991561022426e-05
3.215,-0.061810214049552864,77.50385483894526,0,60,3.0,2,9.07020928296146e-05
3.22,-0.026546104631500547,77.50753250751332,0,60,3.0,2,0.0001772354709015979
3.225,-0.00719600351942686,77.51440996954433,0,60,3.0,2,0.00033905810692544944
3.23,0.0022072757983807078,77.52694391670826,0,60,3.0,2,0.0006339745107826435
3.235,0.006917199873730717,77.54918926053296,0,60,3.0,2,0.0011573943654813025
3.24,0.01004859748264829,77.5876176648087,0,60,3.0,2,0.0020615921131459745
3.245,0.013037082251128167,77.65220482613245,0,60,3.0,2,0.003581290026645815
3.25,0.01645163937690478,77.7577808422973,0,60,3.0,2,0.006065431583465732
3.255,0.020526639934696615,77.92557045679185,0,60,3.0,2,0.010013422512749311
3.26,0.02539629541761738,78.1847502601857,0,60,3.0,2,0.016111770827898695
3.265,0.031171612185577933,78.57372412531626,0,60,3.0,2,0.02526409706626496
3.27,0.03795853426638131,79.14068530680169,0,60,3.0,2,0.038604360160039666
3.275,0.0458588961882057,79.94292800606925,0,60,3.0,2,0.05748065896633534
3.28,0.054966995891435555,81.0443400664048,0,60,3.0,2,0.08339623685658352
3.285,0.06536491004445595,82.51060356247285,0,60,3.0,2,0.11789655441112593
3.29,0.07711726085088699,84.4018923138275,0,60,3.0,2,0.16239746620770595
3.295,0.09026570629555215,86.76329520888174,0,60,3.0,2,0.2179598872678057
3.3,0.10482339848670268,89.61377301640115,0,60,3.0,2,0.28502995332708597
3.305,0.12076968927580028,92.93507670582724,0,60,3.0,2,0.3631782754312292
3.31,0.13804539501007884,96.66256820647882,0,60,3.0,2,0.45088395779950174
3.315,0.15654895051787066,100.68011755916041,0,60,3.0,2,0.5454145308037743
3.32,0.17613378141900526,104.82105425803283,0,60,3.0,2,0.6428483354831255
3.325,0.19660720058055794,108.8764532668383,0,60,3.0,2,0.7382694886314893
3.33,0.21773108748496234,112.61088723201624,0,60,3.0,2,0.8261385231062645
3.335,0.23922453870058807,115.78436216317712,0,60,3.0,2,0.9008085214865205
3.34,0.2607685857914563,118.1777713622895,0,60,3.0,2,0.9571240320538708
3.345,0.2820129681603682,119.61819191512663,0,60,3.0,2,0.9910162803559207
3.35,0.30258482867153996,120.0,0,60,3.0,2,1.0
3.355,0.3220990771751686,119.29824545748835,0,60,3.0,2,0.9834881284114906
3.36,0.3401700499968971,117.5719546188641,0,60,3.0,2,0.9428695204438611
3.365,0.3564239911198326,114.95677661133668,0,60,3.0,2,0.8813359202667453
3.37,0.3705118017738417,111.64826619736436,0,60,3.0,2,0.8034886164085733
3.375,0.3821214567925213,107.87868369700878,0,60,3.0,2,0.7147925575766773
3.38,0.39098947374066967,103.89114672130673,0,60,3.0,2,0.6209681581483936
3.385,0.3969108472035567,99.91511507625712,0,60,3.0,2,0.5274144723825206
3.39,0.3997469255491936,96.14656082953842,0,60,3.0,2,0.4387426077538451
3.395,0.3994308076379137,92.73498319976926,0,60,3.0,2,0.3584701929357473
3.4,0.3959699661768434,89.77799372275705,0,60,3.0,2,0.2888939699472246
3.405,0.38944595408114946,87.32285486110474,0,60,3.0,2,0.23112599673187634
3.41,0.38001120995358023,85.37336529966561,0,60,3.0,2,0.185255654109779
3.415,0.3678831374098315,83.89998207819981,0,60,3.0,2,0.15058781360470147
3.42,0.35333577933796634,82.8510525309259,0,60,3.0,2,0.125907118374727
3.425,0.33668953221163944,82.16338984647568,0,60,3.0,2,0.10972681991707485
3.43,0.3182994390982644,81.7710004035094,0,60,3.0,2,0.10049412714139776
3.435,0.29854265738230645,81.61139076399436,0,60,3.0,2,0.0967386062116321
3.44,0.2778057157821067,81.62941598109197,0,60,3.0,2,0.0971627289668698
3.445,0.2564721553719815,81.7790040818856,0,60,3.0,2,0.1006824489855436
3.45,0.23491109433464996,82.02328621441396,0,60,3.0,2,0.1064302638685637
3.455,0.21346717185309805,82.33370255304422,0,60,3.0,2,0.1137341777186875
3.46,0.19245222055656455,82.68858789463043,0,60,3.0,2,0.12208442105012778
3.465,0.17213889801761392,83.07161944197627,0,60,3.0,2,0.13109692804650042
3.47,0.15275638501270183,83.47037548139828,0,60,3.0,2,0.1404794230917242
3.475,0.13448814019607322,83.87513591955003,0,60,3.0,2,0.1500031981070596
3.48,0.11747159495449566,84.27796761085855,0,60,3.0,2,0.15948159084373068
3.485,0.10179958433370105,84.67208126420148,0,60,3.0,2,0.16875485327532896
3.49,0.08752324394101413,85.05141767098016,0,60,3.0,2,0.17768041578776841
3.495,0.07465606047174059,85.41041137477472,0,60,3.0,2,0.18612732646528765
3.5,0.0631787448609295,85.74388204533,0,60,3.0,2,0.1939736951842352
3.505,0.05304460019959574,86.0470116192692,0,60,3.0,2,0.20110615574751056
3.51,0.044185078305849994,86.31537463568876,0,60,3.0,2,0.20742057966326483
3.515,0.03651525513023255,86.54499785256412,0,60,3.0,2,0.21282347888386172
3.52,0.0299390014708757,86.73243223546459,0,60,3.0,2,0.21723369965799025
3.525,0.024353677220580638,86.87482563242001,0,60,3.0,2,0.2205841325275297
3.53,0.01965423034339045,86.96998815607745,0,60,3.0,2,0.22282325073123407
3.535,0.015736632374757337,87.01644488029292,0,60,3.0,2,0.22391635012453937
3.54,0.012500627640593535,87.01347229325384,0,60,3.0,2,0.22384640690009036
3.545,0.009851811652115898,86.96111631870204,0,60,3.0,2,0.22261450161651858
3.55,0.007703084175428559,86.86019081224607,0,60,3.0,2,0.22023978381755469
3.555,0.005975544002062424,86.7122563730027,0,60,3.0,2,0.21675897348241652
3.56,0.004598905818663047,86.51958013614413,0,60,3.0,2,0.21222541496809713
3.565,0.0035115256454839104,86.28507794654647,0,60,3.0,2,0.2067077163893286
3.57,0.002660121266303676,86.01224095394758,0,60,3.0,2,0.20028802244582547
3.575,0.0019992692560877024,85.7050492026738,0,60,3.0,2,0.19305998123938367
3.58,0.0014907520044639367,85.36787519896696,0,60,3.0,2,0.18512647526981074
3.585,0.0011028178277539807,85.00538071378118,0,60,3.0,2,0.1765971932654395
3.59,0.0008094059938923333,84.6224102114667,0,60,3.0,2,0.1675861226227459
3.595,0.0005893771793717645,84.22388428441178,0,60,3.0,2,0.15820904198615957
3.6,0.0004257792353490551,83.81469632673434,0,60,3.0,2,0.14858109004080788
3.605,0.0003051686392901525,83.39961540923211,0,60,3.0,2,0.13881448021722617
3.61,0.00021699992642659966,82.98319794133803,0,60,3.0,2,0.1290164221491302
3.615,0.00015308884054097838,82.5697102464525,0,60,3.0,3,0.11928729991652945
3.62,0.00010714989329311098,82.16306366028918,0,60,3.0,3,0.10971914494798077
3.625,7.440535854020571e-05,81.76676321464303,0,60,3.0,3,0.10039442857983612
3.63,5.1260276743925106e-05,81.3838704178972,0,60,3.0,3,0.09138518630346351
3.635,3.503659887882241e-05,81.01698011357695,0,60,3.0,3,0.08275247326063409
3.64,2.375894748103639e-05,80.66821091136433,0,60,3.0,3,0.07454613909092533
3.645,1.5984413869232557e-05,80.33920825933811,0,60,3.0,3,0.06680490021972017
3.65,1.0669166579899869e-05,80.03115887537963,0,60,3.0,3,0.059556679420697214
3.655,7.06526633560511e-06,79.74481498835964,0,60,3.0,3,0.052819176196697314
3.66,4.641847214699205e-06,79.48052665965687,0,60,3.0,3,0.0466006272860441
3.665,3.025641074479182e-06,79.23828036186586,0,60,3.0,3,0.0409007143968438
3.67,1.9566278676921314e-06,79.01774197921334,0,60,3.0,3,0.03571157598149037
3.675,1.2553456560008793e-06,78.8183024547782,0,60,3.0,3,0.03101888128889895
3.68,7.990660428214668e-07,78.6391244320625,0,60,3.0,3,0.02680292781323534
3.685,5.046221251618276e-07,78.47918841005006,0,60,3.0,3,0.023039727295295454
3.69,3.1616527078858815e-07,78.3373371380437,0,60,3.0,3,0.019702050306910437
3.695,1.9652884407760343e-07,78.21231720572483,0,60,3.0,3,0.016760404840584227
3.7,1.2120002189836396e-07,78.10281702217611,0,60,3.0,3,0.014183929933555566
3.705,7.415549848886236e-08,78.00750061349781,0,60,3.0,3,0.011941190905830849
3.71,4.501406988770349e-08,77.92503689230902,0,60,3.0,3,0.010000868054329965
3.715,0.0,77.85412425603842,0,60,3.0,3,0.008332335436198064
3.72,0.0,77.79351054877074,0,60,3.0,3,0.006906130559311537
3.725,0.0,77.74200856992353,0,60,3.0,3,0.005694319292318288
3.73,0.0,77.69850743053568,0,60,3.0,3,0.004670763071427874
3.735,0.0,77.66198014454383,0,60,3.0,3,0.003811297518678416
3.74,0.0,77.63148789963498,0,60,3.0,3,0.0030938329325876754
3.745,0.0,77.60618148274689,0,60,3.0,3,0.0024983878293386064
3.75,0.0,77.58530034248456,0,60,3.0,3,0.0020070668819896047
3.755,0.0,77.56816975854922,0,60,3.0,3,0.0016039943188051143
3.76,0.0,77.55419656084052,0,60,3.0,3,0.0012752131962476116
3.765,0.0,77.542863802236,0,60,3.0,3,0.0010085600526117426
3.77,0.0,77.53372474296843,0,60,3.0,3,0.0007935233639630844
3.775,0.0,77.52639645440267,0,60,3.0,3,0.0006210930447687535
3.78,0.0,77.52055329875957,0,60,3.0,3,0.0004836070296368475
3.785,0.0,77.51592049130771,0,60,3.0,3,0.00037459979547553997
3.79,0.0,77.5122679045549,0,60,3.0,3,0.0002886565777624342
3.795,0.0,77.50940423131003,0,60,3.0,3,0.00022127603082420887
3.8,0.0,77.50717158596277,0,60,3.0,3,0.0001687431991239036
3.805,0.0,77.50544059134097,0,60,3.0,3,0.00012801391390519925
3.81,0.0,77.50410597211048,0,60,3.0,3,9.661110848188561e-05
3.815,0.0,77.50308265466796,0,60,3.0,3,7.253305101090411e-05
3.82,0.0,77.50230235743923,0,60,3.0,3,5.4173116217270946e-05
3.825,0.0,77.50171064389794,0,60,3.0,3,4.025044465733759e-05
3.83,0.0,77.50126440285658,0,60,3.0,3,2.9750655448879117e-05
3.835,0.0,77.50092971602302,0,60,3.0,3,2.1875671129959407e-05
3.84,0.0,77.50068007084202,0,60,3.0,3,1.6001666871127728e-05
3.845,0.0,77.5004948766761,0,60,3.0,3,1.1644157084714715e-05
3.85,0.0,77.50035824390325,0,60,3.0,3,8.429268311762345e-06
3.855,0.0,77.50025798806918,0,60,3.0,3,6.070307510111995e-06
3.86,0.0,77.50018482445232,0,60,3.0,3,4.348810642795798e-06
3.865,0.0,77.50013172197245,0,60,3.0,3,3.0993405282649347e-06
3.87,0.0,77.50009338906223,0,60,3.0,3,2.1973896995110835e-06
3.875,0.0,77.50006586774495,0,60,3.0,3,1.5498292929591758e-06
3.88,0.0,77.50004621559701,0,60,3.0,3,1.0874258119950836e-06
3.885,0.0,77.5000322584378,0,60,3.0,3,7.590220658424669e-07
3.89,0.0,77.5000223994362,0,60,3.0,3,5.270455577534877e-07
3.895,0.0,77.50001547283287,0,60,3.0,3,3.6406665578718223e-07
3.9,0.001684486749771458,77.50001063265135,0,60,3.0,3,2.5018003183878834e-07
3.905,0.003097557930867117,77.50000726862568,0,60,3.0,3,1.7102648658852988e-07
3.91,0.005475106668887023,77.50000494312994,0,60,3.0,3,1.1630893970290987e-07
3.915,0.00930222931468658,77.50000334418844,0,60,3.0,3,7.86867868849667e-08
3.92,0.01519157517868857,77.50000225070433,0,60,3.0,3,5.2957748868506956e-08
3.925,0.023847336626128316,77.50000150690246,0,60,3.0,3,3.545652856808053e-08
3.93,0.0359830743700859,77.50000100366974,0,60,3.0,3,2.3615758530414656e-08
3.935,0.05218887796857759,77.50000066502123,0,60,3.0,3,1.564755841761379e-08
3.94,0.0727577001223134,77.50000043834815,0,60,3.0,3,1.0314074175125022e-08
3.945,0.0974992498694751,77.50000028743645,0,60,3.0,3,6.763210582421915e-09
3.95,0.12558706050443358,77.50000018750096,0,60,3.0,3,4.411787264924736e-09
3.955,0.15549263588878245,77.50000012167578,0,60,3.0,3,2.8629595844369546e-09
3.96,0.1850529723539114,77.50000007854956,0,60,3.0,3,1.8482249769851263e-09
3.965,0.21169159439317053,77.5000000504455,0,60,3.0,3,1.1869527792013661e-09
3.97,0.23277292922115492,77.5000000322285,0,60,3.0,3,7.583176230742965e-10
3.975,0.24602692519491282,77.50000002048314,0,60,3.0,3,4.819562892568202e-10
3.98,0.24995056064839283,77.50000001295066,0,60,3.0,3,3.047215186062899e-10
3.985,0.24408826520424054,77.50000000814568,0,60,3.0,3,1.9166296784961186e-10
3.99,0.22911894216865275,77.50000000509684,0,60,3.0,3,1.1992557012811578e-10
3.995,0.20672661788705934,77.50000000317259,0,60,3.0,3,7.464911825937794e-11
4.0,0.17928878030241233,77.50000000196455,0,60,3.0,3,4.622473384455696e-11
4.005,0.14946211903866036,77.5000000012102,0,60,3.0,3,2.847520911874359e-11
4.01,0.1197651512573837,77.50000000074162,0,60,3.0,3,1.7449926471111694e-11
4.015,0.09224675744988023,77.50000000045212,0,60,3.0,3,1.063807865327416e-11
4.02,0.06829565320281596,77.5000000002742,0,60,3.0,3,6.45172804070171e-12
4.025,0.04860224607515734,77.50000000016543,0,60,3.0,3,3.892436699756859e-12
4.03,0.03324612389699793,77.50000000009929,0,60,3.0,3,2.3362645151792095e-12
4.035,0.021859876340472782,77.50000000005929,0,60,3.0,3,1.3950043734546533e-12
4.04,0.01381595518554205,77.50000000003521,0,60,3.0,3,8.285764231593074e-13
4.045,0.008394095110402422,77.5000000000208,0,60,3.0,3,4.895221483071937e-13
4.05,0.0049052535271608,77.50000000001224,0,60,3.0,3,2.8789519787738646e-13
4.055,0.0027671663551903634,77.50000000000715,0,60,3.0,3,1.6818964521756725e-13
4.06,0.0015425553464444616,77.50000000000416,0,60,3.0,3,9.797130427186323e-14
4.065,0.0009638206637011801,77.5000000000024,0,60,3.0,3,5.6509045808685616e-14
4.07,0.0009804935156568228,77.50000000000138,0,60,3.0,3,3.243418605587281e-14
4.075,0.0018793744894085216,77.5000000000008,0,60,3.0,3,1.8724890918854405e-14
4.08,0.004535525206900863,77.50000000000045,0,60,3.0,3,1.0699937667916803e-14
4.085,0.010832767979632273,77.50000000000026,0,60,3.0,3,6.0187149382032015e-15
4.09,0.024208003392322392,77.50000000000014,0,60,3.0,3,3.343730521224001e-15
4.095,0.0500971897335304,77.50000000000009,0,60,3.0,3,2.0062383127344005e-15
4.1,0.09582894921774403,77.50000000000004,0,60,3.0,3,1.0031191563672002e-15
4.105,0.16937896721820658,77.50000000000003,0,60,3.0,3,6.687461042448002e-16
4.11,0.27661303008991756,77.50000000000001,0,60,3.0,3,3.343730521224001e-16
4.115,0.4173782800009149,77.5,0,60,3.0,3,0.0
4.12,0.5818720934538056,77.5,0,60,3.0,3,0.0
4.125,0.7494718801585675,77.5,0,60,3.0,3,0.0
4.13,0.891813020752378,77.5,0,60,3.0,3,0.0
4.135,0.9800361632936612,77.5,0,60,3.0,3,0.0
4.14,0.993574479225126,77.50000249379623,1,60,3.0,3,5.8677558372972485e-08
4.145,0.9263438449375362,77.50000374914603,0,60,3.0,3,8.821520074942621e-08
4.15,0.7873015962290536,77.50000574205839,0,60,3.0,3,1.3510725626902592e-07
4.155,0.5959516244629897,77.50000904290425,0,60,3.0,3,2.1277421771682224e-07
4.16,0.376910120078773,77.50001477842311,0,60,3.0,3,3.477276025290955e-07
4.165,0.15739335672107918,77.50002521824138,0,60,3.0,3,5.93370385318207e-07
4.17,-0.033361226269301235,77.50004495906866,0,60,3.0,3,1.0578604390582981e-06
4.175,-0.1680180840843834,77.5000832626602,0,60,3.0,3,1.9591214164152276e-06
4.18,-0.23069703190837854,77.50015855775519,0,60,3.0,3,3.730770710235982e-06
4.185,-0.22587267821131068,77.50030687962926,0,60,3.0,3,7.220697159147997e-06
4.19,-0.17718181630665902,77.50059725115638,0,60,3.0,3,1.4052968385372237e-05
4.195,-0.11494332516451301,77.50115890175013,0,60,3.0,3,2.726827647366543e-05
4.2,-0.061810214049552864,77.502227982956,0,60,3.0,3,5.242312837648409e-05
4.205,-0.026546104631500547,77.50422523134473,0,60,3.0,3,9.941720811137683e-05
4.21,-0.00719600351942686,77.50788085207563,0,60,3.0,3,0.00018543181354422868
4.215,0.0022072757983807078,77.51442842473308,0,60,3.0,3,0.0003394923466607773
4.22,0.006917199873730717,77.52589499534879,0,60,3.0,3,0.0006092940082068895
4.225,0.01004859748264829,77.54551806446773,0,60,3.0,3,0.0010710132815936102
4.23,0.013037082251128167,77.57831931533336,0,60,3.0,3,0.001842807419608468
4.235,0.01645163937690478,77.63185613703956,0,60,3.0,3,0.0031024973421073594
4.24,0.020526639934696615,77.71715124028381,0,60,3.0,3,0.005109440947854396
4.245,0.02539629541761738,77.84976424958334,0,60,3.0,3,0.008229747049019874
4.25,0.031171612185577933,78.05091521223822,0,60,3.0,3,0.012962710876193488
4.255,0.03795853426638131,78.34850034697884,0,60,3.0,3,0.0199647140465609
4.26,0.0458588961882057,78.77776263344921,0,60,3.0,3,0.030065003139981505
4.265,0.054966995891435555,79.38130867176919,0,60,3.0,3,0.04426608639456918
4.27,0.06536491004445595,80.20812022232984,0,60,3.0,3,0.06372047581952563
4.275,0.07711726085088699,81.31122000278289,0,60,3.0,3,0.08967576477136209
4.28,0.09026570629555215,82.74374175486754,0,60,3.0,3,0.12338215893805983
4.285,0.10482339848670268,84.5533405253622,0,60,3.0,3,0.16596095353793416
4.29,0.12076968927580028,86.77515893010619,0,60,3.0,3,0.21823903364955735
4.295,0.13804539501007884,89.42391197979815,0,60,3.0,3,0.28056263481877997
4.3,0.15654895051787066,92.48601184868365,0,60,3.0,3,0.3526120434984387
4.305,0.17613378141900526,95.91294646423091,0,60,3.0,3,0.4332457991583744
4.31,0.19660720058055794,99.61726401786359,0,60,3.0,3,0.5204062121850257
4.315,0.21773108748496234,103.4724229370135,0,60,3.0,3,0.6111158338120825
4.32,0.23922453870058807,107.317402683545,0,60,3.0,3,0.7015859454951764
4.325,0.2607685857914563,110.96635024110174,0,60,3.0,3,0.7874435350847467
4.33,0.2820129681603682,114.22274096962201,0,60,3.0,3,0.8640644934028708
4.335,0.30258482867153996,116.8966991332729,0,60,3.0,3,0.9269811560770095
4.34,0.3220990771751686,118.82342375535035,0,60,3.0,3,0.972315853067067
4.345,0.3401700499968971,119.88026396726374,0,60,3.0,3,0.9971826815826763
4.35,0.3564239911198326,120.0,0,60,3.0,3,1.0
4.355,0.3705118017738417,119.1783433081767,0,60,3.0,3,0.9806669013688634
4.36,0.3821214567925213,117.47450566886323,0,60,3.0,3,0.9405766039732525
4.365,0.39098947374066967,115.00474839088832,0,60,3.0,3,0.8824646680209017
4.37,0.3969108472035567,111.92990155349591,0,60,3.0,3,0.810115330670492
4.375,0.3997469255491936,108.43872783044789,0,60,3.0,3,0.7279700665987738
4.38,0.3994308076379137,104.7295305019311,0,60,3.0,3,0.6406948353395552
4.385,0.3959699661768434,100.99248893952765,0,60,3.0,3,0.5527644456359446
4.39,0.38944595408114946,97.39486371458231,0,60,3.0,3,0.4681144403431133
4.395,0.38001120995358023,94.07055139237116,0,60,3.0,3,0.3898953268793214
4.4,0.3678831374098315,91.1146454134743,0,60,3.0,3,0.3203445979641013
4.405,0.35333577933796634,88.5828469468639,0,60,3.0,3,0.260772869337974
4.41,0.33668953221163944,86.49491404388809,0,60,3.0,3,0.21164503632677853
4.415,0.3182994390982644,84.84092970825792,0,60,3.0,3,0.17272775784136277
4.42,0.29854265738230645,83.58903512890866,0,60,3.0,3,0.14327141479785088
4.425,0.2778057157821067,82.69338027079178,0,60,3.0,3,0.12219718284215948
4.43,0.2564721553719815,82.10131785759242,0,60,3.0,3,0.10826630253158635
4.435,0.23491109433464996,81.75922079911874,0,60,3.0,3,0.10021695997926439
4.44,0.21346717185309805,81.61665631936843,0,60,3.0,3,0.09686250163219838
4.445,0.19245222055656455,81.62894315447333,0,60,3.0,3,0.09715160363466667
4.45,0.17213889801761392,81.75831982609262,0,60,3.0,3,0.10019576061394392
4.455,0.15275638501270183,81.9740569196691,0,60,3.0,3,0.10527192752162577
4.46,0.13448814019607322,82.25186848048502,0,60,3.0,3,0.11180867012905918
4.465,0.11747159495449566,82.57294133248891,0,60,3.0,3,0.11936332547032728
4.47,0.10179958433370105,82.92283264526998,0,60,3.0,3,0.12759606224164652
4.475,0.08752324394101413,83.29040798078412,0,60,3.0,3,0.1362448936655088
4.48,0.07465606047174059,83.66692017809487,0,60,3.0,3,0.1451040041904675
4.485,0.0631787448609295,84.04527242910562,0,60,3.0,3,0.1540064100966029
4.49,0.05304460019959574,84.41946941505594,0,60,3.0,3,0.16281104506013983
4.495,0.044185078305849994,84.78423701164296,0,60,3.0,3,0.17139381203865783
4.5,0.03651525513023255,85.13478033273678,0,60,3.0,3,0.1796418901820419
4.505,0.0299390014708757,85.466647720412,0,60,3.0,3,0.18745053459792937
4.51,0.024353677220580638,85.77567108148466,0,60,3.0,3,0.19472167250552141
4.515,0.01965423034339045,86.05795797916235,0,60,3.0,3,0.20136371715676124
4.52,0.015736632374757337,86.30991632969506,0,60,3.0,3,0.20729214893400133
4.525,0.012500627640593535,86.52829745546912,0,60,3.0,3,0.2124305283639792
4.53,0.009851811652115898,86.71024721641409,0,60,3.0,3,0.21671169920974329
4.535,0.007703084175428559,86.85335794517667,0,60,3.0,3,0.22007901047474515
4.54,0.005975544002062424,86.95571609025774,0,60,3.0,3,0.22248743741782911
4.545,0.004598905818663047,87.0159420257872,0,60,3.0,3,0.2239045182538164
4.55,0.0035115256454839104,87.03321960866413,0,60,3.0,3,0.2243110496156265
4.555,0.002660121266303676,87.0073139066997,0,60,3.0,3,0.2237015036870516
4.56,0.0019992692560877024,86.938576193165,0,60,3.0,3,0.22208414572152954
4.565,0.0014907520044639367,86.82793587151944,0,60,3.0,3,0.2194808440357516
4.57,0.0011028178277539807,86.67687949596854,0,60,3.0,3,0.21592657637573023
4.575,0.0008094059938923333,86.4874175045347,0,60,3.0,3,0.21146864716552247
4.58,0.0005893771793717645,86.26203968403271,0,60,3.0,3,0.20616563962429918
4.585,0.0004257792353490551,86.00366073614138,0,60,3.0,3,0.20008613496803257
4.59,0.0003051686392901525,85.71555760321358,0,60,3.0,3,0.19330723772267253
4.595,0.00021699992642659966,85.40130043404575,0,60,3.0,3,0.1859129513893118
4.6,0.00015308884054097838,85.06467921767266,0,60,3.0,3,0.17799245218053322
4.605,0.00010714989329311098,84.70962818415443,0,60,3.0,3,0.16963831021539824
4.61,7.440535854020571e-05,84.34015006520161,0,60,3.0,3,0.16094470741650854
4.615,5.1260276743925106e-05,83.9602422274949,0,60,3.0,3,0.1520056994704683
4.62,3.503659887882241e-05,83.57382654391216,0,60,3.0,3,0.14291356573910968
4.625,2.375894748103639e-05,83.18468466146989,0,60,3.0,3,0.13375728615223265
4.63,1.5984413869232557e-05,82.79640007066425,0,60,3.0,3,0.12462117813327642
4.635,1.0669166579899869e-05,82.41230809162077,0,60,3.0,3,0.11558371980284171
4.64,7.06526633560511e-06,82.03545458144112,0,60,3.0,3,0.10671657838684977
4.645,4.641847214699205e-06,81.66856384791926,0,60,3.0,3,0.09808385524515903
4.65,3.025641074479182e-06,81.31401594043791,0,60,3.0,3,0.08974155153971558
4.655,1.9566278676921314e-06,80.97383319129152,0,60,3.0,3,0.08173725155980044
4.66,1.2553456560008793e-06,80.64967561027302,0,60,3.0,3,0.07411001435936522
4.665,7.990660428214668e-07,80.34284450049499,0,60,3.0,3,0.06689045883517625
4.67,5.046221251618276e-07,80.0542934702713,0,60,3.0,3,0.06010102282991304
4.675,3.1616527078858815e-07,79.78464586832229,0,60,3.0,3,0.05375637337228909
4.68,1.9652884407760343e-07,79.53421756914149,0,60,3.0,3,0.04786394280332916
4.685,1.2120002189836396e-07,79.30304398146892,0,60,3.0,3,0.04242456426985688
4.69,7.415549848886236e-08,79.09091014291228,0,60,3.0,3,0.03743317983323008
4.695,4.501406988770349e-08,78.89738279368821,0,60,3.0,3,0.032879595145604915
4.7,0.0,78.72184338679693,0,60,3.0,3,0.028749256159927856
4.705,0.0,78.56352108441183,0,60,3.0,3,0.025024025515572517
4.71,0.0,78.42152490408645,0,60,3.0,3,0.021682938919681257
4.715,0.0,78.29487430668186,0,60,3.0,3,0.01870292486310264
4.72,0.0,78.18252765403497,0,60,3.0,3,0.016059474212587542
4.725,0.0,78.08340810217774,0,60,3.0,3,0.013727249463005698
4.73,0.0,77.99642662994414,0,60,3.0,3,0.01168062658692092
4.735,0.0,77.92050202852263,0,60,3.0,3,0.009894165377003153
4.74,0.0,77.85457779134715,0,60,3.0,3,0.008343006855227151
4.745,0.0,77.79763594309105,0,60,3.0,3,0.00700319866096593
4.75,0.0,77.7487079298358,0,60,3.0,3,0.0058519512902541785
4.755,0.0,77.70688275903142,0,60,3.0,3,0.004867829624268605
4.76,0.0,77.67131262775425,0,60,3.0,3,0.004030885358923463
4.765,0.0,77.64121631177731,0,60,3.0,3,0.0033227367477014894
4.77,0.0,77.61588060740796,0,60,3.0,3,0.0027266025272461
4.775,0.0,77.59466012461155,0,60,3.0,3,0.0022272970496835433
4.78,0.0,77.57697572556901,0,60,3.0,3,0.0018111935428003242
4.785,0.0,77.56231188956468,0,60,3.0,3,0.0014661621074042962
4.79,0.0,77.5502132650315,0,60,3.0,3,0.0011814885889765158
4.795,0.0,77.54028064465962,0,60,3.0,3,0.0009477798743439374
4.8,0.0,77.53216657151289,0,60,3.0,3,0.0007568605061856167
4.805,0.0,77.52557075468849,0,60,3.0,3,0.0006016648161997129
4.81,0.0,77.52023544355008,0,60,3.0,3,0.0004761280835312471
4.815,0.0,77.5159408810574,0,60,3.0,3,0.0003750795542918481
4.82,0.0,77.51250093004288,0,60,3.0,4,0.0002941395304206066
4.825,0.0,77.50975894204335,0,60,3.0,4,0.00022962216572583363
4.83,0.0,77.50758391686,0,60,3.0,4,0.000178445102588231
4.835,0.0,77.505866982575,0,60,3.0,4,0.00013804664882353362
4.84,0.0,77.50451821032726,0,60,3.0,4,0.00010631083122970107
4.845,0.0,77.50346376564148,0,60,3.0,4,8.150036803492773e-05
4.85,0.0,77.50264338831892,0,60,3.0,4,6.219737220977978e-05
4.855,0.0,77.50200818557703,0,60,3.0,4,4.72514253417825e-05
4.86,0.0,77.50151871796827,0,60,3.0,4,3.5734540429811044e-05
4.865,0.0,77.5011433542997,0,60,3.0,4,2.6902454110581055e-05
4.87,0.0,77.50085686999996,0,60,3.0,4,2.01616470579826e-05
4.875,0.0,77.50063926283588,0,60,3.0,4,1.5041478491184535e-05
4.88,0.0,77.50047476029029,0,60,3.0,4,1.1170830359721068e-05
4.885,0.0,77.50035099402773,0,60,3.0,4,8.258683005338111e-06
4.89,0.0,77.5002583184806,0,60,3.0,4,6.078081896569475e-06
4.895,0.0,77.5001892525059,0,60,3.0,4,4.453000138937569e-06
4.9,0.0,77.50013802514448,0,60,3.0,4,3.2476504583535324e-06
4.905,0.0,77.50010020864568,0,60,3.0,4,2.3578504865059477e-06
4.91,0.0,77.50007242401301,0,60,3.0,4,1.704094423824726e-06
4.915,0.0,77.50005210631836,0,60,3.0,4,1.2260310203306718e-06
4.92,0.0,77.50003731888009,0,60,3.0,4,8.780912962185325e-07
4.925,0.0,77.50002660708068,0,60,3.0,4,6.260489572816689e-07
4.93,0.0,77.5000188840987,0,60,3.0,4,4.443317339684975e-07
4.935,0.0,77.50001334214654,0,60,3.0,4,3.1393285988034384e-07
4.94,0.0,77.50000938394734,0,60,3.0,4,2.2079876102639794e-07
4.945,0.0,77.50000657015823,0,60,3.0,4,1.5459195845537846e-07
4.95,0.0,77.50000457927268,0,60,3.0,4,1.0774759255796466e-07
4.955,0.001684486749771458,77.50000317722223,0,60,3.0,4,7.475817001785104e-08
4.96,0.003097557930867117,77.50000219446719,0,60,3.0,4,5.163452201754005e-08
4.965,0.005475106668887023,77.5000015088324,0,60,3.0,4,3.5501938769170115e-08
4.97,0.00930222931468658,77.50000103272174,0,60,3.0,4,2.4299335082640242e-08
4.975,0.01519157517868857,77.50000070364895,0,60,3.0,4,1.6556445897924062e-08
4.98,0.023847336626128316,77.50000047726456,0,60,3.0,4,1.1229754443989162e-08
4.985,0.0359830743700859,77.50000032224986,0,60,3.0,4,7.58234966055812e-09
4.99,0.05218887796857759,77.50000021659912,0,60,3.0,4,5.0964498608236145e-09
4.995,0.0727577001223134,77.50000014492758,0,60,3.0,4,3.410060772319626e-09
5.0,0.0974992498694751,77.50000009653301,0,60,3.0,4,2.2713650463736165e-09
5.005,0.12558706050443358,77.50000006400752,0,60,3.0,4,1.5060593608830138e-09
5.01,0.15549263588878245,77.50000004224901,0,60,3.0,4,9.940944276904167e-10
5.015,0.1850529723539114,77.50000002776085,0,60,3.0,4,6.531964198289001e-10
5.02,0.21169159439317053,77.50000001815846,0,60,3.0,4,4.2725787352537734e-10
5.025,0.23277292922115492,77.50000001182377,0,60,3.0,4,2.782064043190878e-10
5.03,0.24602692519491282,77.50000000766414,0,60,3.0,4,1.8033273697844433e-10
5.035,0.24995056064839283,77.50000000494539,0,60,3.0,4,1.1636215651164735e-10
5.04,0.24408826520424054,77.50000000317665,0,60,3.0,4,7.474474895228495e-11
5.045,0.22911894216865275,77.50000000203127,0,60,3.0,4,4.779461532427162e-11
5.05,0.20672661788705934,77.50000000129299,0,60,3.0,4,3.0423266520408696e-11
5.055,0.17928878030241233,77.50000000081933,0,60,3.0,4,1.9278278320116976e-11
5.06,0.14946211903866036,77.50000000051682,0,60,3.0,4,1.2160479159587447e-11
5.065,0.1197651512573837,77.50000000032453,0,60,3.0,4,7.636077391319251e-12
5.07,0.09224675744988023,77.50000000020287,0,60,3.0,4,4.773509692099383e-12
5.075,0.06829565320281596,77.50000000012624,0,60,3.0,4,2.97023582200328e-12
5.08,0.04860224607515734,77.5000000000782,0,60,3.0,4,1.8400549058295675e-12
5.085,0.03324612389699793,77.50000000004822,0,60,3.0,4,1.1345277658513034e-12
5.09,0.021859876340472782,77.5000000000296,0,60,3.0,4,6.964990675709594e-13
5.095,0.01381595518554205,77.50000000001809,0,60,3.0,4,4.256568953518153e-13
5.1,0.008394095110402422,77.500000000011,0,60,3.0,4,2.5880474234273766e-13
5.105,0.0049052535271608,77.50000000000666,0,60,3.0,4,1.5682096144540564e-13
5.11,0.0027671663551903634,77.50000000000402,0,60,3.0,4,9.462757375063923e-14
5.115,0.0015425553464444616,77.50000000000242,0,60,3.0,4,5.684341886080802e-14
5.12,0.0009638206637011801,77.50000000000144,0,60,3.0,4,3.377167826436241e-14
5.125,0.0009804935156568228,77.50000000000085,0,60,3.0,4,2.0062383127344007e-14
5.13,0.0018793744894085216,77.50000000000051,0,60,3.0,4,1.2037429876406403e-14
5.135,0.004535525206900863,77.5000000000003,0,60,3.0,4,7.021834094570402e-15
5.14,0.010832767979632273,77.50000000000017,0,60,3.0,4,4.012476625468801e-15
5.145,0.024208003392322392,77.5000000000001,0,60,3.0,4,2.3406113648568006e-15
5.15,0.0500971897335304,77.50000000000006,0,60,3.0,4,1.3374922084896003e-15
5.155,0.09582894921774403,77.50000000000003,0,60,3.0,4,6.687461042448002e-16
5.16,0.16937896721820658,77.50000000000001,0,60,3.0,4,3.343730521224001e-16
5.165,0.27661303008991756,77.50000000000001,0,60,3.0,4,3.343730521224001e-16
5.17,0.4173782800009149,77.5,0,60,3.0,4,0.0
5.175,0.5818720934538056,77.5,0,60,3.0,4,0.0
5.18,0.7494718801585675,77.5,0,60,3.0,4,0.0
5.185,0.891813020752378,77.5,0,60,3.0,4,0.0
5.19,0.9800361632936612,77.5,0,60,3.0,4,0.0
5.195,0.993574479225126,77.50000249070214,1,60,3.0,4,5.8604756331453034e-08
5.2,0.9263438449375362,77.5000037748439,0,60,3.0,4,8.881985656765156e-08
5.205,0.7873015962290536,77.500005833579,0,60,3.0,4,1.372606822555741e-07
5.21,0.5959516244629897,77.50000928366461,0,60,3.0,4,2.1843916730337214e-07
5.215,0.376910120078773,77.500015361103,0,60,3.0,4,3.6143771754883777e-07
5.22,0.15739335672107918,77.50002659138995,0,60,3.0,4,6.256797636230177e-07
5.225,-0.033361226269301235,77.50004815927716,0,60,3.0,4,1.133159462503553e-06
5.23,-0.1680180840843834,77.5000906430617,0,60,3.0,4,2.1327779222701793e-06
5.235,-0.23069703190837854,77.50017533177136,0,60,3.0,4,4.1254534437484836e-06
5.24,-0.22587267821131068,77.50034427932519,0,60,3.0,4,8.100690004486001e-06
5.245,-0.17718181630665902,77.50067876339347,0,60,3.0,4,1.5970903375679934e-05
5.25,-0.11494332516451301,77.50133214821588,0,60,3.0,4,3.1344663903061755e-05
5.255,-0.061810214049552864,77.5025865477528,0,60,3.0,4,6.085994712467415e-05
5.26,-0.026546104631500547,77.50494731977106,0,60,3.0,4,0.00011640752402500125
5.265,-0.00719600351942686,77.50929523851232,0,60,3.0,4,0.00021871149440759086
5.27,0.0022072757983807078,77.5171226889302,0,60,3.0,4,0.0004028867983576594
5.275,0.006917199873730717,77.53088616090623,0,60,3.0,4,0.0007267331977937588
5.28,0.01004859748264829,77.55451044219848,0,60,3.0,4,0.0012825986399641752
5.285,0.013037082251128167,77.59407677734065,0,60,3.0,4,0.00221357123154462
5.29,0.01645163937690478,77.65871339087008,0,60,3.0,4,0.003734432726354739
5.295,0.020526639934696615,77.76167727564739,0,60,3.0,4,0.006157112368173798
5.3,0.02539629541761738,77.92156705033047,0,60,3.0,4,0.009919224713658035
5.305,0.031171612185577933,78.16353698380597,0,60,3.0,4,0.01561263491308162
5.31,0.03795853426638131,78.5202964150463,0,60,3.0,4,0.02400697447167772
5.315,0.0458588961882057,79.03258899051217,0,60,3.0,4,0.036060917423815696
5.32,0.054966995891435555,79.74877354393652,0,60,3.0,4,0.05291231868085935
5.325,0.06536491004445595,80.7231018809971,0,60,3.0,4,0.07583769131757896
5.33,0.07711726085088699,82.01234009388017,0,60,3.0,4,0.1061727080912981
5.335,0.09026570629555215,83.67053603700003,0,60,3.0,4,0.1451890832235302
5.34,0.10482339848670268,85.74200698045453,0,60,3.0,4,0.1939295760106949
5.345,0.12076968927580028,88.25299216597037,0,60,3.0,4,0.25301158037577337
5.35,0.13804539501007884,91.20283520772053,0,60,3.0,4,0.3224196519463653
5.355,0.15654895051787066,94.55594843457419,0,60,3.0,4,0.40131643375468684
5.36,0.17613378141900526,98.2360618659798,0,60,3.0,4,0.48790733802305425
5.365,0.19660720058055794,102.12427180024235,0,60,3.0,4,0.5793946305939377
5.37,0.21773108748496234,106.06210749842371,0,60,3.0,4,0.672049588198205
5.375,0.23922453870058807,109.86021864616963,0,60,3.0,4,0.7614169093216383
5.38,0.2607685857914563,113.31241870434148,0,60,3.0,4,0.8426451459845055
5.385,0.2820129681603682,116.21384448755202,0,60,3.0,4,0.9109139879424005
5.39,0.30258482867153996,118.38110783857866,0,60,3.0,4,0.9619084197312625
5.395,0.3220990771751686,119.6717274950356,0,60,3.0,4,0.9922759410596611
5.4,0.3401700499968971,120.0,0,60,3.0,4,1.0
5.405,0.3564239911198326,119.34686742618811,0,60,3.0,4,0.9846321747338379
5.41,0.3705118017738417,117.76221775269957,0,60,3.0,4,0.9473463000635193
5.415,0.3821214567925213,115.35924796725743,0,60,3.0,4,0.8908058345237043
5.42,0.39098947374066967,112.30178985500262,0,60,3.0,4,0.8188656436471206
5.425,0.3969108472035567,108.78658469160068,0,60,3.0,4,0.736154933920016
5.43,0.3997469255491936,105.02318183622177,0,60,3.0,4,0.6476042784993357
5.435,0.3994308076379137,101.21431013746422,0,60,3.0,4,0.5579837679403347
5.44,0.3959699661768434,97.53923277955604,0,60,3.0,4,0.4715113595189658
5.445,0.38944595408114946,94.14185919721706,0,60,3.0,4,0.39157315758157785
5.45,0.38001120995358023,91.12443922669075,0,60,3.0,4,0.3205750406280177
5.455,0.3678831374098315,88.54671365581692,0,60,3.0,4,0.25992267425451565
5.46,0.35333577933796634,86.42962122580431,0,60,3.0,4,0.21010873472480732
5.465,0.33668953221163944,84.76217841349774,0,60,3.0,4,0.17087478619994673
5.47,0.3182994390982644,83.50998827510688,0,60,3.0,4,0.14141148882604418
5.475,0.29854265738230645,82.6239592616714,0,60,3.0,4,0.12056374733344476
5.48,0.2778057157821067,82.04813671665211,0,60,3.0,4,0.10701498156828493
5.485,0.2564721553719815,81.72596289047014,0,60,3.0,4,0.09943442095223866
5.49,0.23491109433464996,81.60468893918195,0,60,3.0,4,0.09658091621604599
5.495,0.21346717185309805,81.63799504646468,0,60,3.0,4,0.09736458932858073
5.5,0.19245222055656455,81.78709744087013,0,60,3.0,4,0.10087288096165005
5.505,0.17213889801761392,82.02073014370184,0,60,3.0,4,0.10637012102827859
5.51,0.15275638501270183,82.31440368405315,0,60,3.0,4,0.11328008668360345
5.515,0.13448814019607322,82.64929288117871,0,60,3.0,4,0.12115983249832257
5.52,0.11747159495449566,83.0110225176634,0,60,3.0,4,0.12967111806266837
5.525,0.10179958433370105,83.3885292368498,0,60,3.0,4,0.13855362910234836
5.53,0.08752324394101413,83.77309765368632,0,60,3.0,4,0.1476022977337958
5.535,0.07465606047174059,84.15760717412064,0,60,3.0,4,0.15664958056754452
5.54,0.0631787448609295,84.53598520779653,0,60,3.0,4,0.1655525931246242
5.545,0.05304460019959574,84.90283979370203,0,60,3.0,4,0.17418446573416538
5.55,0.044185078305849994,85.2532355842238,0,60,3.0,4,0.18242907256997182
5.555,0.03651525513023255,85.58257682747728,0,60,3.0,4,0.1901782782935831
5.56,0.0299390014708757,85.88656538177838,0,60,3.0,4,0.19733095015949134
5.565,0.024353677220580638,86.1612079739718,0,60,3.0,4,0.20379312879933642
5.57,0.01965423034339045,86.40285309350594,0,60,3.0,4,0.2094788963177868
5.575,0.015736632374757337,86.6082432150249,0,60,3.0,4,0.21431160505940938
5.58,0.012500627640593535,86.77457218739008,0,60,3.0,4,0.21822522793859006
5.585,0.009851811652115898,86.89954068208965,0,60,3.0,4,0.22116566310799177
5.59,0.007703084175428559,86.98140477366222,0,60,3.0,4,0.22309187702734634
5.595,0.005975544002062424,87.01901427304892,0,60,3.0,4,0.22397680642468057
5.6,0.004598905818663047,87.01183856381658,0,60,3.0,4,0.22380796620744897
5.605,0.0035115256454839104,86.95997855926363,0,60,3.0,4,0.22258773080620312
5.61,0.002660121266303676,86.86416411011633,0,60,3.0,4,0.22033327317920787
5.615,0.0019992692560877024,86.72573680860323,0,60,3.0,4,0.21707616020242895
5.62,0.0014907520044639367,86.54661868443019,0,60,3.0,4,0.21286161610423968
5.625,0.0011028178277539807,86.32926778050197,0,60,3.0,4,0.20774747718828154
5.63,0.0008094059938923333,86.0766220284689,0,60,3.0,4,0.20180287125809185
5.635,0.0005893771793717645,85.79203320823416,0,60,3.0,4,0.1951066637231567
5.64,0.0004257792353490551,85.47919306210486,0,60,3.0,4,0.18774571910834953
5.645,0.0003051686392901525,85.1420538353606,0,60,3.0,4,0.1798130314202494
5.65,0.00021699992642659966,84.78474562561813,0,60,3.0,4,0.1714057794263089
5.655,0.00015308884054097838,84.41149294219383,0,60,3.0,4,0.1626233633457372
5.66,0.00010714989329311098,84.02653280638995,0,60,3.0,4,0.15356547779741062
5.665,7.440535854020571e-05,83.63403657080012,0,60,3.0,4,0.14433027225412048
5.67,5.1260276743925106e-05,83.23803741033751,0,60,3.0,4,0.13501264494911794
5.675,3.503659887882241e-05,82.8423651525489,0,60,3.0,4,0.12570270947173867
5.68,2.375894748103639e-05,82.45058978476153,0,60,3.0,4,0.11648446552380078
5.685,1.5984413869232557e-05,82.06597461680163,0,60,3.0,4,0.1074346968659206
5.69,1.0669166579899869e-05,81.69143970684148,0,60,3.0,4,0.09862211074921126
5.695,7.06526633560511e-06,81.32953579030706,0,60,3.0,4,0.09010672447781323
5.7,4.641847214699205e-06,80.98242860237454,0,60,3.0,4,0.08193949652645977
5.705,3.025641074479182e-06,80.65189316618567,0,60,3.0,4,0.07416219214554524
5.71,1.9566278676921314e-06,80.33931734191135,0,60,3.0,4,0.06680746686850245
5.715,1.2553456560008793e-06,80.04571370388507,0,60,3.0,4,0.05989914597376636
5.72,7.990660428214668e-07,79.77173863904802,0,60,3.0,4,0.05345267385995351
5.725,5.046221251618276e-07,79.51771744188935,0,60,3.0,4,0.04747570451504343
5.73,3.1616527078858815e-07,79.28367411824715,0,60,3.0,4,0.04196880278228585
5.735,1.9652884407760343e-07,79.06936459968861,0,60,3.0,4,0.03692622587502616
5.74,1.2120002189836396e-07,78.87431210665059,0,60,3.0,4,0.03233675545060217
5.745,7.415549848886236e-08,78.69784347549275,0,60,3.0,4,0.028184552364535206
5.75,4.501406988770349e-08,78.53912537444172,0,60,3.0,4,0.024450008810393508
5.755,0.0,78.39719946787567,0,60,3.0,4,0.02111057571472155
5.76,0.0,78.27101573919998,0,60,3.0,4,0.018141546804705446
5.765,0.0,78.15946334170297,0,60,3.0,4,0.015516784510658212
5.77,0.0,78.06139850691407,0,60,3.0,4,0.013209376633272327
5.775,0.0,77.97566919470562,0,60,3.0,4,0.011192216346014514
5.78,0.0,77.9011363133772,0,60,3.0,4,0.009438501491228086
5.785,0.0,77.83669146714263,0,60,3.0,4,0.007922152168061851
5.79,0.0,77.78127129994012,0,60,3.0,4,0.006618148233885075
5.795,0.0,77.73386859662963,0,60,3.0,4,0.005502790508932562
5.8,0.0,77.69354037484015,0,60,3.0,4,0.004553891172709507
5.805,0.0,77.6594132533464,0,60,3.0,4,0.0037509000787388364
5.81,0.0,77.63068641703312,0,60,3.0,4,0.0030749745184263087
5.815,0.0,77.60663251599041,0,60,3.0,4,0.002509000376244999
5.82,0.0,77.58659683924148,0,60,3.0,4,0.002037572688034823
5.825,0.0,77.5699950944462,0,60,3.0,4,0.0016469433987340916
5.83,0.0,77.5563101061534,0,60,3.0,4,0.0013249436741977446
5.835,0.0,77.54508771925303,0,60,3.0,4,0.0010608875118360657
5.84,0.0,77.53593216351848,0,60,3.0,4,0.0008454626710230888
5.845,0.0,77.52850110161448,0,60,3.0,4,0.0006706141556348405
5.85,0.0,77.52250054847673,0,60,3.0,4,0.0005294246700406588
5.855,0.0,77.51767981603862,0,60,3.0,4,0.0004159956714970041
5.86,0.0,77.51382660505939,0,60,3.0,4,0.0003253318837504166
5.865,0.0,77.51076233615936,0,60,3.0,4,0.00025323143904375575
5.87,0.0,77.50833778567196,0,60,3.0,4,0.00019618319228129622
5.875,0.0,77.50642906890162,0,60,3.0,4,0.00015127220944999168
5.88,0.0,77.50493399394611,0,60,3.0,4,0.00011609397520260246
5.885,0.0,77.50376879333639,0,60,3.0,4,8.86774902680292e-05
5.89,0.0,77.502865228177,0,60,3.0,4,6.741713357648811e-05
5.895,0.0,77.50216804994355,0,60,3.0,4,5.101293984821228e-05
5.9,0.0,77.501632798266,0,60,3.0,4,3.841878272944942e-05
5.905,0.0,77.50122390851851,0,60,3.0,4,2.8797847494388407e-05
5.91,0.0,77.50091310046415,0,60,3.0,4,2.1484716803436587e-05
5.915,0.0,77.50067801819499,0,60,3.0,4,1.5953369293864692e-05
5.92,0.0,77.50050109181922,0,60,3.0,4,1.1790395746281908e-05
5.925,0.0,77.50036859246728,0,60,3.0,4,8.672763936053396e-06
5.93,0.0,77.5002698539488,0,60,3.0,4,6.349504677500055e-06
5.935,0.0,77.50019663656475,0,60,3.0,4,4.626742700044333e-06
5.94,0.0,77.50014261097807,0,60,3.0,4,3.3555524252653197e-06
5.945,0.0,77.5001029425252,0,60,3.0,4,2.422177063595775e-06
5.95,0.0,77.50007395879989,0,60,3.0,4,1.7402070561863238e-06
5.955,0.0,77.50005288567749,0,60,3.0,4,1.2443688821322747e-06
5.96,0.0,77.5000376391206,0,60,3.0,4,8.856263672013858e-07
5.965,0.0,77.50002666208097,0,60,3.0,4,6.273430816396714e-07
5.97,0.0,77.50001879757373,0,60,3.0,4,4.422958524815733e-07
5.975,0.0,77.50001319054469,0,60,3.0,4,3.1036575746036437e-07
5.98,0.0,77.50000921248602,0,60,3.0,4,2.167643769473002e-07
5.985,0.0,77.50000640389396,0,60,3.0,4,1.506798579451724e-07
5.99,0.001684486749771458,77.500004430621,0,60,3.0,4,1.0424990598360584e-07
5.995,0.003097557930867117,77.50000305097221,0,60,3.0,4,7.178758143227777e-08
6.0,0.005475106668887023,77.50000209105319,0,60,3.0,4,4.920125153309046e-08
6.005,0.00930222931468658,77.50000142641234,0,60,3.0,4,3.356264327896283e-08
6.01,0.01519157517868857,77.50000096845238,0,60,3.0,4,2.2787114898271874e-08
6.015,0.023847336626128316,77.50000065443217,0,60,3.0,4,1.5398404015928355e-08
6.02,0.0359830743700859,77.50000044015351,0,60,3.0,4,1.0356553262039704e-08
6.025,0.05218887796857759,77.50000029464353,0,60,3.0,5,6.9327888789249464e-09
6.03,0.0727577001223134,77.50000019631017,0,60,3.0,5,4.619062779324047e-09
6.035,0.0974992498694751,77.50000013017929,0,60,3.0,5,3.0630420657390083e-09
6.04,0.12558706050443358,77.50000008591998,0,60,3.0,5,2.021646557349253e-09
6.045,0.15549263588878245,77.50000005644164,0,60,3.0,5,1.3280384791869436e-09
6.05,0.1850529723539114,77.5000000369027,0,60,3.0,5,8.682989386322921e-10
6.055,0.21169159439317053,77.5000000240143,0,60,3.0,5,5.650423083673505e-10
6.06,0.23277292922115492,77.50000001555374,0,60,3.0,5,3.6597030242881054e-10
6.065,0.24602692519491282,77.50000001002658,0,60,3.0,5,2.3591958190937634e-10
6.07,0.24995056064839283,77.50000000643315,0,60,3.0,5,1.5136834008444567e-10
6.075,0.24408826520424054,77.50000000410817,0,60,3.0,5,9.666290251890827e-11
6.08,0.22911894216865275,77.50000000261112,0,60,3.0,5,6.143803897002191e-11
6.085,0.20672661788705934,77.5000000016518,0,60,3.0,5,3.8865851713447175e-11
6.09,0.17928878030241233,77.50000000104002,0,60,3.0,5,2.447109181957785e-11
6.095,0.14946211903866036,77.50000000065175,0,60,3.0,5,1.5335351289489637e-11
6.1,0.1197651512573837,77.5000000004065,0,60,3.0,5,9.564741155961254e-12
6.105,0.09224675744988023,77.50000000025236,0,60,3.0,5,5.9377966595895805e-12
6.11,0.06829565320281596,77.50000000015592,0,60,3.0,5,3.668741127886974e-12
6.115,0.04860224607515734,77.50000000009588,0,60,3.0,5,2.2560149826698334e-12
6.12,0.03324612389699793,77.50000000005869,0,60,3.0,5,1.3809607052655123e-12
6.125,0.021859876340472782,77.50000000003575,0,60,3.0,5,8.412825991399587e-13
6.13,0.01381595518554205,77.50000000002167,0,60,3.0,5,5.099189044866601e-13
6.135,0.008394095110402422,77.50000000001309,0,60,3.0,5,3.079575810047305e-13
6.14,0.0049052535271608,77.50000000000786,0,60,3.0,5,1.8490829782368725e-13
6.145,0.0027671663551903634,77.5000000000047,0,60,3.0,5,1.1067748025251443e-13
6.15,0.0015425553464444616,77.5000000000028,0,60,3.0,5,6.587149126811282e-14
6.155,0.0009638206637011801,77.50000000000165,0,60,3.0,5,3.878727404619841e-14
6.16,0.0009804935156568228,77.50000000000098,0,60,3.0,5,2.3071740596445606e-14
6.165,0.0018793744894085216,77.50000000000057,0,60,3.0,5,1.3374922084896003e-14
6.17,0.004535525206900863,77.50000000000033,0,60,3.0,5,7.690580198815202e-15
6.175,0.010832767979632273,77.5000000000002,0,60,3.0,5,4.681222729713601e-15
6.18,0.024208003392322392,77.50000000000011,0,60,3.0,5,2.6749844169792007e-15
6.185,0.0500971897335304,77.50000000000007,0,60,3.0,5,1.6718652606120004e-15
6.19,0.09582894921774403,77.50000000000004,0,60,3.0,5,1.0031191563672002e-15
6.195,0.16937896721820658,77.50000000000001,0,60,3.0,5,3.343730521224001e-16
6.2,0.27661303008991756,77.50000000000001,0,60,3.0,5,3.343730521224001e-16
6.205,0.4173782800009149,77.5,0,60,3.0,5,0.0
6.21,0.5818720934538056,77.5,0,60,3.0,5,0.0
6.215,0.7494718801585675,77.5,0,60,3.0,5,0.0
6.22,0.891813020752378,77.5,0,60,3.0,5,0.0
6.225,0.9800361632936612,77.5,0,60,3.0,5,0.0
6.23,0.993574479225126,77.50000249379623,1,60,3.0,5,5.8677558372972485e-08
6.235,0.9263438449375362,77.50000391718795,0,60,3.0,5,9.216912831909533e-08
6.24,0.7873015962290536,77.50000630150961,0,60,3.0,5,1.4827081446021431e-07
6.245,0.5959516244629897,77.5000105140369,0,60,3.0,5,2.473891035659857e-07
6.25,0.376910120078773,77.50001840698704,0,60,3.0,5,4.331055773785492e-07
6.255,0.15739335672107918,77.50003400964872,0,60,3.0,5,8.002270285888859e-07
6.26,-0.033361226269301235,77.50006609644886,0,60,3.0,5,1.5552105614514243e-06
6.265,-0.1680180840843834,77.50013356232397,0,60,3.0,5,3.1426429168678785e-06
6.27,-0.23069703190837854,77.50027632336332,0,60,3.0,5,6.501726195839343e-06
6.275,-0.22587267821131068,77.50057668790406,0,60,3.0,5,1.3569127154302324e-05
6.28,-0.17718181630665902,77.50119979487688,0,60,3.0,5,2.8230467691347417e-05
6.285,-0.11494332516451301,77.50246734685948,0,60,3.0,5,5.80552202229549e-05
6.29,-0.061810214049552864,77.50498694254254,0,60,3.0,5,0.00011733982453045107
6.295,-0.026546104631500547,77.50986989510379,0,60,3.0,5,0.00023223282597153712
6.3,-0.00719600351942686,77.51908262989394,0,60,3.0,5,0.00044900305632809785
6.305,0.0022072757983807078,77.53598806050526,0,60,3.0,5,0.0008467778942414337
6.31,0.006917199873730717,77.5661388335815,0,60,3.0,5,0.0015562078489765822
6.315,0.01004859748264829,77.61837627811394,0,60,3.0,5,0.0027853241909162854
6.32,0.013037082251128167,77.70625715723415,0,60,3.0,5,0.004853109581979959
6.325,0.01645163937690478,77.84976424958334,0,60,3.0,5,0.008229747049019874
6.33,0.020526639934696615,78.07714907313756,0,60,3.0,5,0.01357997819147205
6.335,0.02539629541761738,78.42660746482035,0,60,3.0,5,0.021802528584008236
6.34,0.031171612185577933,78.94731857168912,0,60,3.0,5,0.034054554627979385
6.345,0.03795853426638131,79.69922288771569,0,60,3.0,5,0.05174642088742804
6.35,0.0458588961882057,80.75083343091529,0,60,3.0,5,0.07649019837447749
6.355,0.054966995891435555,82.17443594424168,0,60,3.0,5,0.10998672809980423
6.36,0.06536491004445595,84.03830214667643,0,60,3.0,5,0.15384240345121009
6.365,0.07711726085088699,86.39604373737505,0,60,3.0,5,0.20931867617353064
6.37,0.09026570629555215,89.2739411348602,0,60,3.0,5,0.277033909055534
6.375,0.10482339848670268,92.6578763804036,0,60,3.0,5,0.3566559148330257
6.38,0.12076968927580028,96.48219417074539,0,60,3.0,5,0.44663986284106794
6.385,0.13804539501007884,100.62317626104648,0,60,3.0,5,0.5440747355540348
6.39,0.15654895051787066,104.89963122754831,0,60,3.0,5,0.6446972053540779
6.395,0.17613378141900526,109.08226138097591,0,60,3.0,5,0.7431120324935507
6.4,0.19660720058055794,112.91202435562403,0,60,3.0,5,0.8332241024852712
6.405,0.21773108748496234,116.12590285572924,0,60,3.0,5,0.908844773075982
6.41,0.23922453870058807,118.48673321912287,0,60,3.0,5,0.964393722802891
6.415,0.2607685857914563,119.81248326881075,0,60,3.0,5,0.9955878416190765
6.42,0.2820129681603682,120.0,0,60,3.0,5,1.0
6.425,0.30258482867153996,119.03895265764984,0,60,3.0,5,0.9773871213564669
6.43,0.3220990771751686,117.01338144972989,0,60,3.0,5,0.9297266223465857
6.435,0.3401700499968971,114.09055937282247,0,60,3.0,5,0.8609543381840581
6.44,0.3564239911198326,110.49924173293033,0,60,3.0,5,0.7764527466571842
6.445,0.3705118017738417,106.501252019056,0,60,3.0,5,0.6823824004483764
6.45,0.3821214567925213,102.3613128393379,0,60,3.0,5,0.5849720668079506
6.455,0.39098947374066967,98.31991189297068,0,60,3.0,5,0.48988027983460425
6.46,0.3969108472035567,94.57291708101874,0,60,3.0,5,0.40171569602397045
6.465,0.3997469255491936,91.2599713216292,0,60,3.0,5,0.3237640310971575
6.47,0.3994308076379137,88.46186297981151,0,60,3.0,5,0.25792618776027093
6.475,0.3959699661768434,86.2055083156022,0,60,3.0,5,0.20483548977887533
6.48,0.38944595408114946,84.47418553637537,0,60,3.0,5,0.1640984832088323
6.485,0.38001120995358023,83.22032439628626,0,60,3.0,5,0.13459586814791197
6.49,0.3678831374098315,82.3784030507939,0,60,3.0,5,0.11478595413632721
6.495,0.35333577933796634,81.87614033165356,0,60,3.0,5,0.10296800780361316
6.5,0.33668953221163944,81.6429627878982,0,60,3.0,5,0.09748147736231057
6.505,0.3182994390982644,81.61546715457652,0,60,3.0,5,0.09683452128415344
6.51,0.29854265738230645,81.74015709851017,0,60,3.0,5,0.09976840231788628
6.515,0.2778057157821067,81.9740569196691,0,60,3.0,5,0.10527192752162577
6.52,0.2564721553719815,82.28391103867587,0,60,3.0,5,0.1125626126747263
6.525,0.23491109433464996,82.64462413530069,0,60,3.0,5,0.12104997965413385
6.53,0.21346717185309805,83.03745309290495,0,60,3.0,5,0.1302930139507048
6.535,0.19245222055656455,83.4482905955028,0,60,3.0,5,0.13995977871771287
6.54,0.17213889801761392,83.86622429212309,0,60,3.0,5,0.14979351275583747
6.545,0.15275638501270183,84.28243683268946,0,60,3.0,5,0.1595867490044578
6.55,0.13448814019607322,84.68943573432038,0,60,3.0,5,0.1691631937487149
6.555,0.11747159495449566,85.08056227854561,0,60,3.0,5,0.1783661712598968
6.56,0.10179958433370105,85.44971522709557,0,60,3.0,5,0.18705212299048393
6.565,0.08752324394101413,85.79122761200028,0,60,3.0,5,0.19508770851765375
6.57,0.07465606047174059,86.09984484761954,0,60,3.0,5,0.2023492905322244
6.575,0.0631787448609295,86.37076438636134,0,60,3.0,5,0.20872386791438458
6.58,0.05304460019959574,86.59970808382359,0,60,3.0,5,0.2141107784429079
6.585,0.044185078305849994,86.7830071632666,0,60,3.0,5,0.2184236979592142
6.59,0.03651525513023255,86.91768606859858,0,60,3.0,5,0.22159261337879022
6.595,0.0299390014708757,87.00153597091433,0,60,3.0,5,0.22356555225680783
6.6,0.024353677220580638,87.03317178450779,0,60,3.0,5,0.22430992434135968
6.605,0.01965423034339045,87.01206873798577,0,60,3.0,5,0.22381338207025345
6.61,0.015736632374757337,86.938576193165,0,60,3.0,5,0.22208414572152954
6.615,0.012500627640593535,86.81390773863106,0,60,3.0,5,0.2191507703207308
6.62,0.009851811652115898,86.64010773261553,0,60,3.0,5,0.21506135841448312
6.625,0.007703084175428559,86.41999548610957,0,60,3.0,5,0.2098822467319899
6.63,0.005975544002062424,86.15708917317427,0,60,3.0,5,0.2036962158393946
6.635,0.004598905818663047,85.85551231983004,0,60,3.0,5,0.1966002898783539
6.64,0.0035115256454839104,85.5198863357969,0,60,3.0,5,0.18870320790110348
6.645,0.002660121266303676,85.15521299527994,0,60,3.0,5,0.18012265871246916
6.65,0.0019992692560877024,84.76675103026113,0,60,3.0,5,0.17098237718261491
6.655,0.0014907520044639367,84.35989106720938,0,60,3.0,5,0.16140920158139707
6.66,0.0011028178277539807,83.94003302017312,0,60,3.0,5,0.15153018870995572
6.665,0.0008094059938923333,83.51246976372725,0,60,3.0,5,0.14146987679358242
6.67,0.0005893771793717645,83.082280470485,0,60,3.0,5,0.13134777577611773
6.675,0.0004257792353490551,82.65423643892917,0,60,3.0,5,0.12127615150421588
6.68,0.0003051686392901525,82.23272159200907,0,60,3.0,5,0.11135815510609579
6.685,0.00021699992642659966,81.8216691316493,0,60,3.0,5,0.10168633250939532
6.69,0.00015308884054097838,81.4245151256355,0,60,3.0,5,0.09234153236789398
6.695,0.00010714989329311098,81.0441691159847,0,60,3.0,5,0.08339221449375767
6.7,7.440535854020571e-05,80.683001202808,0,60,3.0,5,0.07489414594842354
6.705,5.1260276743925106e-05,80.34284450049499,0,60,3.0,5,0.06689045883517625
6.71,3.503659887882241e-05,80.02501140315086,0,60,3.0,5,0.05941203301531426
6.715,2.375894748103639e-05,79.73032174609531,0,60,3.0,5,0.052478158731654435
6.72,1.5984413869232557e-05,79.4591407154507,0,60,3.0,5,0.04609742859884002
6.725,1.0669166579899869e-05,79.21142423740287,0,60,3.0,5,0.04026880558594979
6.73,7.06526633560511e-06,78.9867695657814,0,60,3.0,5,0.03498281331250355
6.735,4.641847214699205e-06,78.78446886954399,0,60,3.0,5,0.030222796930446723
6.74,3.025641074479182e-06,78.60356378533176,0,60,3.0,5,0.025966206713688426
6.745,1.9566278676921314e-06,78.44289912695085,0,60,3.0,5,0.022185861810608203
6.75,1.2553456560008793e-06,78.30117421486159,0,60,3.0,5,0.018851157996743282
6.755,7.990660428214668e-07,78.17699058609722,0,60,3.0,5,0.015929190261111028
6.76,5.046221251618276e-07,78.0688951512295,0,60,3.0,5,0.013385768264223476
6.765,3.1616527078858815e-07,77.97541816475811,0,60,3.0,5,0.011186309759014367
6.77,1.9652884407760343e-07,77.89510565587798,0,60,3.0,5,0.00929660366771727
6.775,1.2120002189836396e-07,77.82654621810562,0,60,3.0,5,0.007683440426014573
6.78,7.415549848886236e-08,77.7683922718456,0,60,3.0,5,0.006315112278719974
6.785,4.501406988770349e-08,77.71937608967772,0,60,3.0,5,0.0051617903453582
6.79,0.0,77.67832100862636,0,60,3.0,5,0.00419578843826718
6.795,0.0,77.64414834790306,0,60,3.0,5,0.0033917258330130634
6.8,0.0,77.61588060740796,0,60,3.0,5,0.0027266025272461
6.805,0.0,77.59264154581128,0,60,3.0,5,0.0021798010779123696
6.81,0.0,77.57365373238999,0,60,3.0,5,0.0017330289974114186
6.815,0.0,77.55823413948939,0,60,3.0,5,0.0013702150468090808
6.82,0.0,77.54578829810711,0,60,3.0,5,0.0010773717201673476
6.825,0.0,77.53580348299825,0,60,3.0,5,0.0008424348940764048
6.83,0.0,77.52784133072689,0,60,3.0,5,0.0006550901347502665
6.835,0.0,77.5215302284374,0,60,3.0,5,0.0005065936102917422
6.84,0.0,77.51655774624525,0,60,3.0,5,0.00038959402930010905
6.845,0.0,77.51266332472912,0,60,3.0,5,0.00029796058186160306
6.85,0.0,77.50963137297701,0,60,3.0,5,0.0002266205406355686
6.855,0.0,77.50728488323819,0,60,3.0,5,0.00017140901736906124
6.86,0.0,77.50547962610095,0,60,3.0,5,0.00012893237884588202
6.865,0.0,77.5040989553958,0,60,3.0,5,9.644600931303959e-05
6.87,0.0,77.50304922446462,0,60,3.0,5,7.174645799101894e-05
6.875,0.0,77.50225579450853,0,60,3.0,5,5.3077517847722284e-05
6.88,0.0,77.50165960070633,0,60,3.0,5,3.904942838430008e-05
6.885,0.0,77.50121423185787,0,60,3.0,5,2.8570161361706006e-05
6.89,0.0,77.50088347359097,0,60,3.0,5,2.0787613905280096e-05
6.895,0.0,77.50063926283588,0,60,3.0,5,1.5041478491184535e-05
6.9,0.0,77.5004600015325,0,60,3.0,5,1.0823565470646452e-05
6.905,0.0,77.5003291796934,0,60,3.0,5,7.745404550472385e-06
6.91,0.0,77.50023426139796,0,60,3.0,5,5.512032893260339e-06
6.915,0.0,77.50016579153834,0,60,3.0,5,3.900977372615992e-06
6.92,0.0,77.50011668577856,0,60,3.0,5,2.7455477309371525e-06
6.925,0.0,77.50008167091697,0,60,3.0,5,1.921668634582495e-06
6.93,0.0,77.5000568474347,0,60,3.0,5,1.3375866989703996e-06
6.935,0.0,77.50003935031812,0,60,3.0,5,9.258898380855552e-07
6.94,0.0,77.50002708816338,0,60,3.0,5,6.373685500741832e-07
6.945,0.001684486749771458,77.50001854405937,0,60,3.0,5,4.3633080876508543e-07
6.95,0.003097557930867117,77.50001262478511,0,60,3.0,5,2.970537673932353e-07
6.955,0.005475106668887023,77.50000854746077,0,60,3.0,5,2.0111672390211263e-07
6.96,0.00930222931468658,77.50000575498471,0,60,3.0,5,1.3541140500659395e-07
6.965,0.01519157517868857,77.50000385340955,0,60,3.0,5,9.066846005493169e-08
6.97,0.023847336626128316,77.50000256590221,0,60,3.0,5,6.037416958005291e-08
6.975,0.0359830743700859,77.50000169913923,0,60,3.0,5,3.997974665574421e-08
6.98,0.05218887796857759,77.50000111895281,0,60,3.0,5,2.6328301400473507e-08
6.985,0.0727577001223134,77.50000073280515,0,60,3.0,5,1.724247407336781e-08
6.99,0.0974992498694751,77.50000047726456,0,60,3.0,5,1.1229754443989162e-08
6.995,0.12558706050443358,77.50000030911765,0,60,3.0,5,7.273356526210966e-09
7.0,0.15549263588878245,77.50000019910509,0,60,3.0,5,4.68482559935022e-09
7.005,0.1850529723539114,77.5000001275366,0,60,3.0,5,3.0008610498471708e-09
7.01,0.21169159439317053,77.50000008124212,0,60,3.0,5,1.9115793079168616e-09
7.015,0.23277292922115492,77.50000005146615,0,60,3.0,5,1.2109681205509012e-09
7.02,0.24602692519491282,77.5000000324232,0,60,3.0,5,7.628988682614256e-10
7.025,0.24995056064839283,77.50000002031346,0,60,3.0,5,4.779638750144787e-10
7.03,0.24408826520424054,77.50000001265629,0,60,3.0,5,2.9779498083157436e-10
7.035,0.22911894216865275,77.50000000784192,0,60,3.0,5,1.8451574386049555e-10
7.04,0.20672661788705934,77.50000000483206,0,60,3.0,5,1.1369553142097122e-10
7.045,0.17928878030241233,77.50000000296099,0,60,3.0,5,6.967030351327541e-11
7.05,0.14946211903866036,77.50000000180441,0,60,3.0,5,4.245668392018963e-11
7.055,0.1197651512573837,77.50000000109351,0,60,3.0,5,2.5729671987766563e-11
7.06,0.09224675744988023,77.50000000065904,0,60,3.0,5,1.5506884665228427e-11
7.065,0.06829565320281596,77.50000000039499,0,60,3.0,5,9.29389898374211e-12
7.07,0.04860224607515734,77.50000000023543,0,60,3.0,5,5.539558354511802e-12
7.075,0.03324612389699793,77.50000000013955,0,60,3.0,5,3.283543371841969e-12
7.08,0.021859876340472782,77.50000000008227,0,60,3.0,5,1.935685598736574e-12
7.085,0.01381595518554205,77.50000000004822,0,60,3.0,5,1.1345277658513034e-12
7.09,0.008394095110402422,77.50000000002811,0,60,3.0,5,6.613898970981073e-13
7.095,0.0049052535271608,77.5000000000163,0,60,3.0,5,3.835258907843929e-13
7.1,0.0027671663551903634,77.5000000000094,0,60,3.0,5,2.2102058745290646e-13
7.105,0.0015425553464444616,77.50000000000539,0,60,3.0,5,1.2672738675438964e-13
7.11,0.0009638206637011801,77.50000000000307,0,60,3.0,5,7.222457925843841e-14
7.115,0.0009804935156568228,77.50000000000175,0,60,3.0,5,4.112788541105521e-14
7.12,0.0018793744894085216,77.50000000000098,0,60,3.0,5,2.3071740596445606e-14
7.125,0.004535525206900863,77.50000000000055,0,60,3.0,5,1.3040549032773603e-14
7.13,0.010832767979632273,77.50000000000031,0,60,3.0,5,7.356207146692803e-15
7.135,0.024208003392322392,77.50000000000017,0,60,3.0,5,4.012476625468801e-15
7.14,0.0500971897335304,77.5000000000001,0,60,3.0,5,2.3406113648568006e-15
7.145,0.09582894921774403,77.50000000000006,0,60,3.0,5,1.3374922084896003e-15
7.15,0.16937896721820658,77.50000000000003,0,60,3.0,5,6.687461042448002e-16
7.155,0.27661303008991756,77.50000000000001,0,60,3.0,5,3.343730521224001e-16
7.16,0.4173782800009149,77.50000000000001,0,60,3.0,5,3.343730521224001e-16
7.165,0.5818720934538056,77.5,0,60,3.0,5,0.0
7.17,0.7494718801585675,77.5,0,60,3.0,5,0.0
7.175,0.891813020752378,77.5,0,60,3.0,5,0.0
7.18,0.9800361632936612,77.5,0,60,3.0,5,0.0
7.185,0.993574479225126,77.50000249379623,1,60,3.0,5,5.8677558372972485e-08
7.19,0.9263438449375362,77.50000387113866,0,60,3.0,5,9.108561551543329e-08
7.195,0.7873015962290536,77.50000614495686,0,60,3.0,5,1.44587220146979e-07
7.2,0.5959516244629897,77.50001009206693,0,60,3.0,5,2.3746039834590835e-07
7.205,0.376910120078773,77.5000173369902,0,60,3.0,5,4.079291811114458e-07
7.21,0.15739335672107918,77.50003134163862,0,60,3.0,5,7.37450320417231e-07
7.215,-0.033361226269301235,77.50005950089377,0,60,3.0,5,1.4000210298678105e-06
7.22,-0.1680180840843834,77.50011746182723,0,60,3.0,5,2.7638076995331443e-06
7.225,-0.23069703190837854,77.50023776471434,0,60,3.0,5,5.594463866868062e-06
7.23,-0.22587267821131068,77.50048658883156,0,60,3.0,6,1.1449148977964583e-05
7.235,-0.17718181630665902,77.50099513789219,0,60,3.0,6,2.341500922799402e-05
7.24,-0.11494332516451301,77.50201644570332,0,60,3.0,6,4.744578125456321e-05
7.245,-0.061810214049552864,77.50402451354624,0,60,3.0,6,9.469443638214911e-05
7.25,-0.026546104631500547,77.50788085207563,0,60,3.0,6,0.00018543181354422868
7.255,-0.00719600351942686,77.51510323642296,0,60,3.0,6,0.0003553702687755129
7.26,0.0022072757983807078,77.52828124048683,0,60,3.0,6,0.0006654409526313831
7.265,0.006917199873730717,77.55168968563063,0,60,3.0,6,0.001216227897191402
7.27,0.01004859748264829,77.59214923171803,0,60,3.0,6,0.002168217216894712
7.275,0.013037082251128167,77.66016563836381,0,60,3.0,6,0.0037686032556189944
7.28,0.01645163937690478,77.77133735087011,0,60,3.0,6,0.006384408255767352
7.285,0.020526639934696615,77.94794785355886,0,60,3.0,6,0.01053994949550255
7.29,0.02539629541761738,78.22055245920677,0,60,3.0,6,0.01695417551074757
7.295,0.031171612185577933,78.62923630281921,0,60,3.0,6,0.02657026594868726
7.3,0.03795853426638131,79.22408280415199,0,60,3.0,6,0.040566654215340954
7.305,0.0458588961882057,80.06428738171843,0,60,3.0,6,0.06033617368749246
7.31,0.054966995891435555,81.21533054261677,0,60,3.0,6,0.0874195421792181
7.315,0.06536491004445595,82.74374175486754,0,60,3.0,6,0.12338215893805983
7.32,0.07711726085088699,84.70928122426405,0,60,3.0,6,0.16963014645327168
7.325,0.09026570629555215,87.1548465652038,0,60,3.0,6,0.2271728603577364
7.33,0.10482339848670268,90.09502724164179,0,60,3.0,6,0.29635358215627733
7.335,0.12076968927580028,93.50487114298438,0,60,3.0,6,0.3765852033643385
7.34,0.13804539501007884,97.31093238205123,0,60,3.0,6,0.46613958546002904
7.345,0.15654895051787066,101.38685595826713,0,60,3.0,6,0.5620436696062855
7.35,0.17613378141900526,105.55547445391579,0,60,3.0,6,0.6601288106803715
7.355,0.19660720058055794,109.59858538401849,0,60,3.0,6,0.755260832565141
7.36,0.21773108748496234,113.27431955233847,0,60,3.0,6,0.8417486953491404
7.365,0.23922453870058807,116.34051861380365,0,60,3.0,6,0.9138945556189094
7.37,0.2607685857914563,118.58114006736284,0,60,3.0,6,0.9666150604085374
7.375,0.2820129681603682,119.8317565853096,0,60,3.0,6,0.9960413314190495
7.38,0.30258482867153996,120.0,0,60,3.0,6,1.0
7.385,0.3220990771751686,119.07744164457799,0,60,3.0,6,0.9782927445783056
7.39,0.3401700499968971,117.14080910839245,0,60,3.0,6,0.9327249201974693
7.395,0.3564239911198326,114.34232070302158,0,60,3.0,6,0.8668781341887432
7.4,0.3705118017738417,110.89084986176812,0,60,3.0,6,0.7856670555710146
7.405,0.3821214567925213,107.02717543587835,0,60,3.0,6,0.6947570690794905
7.41,0.39098947374066967,102.99739961797562,0,60,3.0,6,0.5999388145406027
7.415,0.3969108472035567,99.02858404930407,0,60,3.0,6,0.5065549188071546
7.42,0.3997469255491936,95.309845089302,0,60,3.0,6,0.4190551785718118
7.425,0.3994308076379137,91.98081845212747,0,60,3.0,6,0.340725140050058
7.43,0.3959699661768434,89.12790132529386,0,60,3.0,6,0.27359767824220854
7.435,0.38944595408114946,86.78734731342963,0,60,3.0,6,0.21852581913952082
7.44,0.38001120995358023,84.9533724015562,0,60,3.0,6,0.17537346827191044
7.445,0.3678831374098315,83.58903512890868,0,60,3.0,6,0.14327141479785122
7.45,0.35333577933796634,82.63774874869135,0,60,3.0,6,0.1208882058515612
7.455,0.33668953221163944,82.0337334377467,0,60,3.0,6,0.10667608088815775
7.46,0.3182994390982644,81.71034347243264,0,60,3.0,6,0.09906690523370919
7.465,0.29854265738230645,81.60583753471548,0,60,3.0,6,0.09660794199330533
7.47,0.2778057157821067,81.66667643687869,0,60,3.0,6,0.0980394455736162
7.475,0.2564721553719815,81.84876988678565,0,60,3.0,6,0.10232399733613286
7.48,0.23491109433464996,82.11724772973115,0,60,3.0,6,0.10864112305249758
7.485,0.21346717185309805,82.44533609838746,0,60,3.0,6,0.11636084937382253
7.49,0.19245222055656455,82.81282786982345,0,60,3.0,6,0.1250077145840812
7.495,0.17213889801761392,83.2045024139376,0,60,3.0,6,0.13422358621029656
7.5,0.15275638501270183,83.60871282730876,0,60,3.0,6,0.14373441946608856
7.505,0.13448814019607322,84.01624472320185,0,60,3.0,6,0.15332340525180826
7.51,0.11747159495449566,84.41946941505593,0,60,3.0,6,0.1628110450601395
7.515,0.10179958433370105,84.81176549258696,0,60,3.0,6,0.17204154100204605
7.52,0.08752324394101413,85.18715992974894,0,60,3.0,6,0.18087435128821044
7.525,0.07465606047174059,85.54013465057005,0,60,3.0,6,0.18917963883694242
7.53,0.0631787448609295,85.86554926666517,0,60,3.0,6,0.1968364533332981
7.535,0.05304460019959574,86.1586397512219,0,60,3.0,6,0.20373270002875055
7.54,0.044185078305849994,86.41506250951961,0,60,3.0,6,0.20976617669457917
7.545,0.03651525513023255,86.6309617919093,0,60,3.0,6,0.2148461598096306
7.55,0.0299390014708757,86.80304503126104,0,60,3.0,6,0.21889517720614202
7.555,0.024353677220580638,86.92865552465399,0,60,3.0,6,0.22185071822715272
7.56,0.01965423034339045,87.00583527328615,0,60,3.0,6,0.22366671231261534
7.565,0.015736632374757337,87.03337316307264,0,60,3.0,6,0.22431466266053268
7.57,0.012500627640593535,87.01083537210316,0,60,3.0,6,0.22378436169654492
7.575,0.009851811652115898,86.938576193165,0,60,3.0,6,0.22208414572152954
7.58,0.007703084175428559,86.81772852740197,0,60,3.0,6,0.2192406712329875
7.585,0.005975544002062424,86.65017423074696,0,60,3.0,6,0.21529821719404602
7.59,0.004598905818663047,86.43849531771997,0,60,3.0,6,0.2103175368875287
7.595,0.0035115256454839104,86.18590775527554,0,60,3.0,6,0.20437430012413027
7.6,0.002660121266303676,85.8961802035904,0,60,3.0,6,0.19755718126095068
7.605,0.0019992692560877024,85.57354056557351,0,60,3.0,6,0.1899656603664355
7.61,0.0014907520044639367,85.22257357723743,0,60,3.0,6,0.1817076135820571
7.615,0.0011028178277539807,84.84811289585821,0,60,3.0,6,0.17289677402019313
7.62,0.0008094059938923333,84.4551312173353,0,60,3.0,6,0.16365014629024252
7.625,0.0005893771793717645,84.04863188079896,0,60,3.0,6,0.15408545601879917
7.63,0.0004257792353490551,83.63354520691325,0,60,3.0,6,0.1443187107509001
7.635,0.0003051686392901525,83.21463248261027,0,60,3.0,6,0.13446194076730048
7.64,0.00021699992642659966,82.79640007066425,0,60,3.0,6,0.12462117813327642
7.645,0.00015308884054097838,82.38302561301214,0,60,3.0,6,0.11489472030616793
7.65,0.00010714989329311098,81.97829773979932,0,60,3.0,6,0.1053717115246898
7.655,7.440535854020571e-05,81.58557012016932,0,60,3.0,6,0.09613106165104288
7.66,5.1260276743925106e-05,81.20773012323724,0,60,3.0,6,0.08724070878205271
7.665,3.503659887882241e-05,80.84718182348887,0,60,3.0,6,0.07875721937620864
7.67,2.375894748103639e-05,80.50584260541186,0,60,3.0,6,0.07072570836263192
7.675,1.5984413869232557e-05,80.18515221437653,0,60,3.0,6,0.06318005210297717
7.68,1.0669166579899869e-05,79.88609277648273,0,60,3.0,6,0.05614335944665239
7.685,7.06526633560511e-06,79.60921807587849,0,60,3.0,6,0.0496286606089056
7.69,4.641847214699205e-06,79.35469023543456,0,60,3.0,6,0.04363977024551907
7.695,3.025641074479182e-06,79.12232189244838,0,60,3.0,6,0.03817227982231489
7.7,1.9566278676921314e-06,78.91162198804986,0,60,3.0,6,0.03321463501293786
7.705,1.2553456560008793e-06,78.72184338679695,0,60,3.0,6,0.02874925615992819
7.71,7.990660428214668e-07,78.55203069891354,0,60,3.0,6,0.024753663503848014
7.715,5.046221251618276e-07,78.4010668777479,0,60,3.0,6,0.021201573594068095
7.72,3.1616527078858815e-07,78.2677173949188,0,60,3.0,6,0.018063938703971872
7.725,1.9652884407760343e-07,78.15067104128426,0,60,3.0,6,0.015309906853747179
7.73,1.2120002189836396e-07,78.04857665043636,0,60,3.0,6,0.012907685892620226
7.735,7.415549848886236e-08,77.96007528166045,0,60,3.0,6,0.010825300744951792
7.74,4.501406988770349e-08,77.88382762196936,0,60,3.0,6,0.009031238163984934
7.745,0.0,77.81853656491259,0,60,3.0,6,0.007494977997943325
7.75,0.0,77.76296509259281,0,60,3.0,6,0.006187413943360177
7.755,0.0,77.71594972407637,0,60,3.0,6,0.005081169978267459
7.76,0.0,77.6764098974902,0,60,3.0,6,0.004150821117416533
7.765,0.0,77.64335372555104,0,60,3.0,6,0.003373028836494996
7.77,0.0,77.61588060740796,0,60,3.0,6,0.0027266025272461
7.775,0.0,77.59318119681424,0,60,3.0,6,0.002192498748570415
7.78,0.0,77.5745352217389,0,60,3.0,6,0.001753769923268197
7.785,0.0,77.55930762785665,0,60,3.0,6,0.0013954735966271582
7.79,0.0,77.54694348223622,0,60,3.0,6,0.001104552523205083
7.795,0.0,77.53696202809876,0,60,3.0,6,0.0008696947787942623
7.8,0.0,77.52895023050213,0,60,3.0,6,0.0006811818941678345
7.805,0.0,77.52255609948452,0,60,3.0,6,0.0005307317525768988
7.81,0.0,77.5174820242859,0,60,3.0,6,0.0004113417479034604
7.815,0.0,77.51347830188524,0,60,3.0,6,0.0003171365149468971
7.82,0.0,77.51033699680363,0,60,3.0,6,0.00024322345420306889
7.825,0.0,77.50788622796446,0,60,3.0,6,0.00018555830504617596
7.83,0.0,77.50598494293993,0,60,3.0,6,0.00014082218682193236
7.835,0.0,77.50451821032726,0,60,3.0,6,0.00010631083122970107
7.84,0.0,77.50339303715964,0,60,3.0,6,7.983616846211268e-05
7.845,0.0,77.50253469979884,0,60,3.0,6,5.963999526690767e-05
7.85,0.0,77.50188356315793,0,60,3.0,6,4.431913312781516e-05
7.855,0.0,77.5013923537419,0,60,3.0,6,3.276126451543646e-05
7.86,0.0,77.501023846212,0,60,3.0,6,2.4090499105715722e-05
7.865,0.0,77.50074892031576,0,60,3.0,6,1.7621654488413484e-05
7.87,0.0,77.5005449444552,0,60,3.0,6,1.2822222475292353e-05
7.875,0.0,77.50039444332097,0,60,3.0,6,9.281019316965873e-06
7.88,0.0,77.50028400940215,0,60,3.0,6,6.682574168253803e-06
7.885,0.0,77.5002034213682,0,60,3.0,6,4.786385134072107e-06
7.89,0.0,77.50014493596511,0,60,3.0,6,3.410258002598793e-06
7.895,0.0,77.50010272390129,0,60,3.0,6,2.417032971593739e-06
7.9,0.0,77.50007242401301,0,60,3.0,6,1.704094423824726e-06
7.905,0.0,77.50005079364838,0,60,3.0,6,1.1951446678642029e-06
7.91,0.0,77.50003543659405,0,60,3.0,6,8.338022128635417e-07
7.915,0.0,77.50002459293042,0,60,3.0,6,5.786571862512681e-07
7.92,0.0,77.50001697791406,0,60,3.0,6,3.994803307705297e-07
7.925,0.001684486749771458,77.5000116593442,0,60,3.0,6,2.7433751049155786e-07
7.93,0.003097557930867117,77.50000796488771,0,60,3.0,6,1.874091226989763e-07
7.935,0.005475106668887023,77.5000054125377,0,60,3.0,6,1.2735382831445296e-07
7.94,0.00930222931468658,77.50000365879397,0,60,3.0,6,8.608926992458103e-08
7.945,0.01519157517868857,77.50000246031502,0,60,3.0,6,5.7889765096607495e-08
7.95,0.023847336626128316,77.50000164573241,0,60,3.0,6,3.8723115548076324e-08
7.955,0.0359830743700859,77.500001095074,0,60,3.0,6,2.5766447004785092e-08
7.96,0.05218887796857759,77.50000072484218,0,60,3.0,6,1.7055110139849337e-08
7.965,0.0727577001223134,77.50000047726456,0,60,3.0,6,1.1229754443989162e-08
7.97,0.0974992498694751,77.50000031260122,0,60,3.0,6,7.355322729969938e-09
7.975,0.12558706050443358,77.50000020367507,0,60,3.0,6,4.79235462294395e-09
7.98,0.15549263588878245,77.50000013200818,0,60,3.0,6,3.106074874428005e-09
7.985,0.1850529723539114,77.50000008510979,0,60,3.0,6,2.0025832809016505e-09
7.99,0.21169159439317053,77.50000005458509,0,60,3.0,6,1.284354980538517e-09
7.995,0.23277292922115492,77.50000003482444,0,60,3.0,6,8.193985516246518e-10
8.0,0.24602692519491282,77.5000000221009,0,60,3.0,6,5.200213175104342e-10
8.005,0.24995056064839283,77.50000001395249,0,60,3.0,6,3.2829381566176274e-10
8.01,0.24408826520424054,77.50000000876211,0,60,3.0,6,2.0616740210457733e-10
8.015,0.22911894216865275,77.50000000547372,0,60,3.0,6,1.2879347784345396e-10
8.02,0.20672661788705934,77.50000000340151,0,60,3.0,6,8.003553375601768e-11
8.025,0.17928878030241233,77.5000000021027,0,60,3.0,6,4.9475174284238806e-11
8.03,0.14946211903866036,77.50000000129299,0,60,3.0,6,3.0423266520408696e-11
8.035,0.1197651512573837,77.50000000079092,0,60,3.0,6,1.86098665889243e-11
8.04,0.09224675744988023,77.50000000048126,0,60,3.0,6,1.1323877783177202e-11
8.045,0.06829565320281596,77.50000000029131,0,60,3.0,6,6.854313195457079e-12
8.05,0.04860224607515734,77.5000000001754,0,60,3.0,6,4.1271665823467845e-12
8.055,0.03324612389699793,77.50000000010506,0,60,3.0,6,2.4720199743409036e-12
8.06,0.021859876340472782,77.5000000000626,0,60,3.0,6,1.4729132945991723e-12
8.065,0.01381595518554205,77.5000000000371,0,60,3.0,6,8.730480390915867e-13
8.07,0.008394095110402422,77.50000000002187,0,60,3.0,6,5.146001272163737e-13
8.075,0.0049052535271608,77.50000000001283,0,60,3.0,6,3.0193886606652727e-13
8.08,0.0027671663551903634,77.50000000000749,0,60,3.0,6,1.7621459846850485e-13
8.085,0.0015425553464444616,77.50000000000435,0,60,3.0,6,1.0231815394945443e-13
8.09,0.0009638206637011801,77.5000000000025,0,60,3.0,6,5.884965717354242e-14
8.095,0.0009804935156568228,77.50000000000144,0,60,3.0,6,3.377167826436241e-14
8.1,0.0018793744894085216,77.50000000000082,0,60,3.0,6,1.9393637023099206e-14
8.105,0.004535525206900863,77.50000000000047,0,60,3.0,6,1.1034310720039203e-14
8.11,0.010832767979632273,77.50000000000027,0,60,3.0,6,6.353087990325602e-15
8.115,0.024208003392322392,77.50000000000014,0,60,3.0,6,3.343730521224001e-15
8.12,0.0500971897335304,77.50000000000009,0,60,3.0,6,2.0062383127344005e-15
8.125,0.09582894921774403,77.50000000000004,0,60,3.0,6,1.0031191563672002e-15
8.13,0.16937896721820658,77.50000000000003,0,60,3.0,6,6.687461042448002e-16
8.135,0.27661303008991756,77.50000000000001,0,60,3.0,6,3.343730521224001e-16
8.14,0.4173782800009149,77.5,0,60,3.0,6,0.0
8.145,0.5818720934538056,77.5,0,60,3.0,6,0.0
8.15,0.7494718801585675,77.5,0,60,3.0,6,0.0
8.155,0.891813020752378,77.5,0,60,3.0,6,0.0
8.16,0.9800361632936612,77.5,0,60,3.0,6,0.0
8.165,0.993574479225126,77.50000249000622,1,60,3.0,6,5.858838174871754e-08
8.17,0.9263438449375362,77.50000389248275,0,60,3.0,6,9.15878294616799e-08
8.175,0.7873015962290536,77.50000622788357,0,60,3.0,6,1.4653843703961362e-07
8.18,0.5959516244629897,77.50001032445374,0,60,3.0,6,2.429283232927179e-07
8.185,0.376910120078773,77.50001793601348,0,60,3.0,6,4.220238465410041e-07
8.19,0.15739335672107918,77.50003284604738,0,60,3.0,6,7.72848173536498e-07
8.195,-0.033361226269301235,77.50006322959007,0,60,3.0,6,1.4877550604390254e-06
8.2,-0.1680180840843834,77.50012656627284,0,60,3.0,6,2.978029949177011e-06
8.205,-0.23069703190837854,77.50025954907927,0,60,3.0,6,6.10703715939481e-06
8.21,-0.22587267821131068,77.50053742037096,0,60,3.0,6,1.26451851990757e-05
8.215,-0.17718181630665902,77.50111041975664,0,60,3.0,6,2.6127523685705883e-05
8.22,-0.11494332516451301,77.50227004615842,0,60,3.0,6,5.341285078623728e-05
8.225,-0.061810214049552864,77.50456505519409,0,60,3.0,6,0.00010741306339040795
8.23,-0.026546104631500547,77.50899663500942,0,60,3.0,6,0.00021168552963351484
8.235,-0.00719600351942686,77.51733334782944,0,60,3.0,6,0.00040784347833965404
8.24,0.0022072757983807078,77.53259711175801,0,60,3.0,6,0.0007669908648943099
8.245,0.006917199873730717,77.5597775885197,0,60,3.0,6,0.0014065314945810314
8.25,0.01004859748264829,77.60682720154375,0,60,3.0,6,0.002513581212794152
8.255,0.013037082251128167,77.68596373563713,0,60,3.0,6,0.0043756173091089616
8.26,0.01645163937690478,77.81525235617987,0,60,3.0,6,0.007417702498349854
8.265,0.020526639934696615,78.02034654369058,0,60,3.0,6,0.012243448086837147
8.27,0.02539629541761738,78.33613763083831,0,60,3.0,6,0.0196738266079602
8.275,0.031171612185577933,78.80790801230718,0,60,3.0,6,0.030774306171933656
8.28,0.03795853426638131,79.49143402196233,0,60,3.0,6,0.046857271104996094
8.285,0.0458588961882057,80.45138998325675,0,60,3.0,6,0.06944447019427638
8.29,0.054966995891435555,81.75742693681694,0,60,3.0,6,0.10017475145451626
8.295,0.06536491004445595,83.47749814853324,0,60,3.0,6,0.1406470152596057
8.3,0.07711726085088699,85.66841448846296,0,60,3.0,6,0.1921979879638343
8.305,0.09026570629555215,88.36422212653916,0,60,3.0,6,0.2556287559185685
8.31,0.10482339848670268,91.56371947194285,0,60,3.0,6,0.3309110463986552
8.315,0.12076968927580028,95.21911490992028,0,60,3.0,6,0.41692035082165363
8.32,0.13804539501007884,99.22826790633349,0,60,3.0,6,0.5112533625019644
8.325,0.15654895051787066,103.43295067098154,0,60,3.0,6,0.6101870746113304
8.33,0.17613378141900526,107.62498105812116,0,60,3.0,6,0.708823083720498
8.335,0.19660720058055794,111.56090743751355,0,60,3.0,6,0.8014331161767894
8.34,0.21773108748496234,114.9843394518642,0,60,3.0,6,0.8819844576909224
8.345,0.23922453870058807,117.65333760501063,0,60,3.0,6,0.9447844142355444
8.35,0.2607685857914563,119.36890970084326,0,60,3.0,6,0.9851508164904297
8.355,0.2820129681603682,120.0,0,60,3.0,6,1.0
8.36,0.30258482867153996,119.5006402542718,0,60,3.0,6,0.9882503589240423
8.365,0.3220990771751686,117.91617040818592,0,60,3.0,6,0.9509687154867276
8.37,0.3401700499968971,115.37738557396011,0,60,3.0,6,0.8912326017402379
8.375,0.3564239911198326,112.08368211089038,0,60,3.0,6,0.8137336967268325
8.38,0.3705118017738417,108.27824070530876,0,60,3.0,6,0.7241938989484414
8.385,0.3821214567925213,104.21955090304075,0,60,3.0,6,0.6286953153656648
8.39,0.39098947374066967,100.15389681309367,0,60,3.0,6,0.5330328661904392
8.395,0.3969108472035567,96.29278932965357,0,60,3.0,6,0.44218327834478993
8.4,0.3997469255491936,92.79798252281299,0,60,3.0,6,0.3599525299485409
8.405,0.3994308076379137,89.77503474095302,0,60,3.0,6,0.2888243468459534
8.41,0.3959699661768434,87.27477976068862,0,60,3.0,6,0.2299948178985557
8.415,0.38944595408114946,85.30088686693217,0,60,3.0,6,0.1835502792219335
8.42,0.38001120995358023,83.82108308582723,0,60,3.0,6,0.14873136672534648
8.425,0.3678831374098315,82.77958866801355,0,60,3.0,6,0.12422561571796577
8.43,0.35333577933796634,82.1087468967927,0,60,3.0,6,0.10844110345394577
8.435,0.33668953221163944,81.7385096637752,0,60,3.0,7,0.09972963914765186
8.44,0.3182994390982644,81.60316637149273,0,60,3.0,7,0.09654509109394667
8.445,0.29854265738230645,81.64531852817903,0,60,3.0,7,0.097536906545389
8.45,0.2778057157821067,81.81752026347644,0,60,3.0,7,0.10158871208179857
8.455,0.2564721553719815,82.08220991158747,0,60,3.0,7,0.1078167038020581
8.46,0.23491109433464996,82.41058435809306,0,60,3.0,7,0.11554316136689555
8.465,0.21346717185309805,82.78097574839373,0,60,3.0,7,0.12425825290338186
8.47,0.19245222055656455,83.17714153356428,0,60,3.0,7,0.1335798007897478
8.475,0.17213889801761392,83.58672328897565,0,60,3.0,7,0.14321701856413288
8.48,0.15275638501270183,83.99999826166315,0,60,3.0,7,0.15294113556854474
8.485,0.13448814019607322,84.40895337124233,0,60,3.0,7,0.16256360873511372
8.49,0.11747159495449566,84.80665451989769,0,60,3.0,7,0.17192128282112215
8.495,0.10179958433370105,85.1868573489393,0,60,3.0,7,0.1808672317397482
8.5,0.08752324394101413,85.54379935372675,0,60,3.0,7,0.18926586714651186
8.505,0.07465606047174059,85.87211861230374,0,60,3.0,7,0.19699102617185263
8.51,0.0631787448609295,86.16685460853626,0,60,3.0,7,0.20392599078908835
8.515,0.05304460019959574,86.42349754884363,0,60,3.0,7,0.20996464820808536
8.52,0.044185078305849994,86.63806206698814,0,60,3.0,7,0.2150132251056033
8.525,0.03651525513023255,86.80716857960022,0,60,3.0,7,0.21899220187294624
8.53,0.0299390014708757,86.92812088388769,0,60,3.0,7,0.22183813844441616
8.535,0.024353677220580638,86.99897230219709,0,60,3.0,7,0.2235052306399315
8.54,0.01965423034339045,87.0185752592566,0,60,3.0,7,0.22396647668839043
8.545,0.015736632374757337,86.98661103599359,0,60,3.0,7,0.22321437731749624
8.55,0.012500627640593535,86.90359787095856,0,60,3.0,7,0.2212611263754956
8.555,0.009851811652115898,86.77087675820192,0,60,3.0,7,0.21813827666357463
8.56,0.007703084175428559,86.59057531515485,0,60,3.0,7,0.21389588976834945
8.565,0.005975544002062424,86.36555100430262,0,60,3.0,7,0.20860120010123803
8.57,0.004598905818663047,86.0993157926329,0,60,3.0,7,0.2023368421795975
8.575,0.0035115256454839104,85.79594501028039,0,60,3.0,7,0.1951987061242445
8.58,0.002660121266303676,85.45997370609123,0,60,3.0,7,0.18729349896685255
8.585,0.0019992692560877024,85.0962841761263,0,60,3.0,7,0.17873609826179537
8.59,0.0014907520044639367,84.70998855024048,0,60,3.0,7,0.1696467894174231
8.595,0.0011028178277539807,84.3063103584825,0,60,3.0,7,0.1601484790231178
8.6,0.0008094059938923333,83.89046886840002,0,60,3.0,7,0.15036397337411814
8.605,0.0005893771793717645,83.4675696999641,0,60,3.0,7,0.1404134047050377
8.61,0.0004257792353490551,83.04250480764743,0,60,3.0,7,0.13041187782699842
8.615,0.0003051686392901525,82.61986439594673,0,60,3.0,7,0.12046739755168788
8.62,0.00021699992642659966,82.203862736115,0,60,3.0,7,0.11067912320270586
8.625,0.00015308884054097838,81.79827921088489,0,60,3.0,7,0.10113598143258554
8.63,0.00010714989329311098,81.4064152633843,0,60,3.0,7,0.09191565325610127
8.635,7.440535854020571e-05,81.0310672972994,0,60,3.0,7,0.08308393640704474
8.64,5.1260276743925106e-05,80.67451499519211,0,60,3.0,7,0.07469447047510852
8.645,3.503659887882241e-05,80.338524013543,0,60,3.0,7,0.06678880031865868
8.65,2.375894748103639e-05,80.02436159372127,0,60,3.0,7,0.059396743381676866
8.655,1.5984413869232557e-05,79.73282330872932,0,60,3.0,7,0.05253701902892524
8.66,1.0669166579899869e-05,79.4642689510973,0,60,3.0,7,0.046218092966995195
8.665,7.06526633560511e-06,79.21866545674996,0,60,3.0,7,0.040439187217646125
8.67,4.641847214699205e-06,78.99563474688391,0,60,3.0,7,0.03519140580903314
8.675,3.025641074479182e-06,78.79450444444629,0,60,3.0,7,0.030458928104618574
8.68,1.9566278676921314e-06,78.61435957004821,0,60,3.0,7,0.026220225177604896
8.685,1.2553456560008793e-06,78.45409352834312,0,60,3.0,7,0.02244925949042641
8.69,7.990660428214668e-07,78.31245694336336,0,60,3.0,7,0.01911663396149078
8.695,5.046221251618276e-07,78.18810317343045,0,60,3.0,7,0.01619066290424585
8.7,3.1616527078858815e-07,78.07962961742325,0,60,3.0,7,0.01363834393937061
8.705,1.9652884407760343e-07,77.98561420049717,0,60,3.0,7,0.01142621648228629
8.71,1.2120002189836396e-07,77.90464668712917,0,60,3.0,7,0.009521098520686418
8.715,7.415549848886236e-08,77.83535470349312,0,60,3.0,7,0.007890698905720563
8.72,4.501406988770349e-08,77.77642455318359,0,60,3.0,7,0.006504107133731489
8.725,0.0,77.72661707634573,0,60,3.0,7,0.005332166502252529
8.73,0.0,77.68477893086524,0,60,3.0,7,0.00434773954977024
8.735,0.0,77.6498497660474,0,60,3.0,7,0.0035258768481740204
8.74,0.0,77.62086581648374,0,60,3.0,7,0.002843901564323366
8.745,0.0,77.59696047016833,0,60,3.0,7,0.0022814228274900387
8.75,0.0,77.57736236484402,0,60,3.0,7,0.0018202909375063694
8.755,0.0,77.56139154495807,0,60,3.0,7,0.001444506940189887
8.76,0.0,77.54845417352878,0,60,3.0,7,0.0011400982006772237
8.765,0.0,77.53803624353917,0,60,3.0,7,0.0008949704362157049
8.77,0.0,77.52969667664992,0,60,3.0,7,0.0006987453329392846
8.775,0.0,77.52306013697444,0,60,3.0,7,0.000542591458222031
8.78,0.0,77.51780982764838,0,60,3.0,7,0.00041905476819712985
8.785,0.0,77.51368048053044,0,60,3.0,7,0.0003218936595397495
8.79,0.0,77.51045169649136,0,60,3.0,7,0.00024592227038490764
8.795,0.0,77.5079417466527,0,60,3.0,7,0.00018686462712246474
8.8,0.0,77.50600190434021,0,60,3.0,7,0.00014122127859316017
8.805,0.0,77.50451134365947,0,60,3.0,7,0.0001061492625758413
8.81,0.0,77.50337261335471,0,60,3.0,7,7.93556083461975e-05
8.815,0.0,77.50250767355982,0,60,3.0,7,5.9004083760448657e-05
8.82,0.0,77.50185446759158,0,60,3.0,7,4.363453156670135e-05
