Time,ECG,Pressure,R_Peaks,mean_hr,hrv_scale,Phase_Bin,Normalized_Pressure
0.0,0.001684486749771458,77.5,0,90,3.0,0,0.0
0.005,0.004172395771277602,77.5,0,90,3.0,0,0.0
0.01,0.009438687428818865,77.5,0,90,3.0,0,0.0
0.015,0.019500507867137046,77.5,0,90,3.0,0,0.0
0.02,0.03679496976339974,77.5,0,90,3.0,0,0.0
0.025,0.06340728953298436,77.5,0,90,3.0,0,0.0
0.03,0.09979255396093453,77.5,0,90,3.0,0,0.0
0.035,0.14343835518453557,77.5,0,90,3.0,0,0.0
0.04,0.18829581417209276,77.5,0,90,3.0,0,0.0
0.045,0.2257481735193119,77.5,0,90,3.0,0,0.0
0.05,0.24718154073554727,77.5,0,90,3.0,0,0.0
0.055,0.24718154074102772,77.5,0,90,3.0,0,0.0
0.06,0.22574817354072055,77.5,0,90,3.0,0,0.0
0.065,0.18829581422840957,77.5,0,90,3.0,0,0.0
0.07,0.14343835532456656,77.5,0,90,3.0,0,0.0
0.075,0.09979255431561854,77.5,0,90,3.0,0,0.0
0.08,0.06340729067170194,77.5,0,90,3.0,0,0.0
0.085,0.03679497683410042,77.5,0,90,3.0,0,0.0
0.09,0.019500578284482293,77.5,0,90,3.0,0,0.0
0.095,0.009439396781978427,77.5,0,90,3.0,0,0.0
0.1,0.004178588733610924,77.5,0,90,3.0,0,0.0
0.105,0.0017299316936037381,77.5,0,90,3.0,0,0.0
0.11,0.0008997325756988589,77.5,0,90,3.0,0,0.0
0.115,0.001634769674224814,77.5,0,90,3.0,0,0.0
0.12,0.00614904736476635,77.5,0,90,3.0,0,0.0
0.125,0.02168080359963608,77.5,0,90,3.0,0,0.0
0.13,0.06433400338904088,77.5,0,90,3.0,0,0.0
0.135,0.1593410769217493,77.5,0,90,3.0,0,0.0
0.14,0.3291989194808569,77.5,0,90,3.0,0,0.0
0.145,0.5672906802982638,77.5,0,90,3.0,0,0.0
0.15,0.815339152120446,77.5,0,90,3.0,0,0.0
0.155,0.9768711246313155,77.5,0,90,3.0,0,0.0
0.16,0.9726380909165361,77.5,0,90,3.0,0,0.0
0.165,0.7921091683291741,77.5,0,90,3.0,0,0.0
0.17,0.49139090102639077,77.5,0,90,3.0,0,0.0
0.175,0.15739335672107918,77.5,0,90,3.0,0,0.0
0.18,-0.11102342218909485,77.5,0,90,3.0,0,0.0
0.185,-0.2314207883647528,77.5,0,90,3.0,0,0.0
0.19,-0.2029124434754801,77.5,0,90,3.0,0,0.0
0.195,-0.11151350554305876,77.5,0,90,3.0,0,0.0
0.2,-0.039430666652076896,77.5,0,90,3.0,0,0.0
0.205,-0.006087703519843621,77.5,0,90,3.0,0,0.0
0.21,0.005350271385530551,77.5,0,90,3.0,0,0.0
0.215,0.010381647827441833,77.5,0,90,3.0,0,0.0
0.22,0.015115203303506243,77.5,0,90,3.0,0,0.0
0.225,0.021170964062928475,77.5,0,90,3.0,0,0.0
0.23,0.029082821134029553,77.5,0,90,3.0,0,0.0
0.235,0.03923107061708144,77.5,0,90,3.0,0,0.0
0.24,0.051969043308817596,77.5,0,90,3.0,0,0.0
0.245,0.06760532616283861,77.5,0,90,3.0,0,0.0
0.25,0.08636519236693461,77.5,0,90,3.0,0,0.0
0.255,0.10834733138818661,77.5,0,90,3.0,0,0.0
0.26,0.1334809643017884,77.5,0,90,3.0,0,0.0
0.265,0.16148868344343945,77.5,0,90,3.0,0,0.0
0.27,0.191860907532018,77.5,0,90,3.0,0,0.0
0.275,0.22384764873847726,77.5,0,90,3.0,0,0.0
0.28,0.25647215537198226,77.5,0,90,3.0,0,0.0
0.285,0.2885689161419028,77.5,0,90,3.0,0,0.0
0.29,0.31884566517832524,77.5,0,90,3.0,0,0.0
0.295,0.3459657668955683,77.5,0,90,3.0,0,0.0
0.3,0.3686441789190902,77.5,0,90,3.0,0,0.0
0.305,0.3857476379544367,77.5,0,90,3.0,0,0.0
0.31,0.3963882865005728,77.5,0,90,3.0,0,0.0
0.315,0.4,77.5,0,90,3.0,0,0.0
0.32,0.39638828650057273,77.5,0,90,3.0,0,0.0
0.325,0.38574763795443656,77.5,0,90,3.0,0,0.0
0.33,0.36864417891908974,77.5,0,90,3.0,0,0.0
0.335,0.345965766895568,77.5,0,90,3.0,0,0.0
0.34,0.3188456651783249,77.5,0,90,3.0,0,0.0
0.345,0.28856891614190205,77.5,0,90,3.0,0,0.0
0.35,0.2564721553719815,77.5,0,90,3.0,0,0.0
0.355,0.22384764873847685,77.5,0,90,3.0,0,0.0
0.36,0.19186090753201765,77.5,0,90,3.0,0,0.0
0.365,0.16148868344343878,77.5,0,90,3.0,0,0.0
0.37,0.1334809643017881,77.5,0,90,3.0,0,0.0
0.375,0.10834733138818531,77.5,0,90,3.0,0,0.0
0.38,0.08636519236690572,77.5,0,90,3.0,0,0.0
0.385,0.06760532616242629,77.5,0,90,3.0,0,0.0
0.39,0.05196904332202373,77.5,0,90,3.0,0,0.0
0.395,0.03923107185803287,77.5,0,90,3.0,0,0.0
0.4,0.02908287038705761,77.5,0,90,3.0,0,0.0
0.405,0.02117220077308346,77.5,0,90,3.0,0,0.0
0.41,0.0151361834125735,77.5,0,90,3.0,0,0.0
0.415,0.010626454858290009,77.5,0,90,3.0,0,0.0
0.42,0.007326255555493652,77.5,0,90,3.0,0,0.0
0.425,0.004960179211183015,77.5,0,90,3.0,0,0.0
0.43,0.0032978759379303545,77.5,0,90,3.0,0,0.0
0.435,0.002153242296767213,77.5,0,90,3.0,0,0.0
0.44,0.001380616732225004,77.5,0,90,3.0,0,0.0
0.445,0.0008693106590991584,77.5,0,90,3.0,0,0.0
0.45,0.000537524815942247,77.5,0,90,3.0,0,0.0
0.455,0.0003263951340288585,77.5,0,90,3.0,0,0.0
0.46,0.00019463030985187395,77.5,0,90,3.0,0,0.0
0.465,0.00011397219555062695,77.5,0,90,3.0,0,0.0
0.47,6.55403863487943e-05,77.5,0,90,3.0,0,0.0
0.475,3.701184389455385e-05,77.5,0,90,3.0,0,0.0
0.48,2.0525516217290957e-05,77.5,0,90,3.0,0,0.0
0.485,1.1178128483661116e-05,77.5,0,90,3.0,0,0.0
0.49,5.978135409912517e-06,77.5,0,90,3.0,0,0.0
0.495,3.1396702713238487e-06,77.5,0,90,3.0,0,0.0
0.5,1.6192875458531019e-06,77.5,0,90,3.0,0,0.0
0.505,8.201353897972012e-07,77.5,0,90,3.0,0,0.0
0.51,4.0791415086824765e-07,77.5,0,90,3.0,0,0.0
0.515,1.9923866938774793e-07,77.5,0,90,3.0,0,0.0
0.52,9.556527981051257e-08,77.5,0,90,3.0,0,0.0
0.525,4.501406988770349e-08,77.5,0,90,3.0,0,0.0
0.53,0.0,77.5,0,90,3.0,0,0.0
0.535,0.0,77.5,0,90,3.0,0,0.0
0.54,0.0,77.5,0,90,3.0,0,0.0
0.545,0.0,77.5,0,90,3.0,0,0.0
0.55,0.0,77.5,0,90,3.0,0,0.0
0.555,0.0,77.5,0,90,3.0,0,0.0
0.56,0.0,77.5,0,90,3.0,0,0.0
0.565,0.0,77.5,0,90,3.0,0,0.0
0.57,0.0,77.5,0,90,3.0,0,0.0
0.575,0.001684486749771458,77.5,0,90,3.0,0,0.0
0.58,0.004172395771277602,77.5,0,90,3.0,0,0.0
0.585,0.009438687428818865,77.5,0,90,3.0,0,0.0
0.59,0.019500507867137046,77.5,0,90,3.0,0,0.0
0.595,0.03679496976339974,77.5,0,90,3.0,0,0.0
0.6,0.06340728953298436,77.5,0,90,3.0,0,0.0
0.605,0.09979255396093453,77.5,0,90,3.0,0,0.0
0.61,0.14343835518453557,77.5,0,90,3.0,0,0.0
0.615,0.18829581417209276,77.5,0,90,3.0,0,0.0
0.62,0.2257481735193119,77.5,0,90,3.0,0,0.0
0.625,0.24718154073554727,77.5,0,90,3.0,0,0.0
0.63,0.24718154074102772,77.5,0,90,3.0,0,0.0
0.635,0.22574817354072055,77.5,0,90,3.0,0,0.0
0.64,0.18829581422840957,77.5,0,90,3.0,0,0.0
0.645,0.14343835532456656,77.5,0,90,3.0,0,0.0
0.65,0.09979255431561854,77.5,0,90,3.0,0,0.0
0.655,0.06340729067170194,77.5,0,90,3.0,0,0.0
0.66,0.03679497683410042,77.5,0,90,3.0,0,0.0
0.665,0.019500578284482293,77.5,0,90,3.0,0,0.0
0.67,0.009439396781978427,77.5,0,90,3.0,0,0.0
0.675,0.004178588733610924,77.5,0,90,3.0,0,0.0
0.68,0.0017299316936037381,77.5,0,90,3.0,0,0.0
0.685,0.0008997325756988589,77.5,0,90,3.0,0,0.0
0.69,0.001634769674224814,77.5,0,90,3.0,0,0.0
0.695,0.00614904736476635,77.5,0,90,3.0,0,0.0
0.7,0.02168080359963608,77.5,0,90,3.0,0,0.0
0.705,0.06433400338904088,77.5,0,90,3.0,0,0.0
0.71,0.1593410769217493,77.5,0,90,3.0,0,0.0
0.715,0.3291989194808569,77.5,0,90,3.0,0,0.0
0.72,0.5672906802982638,77.5,0,90,3.0,0,0.0
0.725,0.815339152120446,77.5,0,90,3.0,0,0.0
0.73,0.9768711246313155,77.50000284164666,1,90,3.0,0,5.859065282427614e-08
0.735,0.9726380909165361,77.50000513541534,0,90,3.0,0,1.0588485228132395e-07
0.74,0.7921091683291741,77.50000972533142,0,90,3.0,0,2.0052229739665507e-07
0.745,0.49139090102639077,77.50001983204943,0,90,3.0,0,4.089082357115762e-07
0.75,0.15739335672107918,77.50004425244363,0,90,3.0,0,9.124215181337914e-07
0.755,-0.11102342218909485,77.50010715796503,0,90,3.0,0,2.2094425779981713e-06
0.76,-0.2314207883647528,77.5002735884935,0,90,3.0,0,5.640999865963562e-06
0.765,-0.2029124434754801,77.50071229869842,0,90,3.0,0,1.4686571101384692e-05
0.77,-0.11151350554305876,77.50184192436068,0,90,3.0,0,3.797782186960334e-05
0.775,-0.039430666652076896,77.50465058308532,0,90,3.0,0,9.588831103756842e-05
0.78,-0.006087703519843621,77.51135048292498,0,90,3.0,0,0.00023403057577282423
0.785,0.005350271385530551,77.52662836067672,0,90,3.0,0,0.0005490383644685481
0.79,0.010381647827441833,77.55986008283949,0,90,3.0,0,0.0012342285121544779
0.795,0.015115203303506243,77.62871615943192,0,90,3.0,0,0.002653941431585923
0.8,0.021170964062928475,77.76448507889882,0,90,3.0,0,0.005453300595851858
0.805,0.029082821134029553,78.0190308444065,0,90,3.0,0,0.010701666894979403
0.81,0.03923107061708144,78.47243990533991,0,90,3.0,0,0.020050307326596104
0.815,0.051969043308817596,79.23909047325527,0,90,3.0,0,0.03585753553103658
0.82,0.06760532616283861,80.468368163272,0,90,3.0,0,0.06120346728395884
0.825,0.08636519236693461,82.33522248926154,0,90,3.0,0,0.09969530905693896
0.83,0.10834733138818661,85.01619319399947,0,90,3.0,0,0.15497305554638083
0.835,0.1334809643017884,88.64936492577402,0,90,3.0,0,0.2298838129025572
0.84,0.16148868344343945,93.28217293658074,0,90,3.0,0,0.32540562755836566
0.845,0.191860907532018,98.81798972078323,0,90,3.0,0,0.4395461798099635
0.85,0.22384764873847726,104.97837403835521,0,90,3.0,0,0.5665644131619632
0.855,0.25647215537198226,111.29935597736814,0,90,3.0,0,0.6968939376776936
0.86,0.2885689161419028,117.17453906786568,0,90,3.0,0,0.8180317333580552
0.865,0.31884566517832524,121.94509813663508,0,90,3.0,0,0.9163937760130945
0.87,0.3459657668955683,125.02047608087008,0,90,3.0,0,0.9798036305334038
0.875,0.3686441789190902,126.0,0,90,3.0,0,1.0
0.88,0.3857476379544367,124.76110192272094,0,90,3.0,0,0.9744557097468235
0.885,0.3963882865005728,121.4875182790804,0,90,3.0,0,0.9069591397748537
0.89,0.4,116.6287058194931,0,90,3.0,0,0.8067774395771774
0.895,0.39638828650057273,110.80301806039404,0,90,3.0,0,0.6866601661936915
0.9,0.38574763795443656,104.67357444072778,0,90,3.0,0,0.5602798853758304
0.905,0.36864417891908974,98.83118480258737,0,90,3.0,0,0.43981824335231695
0.91,0.345965766895568,93.71212167075892,0,90,3.0,0,0.334270549912555
0.915,0.3188456651783249,89.56393789015415,0,90,3.0,0,0.24874098742585876
0.92,0.28856891614190205,86.45649610709219,0,90,3.0,0,0.18467002282664313
0.925,0.2564721553719815,84.3238267777099,0,90,3.0,0,0.14069745933422467
0.93,0.22384764873847685,83.01824586008357,0,90,3.0,0,0.11377826515636222
0.935,0.19186090753201765,82.3607250432506,0,90,3.0,0,0.10022113491238344
0.94,0.16148868344343878,82.17790417755486,0,90,3.0,0,0.09645163252690443
0.945,0.1334809643017881,82.32301424983154,0,90,3.0,0,0.09944359278003184
0.95,0.10834733138818531,82.68299482340544,0,90,3.0,0,0.10686587264753479
0.955,0.08636519236690572,83.17642932367355,0,90,3.0,0,0.11703977986955764
0.96,0.06760532616242629,83.747005124037,0,90,3.0,0,0.12880422936158767
0.965,0.05196904332202373,84.35601615827898,0,90,3.0,0,0.1413611579026593
0.97,0.03923107185803287,84.97590794405919,0,90,3.0,0,0.1541424318362719
0.975,0.02908287038705761,85.58561130572897,0,90,3.0,0,0.16671363516966958
0.98,0.02117220077308346,86.1676328734186,0,90,3.0,0,0.17871407986430096
0.985,0.0151361834125735,86.70652267302486,0,90,3.0,0,0.18982520975308997
0.99,0.010626454858290009,87.18827313384817,0,90,3.0,0,0.1997582089453231
0.995,0.007326255555493652,87.6002732574449,0,90,3.0,0,0.20825305685453396
1.0,0.004960179211183015,87.93154771974346,0,90,3.0,0,0.21508345813904048
1.005,0.0032978759379303545,88.17310463785162,0,90,3.0,0,0.22006401315157983
1.01,0.002153242296767213,88.31828322100691,0,90,3.0,0,0.22305738600014244
1.015,0.001380616732225004,88.36303606968106,0,90,3.0,0,0.22398012514806306
1.02,0.0008693106590991584,88.30610811938153,0,90,3.0,0,0.22280635297693885
1.025,0.000537524815942247,88.14909210780685,0,90,3.0,0,0.2195689094393165
1.03,0.0003263951340288585,87.89635352979845,0,90,3.0,0,0.2143578047381123
1.035,0.00019463030985187395,87.55482865987335,0,90,3.0,0,0.2073160548427495
1.04,0.00011397219555062695,87.13370820829557,0,90,3.0,0,0.19863315893392935
1.045,6.55403863487943e-05,86.64402658647539,0,90,3.0,0,0.18853663064897713
1.05,3.701184389455385e-05,86.09818233591776,0,90,3.0,0,0.1772821100189228
1.055,2.0525516217290957e-05,85.50941874168905,0,90,3.0,0,0.1651426544678154
1.06,1.1178128483661116e-05,84.89129484704627,0,90,3.0,0,0.15239783189786119
1.065,5.978135409912517e-06,84.25717603311269,0,90,3.0,0,0.13932321717758114
1.07,3.1396702713238487e-06,83.61977023968812,0,90,3.0,0,0.1261808296842912
1.075,1.6192875458531019e-06,82.99073116007229,0,90,3.0,0,0.11321095175406776
1.08,8.201353897972012e-07,82.38034384450859,0,90,3.0,0,0.10062564627852758
1.085,4.0791415086824765e-07,81.79730165774147,0,90,3.0,0,0.08860415789157672
1.09,1.9923866938774793e-07,81.24857702449877,0,90,3.0,0,0.07729024792780972
1.095,9.556527981051257e-08,80.73938237949095,0,90,3.0,0,0.06679138926785459
1.1,4.501406988770349e-08,80.27321263676781,0,90,3.0,0,0.05717964199521256
1.105,0.0,79.85195660178154,0,90,3.0,0,0.04849395055219666
1.11,0.0,79.47606222315747,0,90,3.0,0,0.04074355099293753
1.115,0.0,79.14473943737704,0,90,3.0,0,0.03391215334798022
1.12,0.0,78.85618449458457,0,90,3.0,0,0.027962566898650884
1.125,0.0,78.60781086922685,0,90,3.0,0,0.022841461221172223
1.13,0.0,78.39647389480362,0,90,3.0,0,0.018483997831002474
1.135,0.0,78.21867882903723,0,90,3.0,0,0.014818120186334651
1.14,0.0,78.07076486884718,0,90,3.0,0,0.011768347811282017
1.145,0.0,77.94906043727421,0,90,3.0,0,0.009258978088128096
1.15,0.0,77.85000764806028,0,90,3.0,0,0.007216652537325449
1.155,0.0,77.77025606689202,0,90,3.0,0,0.005572290039010662
1.16,0.0,77.706727640736,0,90,3.0,0,0.00426242558218568
1.165,0.0,77.65665592416397,0,90,3.0,0,0.003230019054927235
1.17,0.0,77.61760350788578,0,90,3.0,0,0.002424814595582992
1.175,0.0,77.58746190000828,0,90,3.0,0,0.0018033381445005938
1.18,0.0,77.5644380986904,0,90,3.0,0,0.001328620591554691
1.185,0.0,77.54703181144795,0,90,3.0,0,0.0009697280710917753
1.19,0.0,77.53400680827698,0,90,3.0,0,0.000701171304680096
1.195,0.0,77.52435932323314,0,90,3.0,0,0.0005022540872812794
1.2,0.0,77.51728581027695,0,90,3.0,0,0.00035640845931846006
1.205,0.0,77.51215176729428,0,90,3.0,1,0.0002505519029749352
1.21,0.0,77.5084628048222,0,90,3.0,1,0.00017449082107632
1.215,0.0,77.50583867610601,0,90,3.0,1,0.00012038507435070492
1.22,0.0,77.50399061307752,0,90,3.0,1,8.228068201070837e-05
1.225,0.0,77.50270202919619,0,90,3.0,1,5.571194218940449e-05
1.23,0.0,77.50181244831914,0,90,3.0,1,3.7370068435934955e-05
1.235,0.0,77.50120438795803,0,90,3.0,1,2.4832741402600658e-05
1.24,0.0,77.50079285241956,0,90,3.0,1,1.6347472568347174e-05
1.245,0.0,77.50051706302851,0,90,3.0,1,1.0661093371355332e-05
1.25,0.0,77.50033405639782,0,90,3.0,1,6.8877607797623064e-06
1.255,0.0,77.50021380668517,0,90,3.0,1,4.408385261177903e-06
1.26,0.0,77.50013556511455,0,90,3.0,1,2.7951570009768194e-06
1.265,0.0,77.5000851529678,0,90,3.0,1,1.7557312948198517e-06
1.27,0.0,77.50005298791253,0,90,3.0,1,1.0925342788717917e-06
1.275,0.0,77.50003266472537,0,90,3.0,1,6.73499492107759e-07
1.28,0.0,77.50001994832292,0,90,3.0,1,4.113056271195354e-07
1.285,0.0,77.50001206865707,0,90,3.0,1,2.48838290124545e-07
1.29,0.0,77.5000072333034,0,90,3.0,1,1.4914027643105337e-07
1.295,0.0,77.5000042947669,0,90,3.0,1,8.855189476074059e-08
1.3,0.0,77.50000252619976,0,90,3.0,1,5.208659309133022e-08
1.305,0.0,77.50000147204457,0,90,3.0,1,3.035143450200774e-08
1.31,0.001684486749771458,77.50000084976611,0,90,3.0,1,1.7520950720055908e-08
1.315,0.004172395771277602,77.50000048596281,0,90,3.0,1,1.001985185315245e-08
1.32,0.009438687428818865,77.50000027531625,0,90,3.0,1,5.676623780430221e-09
1.325,0.019500507867137046,77.50000015452041,0,90,3.0,1,3.1859877760053704e-09
1.33,0.03679496976339974,77.50000008591421,0,90,3.0,1,1.771426991346987e-09
1.335,0.06340728953298436,77.50000004732269,0,90,3.0,1,9.757254889505535e-10
1.34,0.09979255396093453,77.50000002582253,0,90,3.0,1,5.324232967451309e-10
1.345,0.14343835518453557,77.50000001395898,0,90,3.0,1,2.878140520872116e-10
1.35,0.18829581417209276,77.50000000747538,0,90,3.0,1,1.5413151625570837e-10
1.355,0.2257481735193119,77.50000000396587,0,90,3.0,1,8.177043006052719e-11
1.36,0.24718154073554727,77.50000000208433,0,90,3.0,1,4.2975968717280584e-11
1.365,0.24718154074102772,77.50000000108524,0,90,3.0,1,2.2376089526511988e-11
1.37,0.22574817354072055,77.50000000055977,0,90,3.0,1,1.1541558087253752e-11
1.375,0.18829581422840957,77.50000000028602,0,90,3.0,1,5.897358203151974e-12
1.38,0.14343835532456656,77.5000000001448,0,90,3.0,1,2.9854515194472828e-12
1.385,0.09979255431561854,77.5000000000726,0,90,3.0,1,1.4969743657725163e-12
1.39,0.06340729067170194,77.50000000003607,0,90,3.0,1,7.436525622099523e-13
1.395,0.03679497683410042,77.50000000001775,0,90,3.0,1,3.6596613483066605e-13
1.4,0.019500578284482293,77.50000000000865,0,90,3.0,1,1.7844145405274268e-13
1.405,0.009439396781978427,77.50000000000418,0,90,3.0,1,8.614415023235853e-14
1.41,0.004178588733610924,77.500000000002,0,90,3.0,1,4.1314031233886236e-14
1.415,0.0017299316936037381,77.50000000000095,0,90,3.0,1,1.963149001893885e-14
1.42,0.0008997325756988589,77.50000000000044,0,90,3.0,1,9.083226725180661e-15
1.425,0.001634769674224814,77.50000000000021,0,90,3.0,1,4.395109705732579e-15
1.43,0.00614904736476635,77.5000000000001,0,90,3.0,1,2.0510511960085364e-15
1.435,0.02168080359963608,77.50000000000004,0,90,3.0,1,8.790219411465157e-16
1.44,0.06433400338904088,77.50000000000001,0,90,3.0,1,2.9300731371550523e-16
1.445,0.1593410769217493,77.50000000000001,0,90,3.0,1,2.9300731371550523e-16
1.45,0.3291989194808569,77.5,0,90,3.0,1,0.0
1.455,0.5672906802982638,77.5,0,90,3.0,1,0.0
1.46,0.815339152120446,77.5,0,90,3.0,1,0.0
1.465,0.9768711246313155,77.50000284150002,1,90,3.0,1,5.858762928180591e-08
1.47,0.9726380909165361,77.5000055087254,0,90,3.0,1,1.1358196688794948e-07
1.475,0.7921091683291741,77.50001136395807,0,90,3.0,1,2.3430841373428661e-07
1.48,0.49139090102639077,77.50002585890292,0,90,3.0,1,5.331732559967612e-07
1.485,0.15739335672107918,77.50006577270929,0,90,3.0,1,1.356138335905626e-06
1.49,-0.11102342218909485,77.50018247875063,0,90,3.0,1,3.76244846661487e-06
1.495,-0.2314207883647528,77.50052776496497,0,90,3.0,1,1.0881751855078582e-05
1.5,-0.2029124434754801,77.50152756139154,0,90,3.0,1,3.1496111165786474e-05
1.505,-0.11151350554305876,77.50430755613382,0,90,3.0,1,8.88155903881271e-05
1.51,-0.039430666652076896,77.5116563600092,0,90,3.0,1,0.00024033731977727622
1.515,-0.006087703519843621,77.53002739545968,0,90,3.0,1,0.0006191215558697577
1.52,0.005350271385530551,77.57333096905042,0,90,3.0,1,0.0015119787433075698
1.525,0.010381647827441833,77.66940490223725,0,90,3.0,1,0.0034928845822112743
1.53,0.015115203303506243,77.86976747664984,0,90,3.0,1,0.007624071683501874
1.535,0.021170964062928475,78.26211431813414,0,90,3.0,1,0.01571369728111625
1.54,0.029082821134029553,78.98267513398078,0,90,3.0,1,0.03057062131919128
1.545,0.03923107061708144,80.22218766058688,0,90,3.0,1,0.05612758063065738
1.55,0.051969043308817596,82.21612057642412,0,90,3.0,1,0.09723959951389932
1.555,0.06760532616283861,85.20932922752098,0,90,3.0,1,0.15895524180455634
1.56,0.08636519236693461,89.39039798617173,0,90,3.0,1,0.24516284507570588
1.565,0.10834733138818661,94.8028006534978,0,90,3.0,1,0.35675877636077935
1.57,0.1334809643017884,101.25612781731577,0,90,3.0,1,0.48981706839826333
1.575,0.16148868344343945,108.27370857382006,0,90,3.0,1,0.6345094551303105
1.58,0.191860907532018,115.11341104223824,0,90,3.0,1,0.775534248293572
1.585,0.22384764873847726,120.88000833622657,0,90,3.0,1,0.8944331615716817
1.59,0.25647215537198226,124.71329532894552,0,90,3.0,1,0.9734700067823818
1.595,0.2885689161419028,126.0,0,90,3.0,1,1.0
1.6,0.31884566517832524,124.53834900968857,0,90,3.0,1,0.9698628661791459
1.605,0.3459657668955683,120.59493192202842,0,90,3.0,1,0.8885552973614108
1.61,0.3686441789190902,114.83222413300682,0,90,3.0,1,0.7697365800619963
1.615,0.3857476379544367,108.13422420586735,0,90,3.0,1,0.6316334887807702
1.62,0.3963882865005728,101.3936098555063,0,90,3.0,1,0.492651749598068
1.625,0.4,95.33064507931,0,90,3.0,1,0.3676421665837114
1.63,0.39638828650057273,90.39185276201252,0,90,3.0,1,0.2658113971548973
1.635,0.38574763795443656,86.73955542986523,0,90,3.0,1,0.19050629752299453
1.64,0.36864417891908974,84.31059562557269,0,90,3.0,1,0.14042465207366367
1.645,0.345965766895568,82.9065602268215,0,90,3.0,1,0.11147546859425768
1.65,0.3188456651783249,82.28033336831763,0,90,3.0,1,0.09856357460448717
1.655,0.28856891614190205,82.19778113694667,0,90,3.0,1,0.09686146674116852
1.66,0.2564721553719815,82.46927305071628,0,90,3.0,1,0.1024592381590986
1.665,0.22384764873847685,82.95682150774277,0,90,3.0,1,0.11251178366479946
1.67,0.19186090753201765,83.56687754099825,0,90,3.0,1,0.12509025857728348
1.675,0.16148868344343878,84.23787322707521,0,90,3.0,1,0.1389252211768085
1.68,0.1334809643017881,84.92832444149448,0,90,3.0,1,0.15316132869060786
1.685,0.10834733138818531,85.60801881012263,0,90,3.0,1,0.16717564556953876
1.69,0.08636519236690572,86.25260772478875,0,90,3.0,1,0.18046613865543806
1.695,0.06760532616242629,86.84089403560439,0,90,3.0,1,0.19259575331143078
1.7,0.05196904332202373,87.35388295636871,0,90,3.0,1,0.20317284446121045
1.705,0.03923107185803287,87.77481720348132,0,90,3.0,1,0.21185190110270763
1.71,0.02908287038705761,88.08966243795557,0,90,3.0,1,0.21834355542176428
1.715,0.02117220077308346,88.28771551986046,0,90,3.0,1,0.22242712412083412
1.72,0.0151361834125735,88.36214631799686,0,90,3.0,1,0.22396177975251258
1.725,0.010626454858290009,88.31036736727964,0,90,3.0,1,0.22289417252122967
1.73,0.007326255555493652,88.13417633763018,0,90,3.0,1,0.21926136778618927
1.735,0.004960179211183015,87.83965035915766,0,90,3.0,1,0.213188667199127
1.74,0.0032978759379303545,87.43679744267308,0,90,3.0,1,0.20488242149841407
1.745,0.002153242296767213,86.9389917989111,0,90,3.0,1,0.1946183876064145
1.75,0.001380616732225004,86.36223716698538,0,90,3.0,1,0.18272653952547177
1.755,0.0008693106590991584,85.72431461211428,0,90,3.0,1,0.16957349715699555
1.76,0.000537524815942247,85.04387789533241,0,90,3.0,1,0.15554387413056525
1.765,0.0003263951340288585,84.33956014461978,0,90,3.0,1,0.14102185865195427
1.77,0.00019463030985187395,83.62915046826862,0,90,3.0,1,0.1263742364591468
1.775,0.00011397219555062695,82.92888923969679,0,90,3.0,1,0.11193586061230489
1.78,6.55403863487943e-05,82.25291740154772,0,90,3.0,1,0.09799829693912823
1.785,3.701184389455385e-05,81.61289990625842,0,90,3.0,1,0.08480205992285401
1.79,2.0525516217290957e-05,81.01782800176962,0,90,3.0,1,0.07253253611896114
1.795,1.1178128483661116e-05,80.47399100328275,0,90,3.0,1,0.0613194021295412
1.8,5.978135409912517e-06,79.9850966673004,0,90,3.0,1,0.05123910654227622
1.805,3.1396702713238487e-06,79.55251108450634,0,90,3.0,1,0.04231981617538835
1.81,1.6192875458531019e-06,79.17558445710158,0,90,3.0,1,0.034548133136115024
1.815,8.201353897972012e-07,78.85202811529082,0,90,3.0,1,0.027876868356511774
1.82,4.0791415086824765e-07,78.57831019218708,0,90,3.0,1,0.022233199838908767
1.825,1.9923866938774793e-07,78.35004180586505,0,90,3.0,1,0.01752663517247519
1.83,9.556527981051257e-08,78.16233155760507,0,90,3.0,1,0.013656320775362298
1.835,4.501406988770349e-08,78.01009280593172,0,90,3.0,1,0.01051737744189113
1.84,0.0,77.88829476616297,0,90,3.0,1,0.008006077652844772
1.845,0.0,77.79215442099877,0,90,3.0,1,0.006023802494820002
1.85,0.0,77.71727110655786,0,90,3.0,1,0.004479816630058962
1.855,0.0,77.65970925268655,0,90,3.0,1,0.003292974282196985
1.86,0.0,77.61603707332719,0,90,3.0,1,0.0023925169758183882
1.865,0.0,77.58333012691409,0,90,3.0,1,0.0017181469466823053
1.87,0.0,77.55914879585012,0,90,3.0,1,0.0012195628010334112
1.875,0.0,77.54149811404007,0,90,3.0,1,0.0008556312173209687
1.88,0.0,77.52877725728622,0,90,3.0,1,0.0005933455110561316
1.885,0.0,77.51972463735181,0,90,3.0,1,0.0004066935536456509
1.89,0.0,77.51336310074132,0,90,3.0,1,0.00027552785033640716
1.895,0.0,77.50894837231351,0,90,3.0,1,0.0001845025219280774
1.9,0.0,77.50592269592266,0,90,3.0,1,0.00012211744170440163
1.905,0.0,77.50387465835057,0,90,3.0,1,7.988986289831832e-05
1.91,0.0,77.50250545138663,0,90,3.0,1,5.1658791476807595e-05
1.915,0.0,77.50160131633649,0,90,3.0,1,3.301683168021236e-05
1.92,0.0,77.50101159546982,0,90,3.0,1,2.0857638552975802e-05
1.925,0.0,77.5006316481158,0,90,3.0,1,1.3023672490711779e-05
1.93,0.0,77.50038983616128,0,90,3.0,1,8.037858995371654e-06
1.935,0.0,77.50023780863849,0,90,3.0,1,4.903270896659603e-06
1.94,0.0,77.50014338764066,0,90,3.0,1,2.9564461992214493e-06
1.945,0.0,77.50008545439401,0,90,3.0,1,1.7619462682629541e-06
1.95,0.0,77.5000503379664,0,90,3.0,1,1.0378962144255338e-06
1.955,0.0,77.50002930863025,0,90,3.0,1,6.04301654562995e-07
1.96,0.0,77.50001686684932,0,90,3.0,1,3.47770089106656e-07
1.965,0.0,77.50000959424924,0,90,3.0,1,1.9781957185729233e-07
1.97,0.001684486749771458,77.50000539419466,0,90,3.0,1,1.1122050843190777e-07
1.975,0.004172395771277602,77.50000299764929,0,90,3.0,1,6.180720184911667e-08
1.98,0.009438687428818865,77.50000164654504,0,90,3.0,1,3.394938235689233e-08
1.985,0.019500507867137046,77.50000089393305,0,90,3.0,1,1.8431609246878916e-08
1.99,0.03679496976339974,77.50000047970579,0,90,3.0,1,9.890841025930826e-09
1.995,0.06340728953298436,77.5000002544389,0,90,3.0,1,5.246162926755695e-09
2.0,0.09979255396093453,77.50000013339228,0,90,3.0,1,2.750356222265706e-09
2.005,0.14343835518453557,77.50000006912201,0,90,3.0,1,1.4251960711243151e-09
2.01,0.18829581417209276,77.50000003540305,0,90,3.0,1,7.299597444253993e-10
2.015,0.2257481735193119,77.5000000179227,0,90,3.0,1,3.695402380433678e-10
2.02,0.24718154073554727,77.5000000089682,0,90,3.0,1,1.8491134854689477e-10
2.025,0.24718154074102772,77.50000000443552,0,90,3.0,1,9.145402877151092e-11
2.03,0.22574817354072055,77.50000000216832,0,90,3.0,1,4.4707641941339216e-11
2.035,0.18829581422840957,77.50000000104771,0,90,3.0,1,2.160225721098934e-11
2.04,0.14343835532456656,77.50000000050038,0,90,3.0,1,1.0317080523236655e-11
2.045,0.09979255431561854,77.5000000002362,0,90,3.0,1,4.870074561265413e-12
2.05,0.06340729067170194,77.5000000001102,0,90,3.0,1,2.272271717863743e-12
2.055,0.03679497683410042,77.50000000005083,0,90,3.0,1,1.0480871611603622e-12
2.06,0.019500578284482293,77.50000000002316,0,90,3.0,1,4.776019213562735e-13
2.065,0.009439396781978427,77.50000000001044,0,90,3.0,1,2.1536037558089634e-13
2.07,0.004178588733610924,77.50000000000465,0,90,3.0,1,9.581339158497021e-14
2.075,0.0017299316936037381,77.50000000000205,0,90,3.0,1,4.2193053175032755e-14
2.08,0.0008997325756988589,77.5000000000009,0,90,3.0,1,1.845946076407683e-14
2.085,0.001634769674224814,77.50000000000038,0,90,3.0,1,7.911197470318642e-15
2.09,0.00614904736476635,77.50000000000016,0,90,3.0,1,3.2230804508705575e-15
2.095,0.02168080359963608,77.50000000000007,0,90,3.0,1,1.465036568577526e-15
2.1,0.06433400338904088,77.50000000000003,0,90,3.0,1,5.860146274310105e-16
2.105,0.1593410769217493,77.50000000000001,0,90,3.0,1,2.9300731371550523e-16
2.11,0.3291989194808569,77.5,0,90,3.0,1,0.0
2.115,0.5672906802982638,77.5,0,90,3.0,1,0.0
2.12,0.815339152120446,77.5,0,90,3.0,1,0.0
2.125,0.9768711246313155,77.50000284586159,1,90,3.0,1,5.8677558500516847e-08
2.13,0.9726380909165361,77.50000554640805,0,90,3.0,1,1.1435892881458993e-07
2.135,0.7921091683291741,77.50001151682932,0,90,3.0,1,2.374603983045426e-07
2.14,0.49139090102639077,77.50002643002445,0,90,3.0,1,5.449489576934416e-07
2.145,0.15739335672107918,77.50006790101995,0,90,3.0,1,1.4000210298195504e-06
2.15,-0.11102342218909485,77.50019028911501,0,90,3.0,1,3.923486907442379e-06
2.155,-0.2314207883647528,77.50055528372543,0,90,3.0,1,1.1449148977995606e-05
2.16,-0.2029124434754801,77.5016191003873,0,90,3.0,1,3.338351314024416e-05
2.165,-0.11151350554305876,77.50459268016454,0,90,3.0,1,9.469443638216635e-05
2.17,-0.039430666652076896,77.51248521717368,0,90,3.0,1,0.00025742715822012853
2.175,-0.006087703519843621,77.53227388620262,0,90,3.0,1,0.0006654409526312796
2.18,0.005350271385530551,77.57900721106344,0,90,3.0,1,0.0016290146611018807
2.185,0.010381647827441833,77.68277725789753,0,90,3.0,1,0.003768603255619115
2.19,0.015115203303506243,77.89914273187748,0,90,3.0,1,0.008229747049020112
2.195,0.021170964062928475,78.32227751227126,0,90,3.0,1,0.01695417551074755
2.2,0.029082821134029553,79.09751100293126,0,90,3.0,1,0.03293837119445889
2.205,0.03923107061708144,80.42630442384339,0,90,3.0,1,0.06033617368749259
2.21,0.051969043308817596,82.55354337917821,0,90,3.0,1,0.10419677070470533
2.215,0.06760532616283861,85.72706210298368,0,90,3.0,1,0.16963014645327176
2.22,0.08636519236693461,90.12554414875623,0,90,3.0,1,0.26032049791249967
2.225,0.10834733138818661,95.76438236317041,0,90,3.0,1,0.3765852033643384
2.23,0.1334809643017884,102.40631247838554,0,90,3.0,1,0.5135322160491865
2.235,0.16148868344343945,109.51624731799802,0,90,3.0,1,0.6601288106803715
2.24,0.191860907532018,116.29749655462248,0,90,3.0,1,0.7999483825695357
2.245,0.22384764873847726,121.82388594751711,0,90,3.0,1,0.9138945556189095
2.25,0.25647215537198226,125.24436869130892,0,90,3.0,1,0.9844199730166788
2.255,0.2885689161419028,126.0,0,90,3.0,1,1.0
2.26,0.31884566517832524,123.97778706854874,0,90,3.0,1,0.9583048880113142
2.265,0.3459657668955683,119.54358950815404,0,90,3.0,1,0.8668781341887432
2.27,0.3686441789190902,113.44132554854066,0,90,3.0,1,0.7410582587327972
2.275,0.3857476379544367,106.59703250521925,0,90,3.0,1,0.599938814540603
2.28,0.3963882865005728,99.89899699454637,0,90,3.0,1,0.46183498957827557
2.285,0.4,94.02516929242782,0,90,3.0,1,0.3407251400500581
2.29,0.39638828650057273,89.3603322958374,0,90,3.0,1,0.24454293393479165
2.295,0.38574763795443656,86.00561321118767,0,90,3.0,1,0.1753734682719106
2.3,0.36864417891908974,83.85152120488316,0,90,3.0,1,0.13095920010068363
2.305,0.345965766895568,82.67378992307566,0,90,3.0,1,0.10667608088815793
2.31,0.3188456651783249,82.21795644486333,0,90,3.0,1,0.09727745247140893
2.315,0.28856891614190205,82.25491311032039,0,90,3.0,1,0.09803944557361624
2.32,0.2564721553719815,82.60568848479885,0,90,3.0,1,0.10527192752162572
2.325,0.22384764873847685,83.14350119463039,0,90,3.0,1,0.11636084937382245
2.33,0.19186090753201765,83.78381880877807,0,90,3.0,1,0.12956327440779516
2.335,0.16148868344343878,84.47111934410529,0,90,3.0,1,0.14373441946608845
2.34,0.1334809643017881,85.16736816282359,0,90,3.0,1,0.15809006521285757
2.345,0.10834733138818531,85.84401473859923,0,90,3.0,1,0.17204154100204594
2.35,0.08636519236690572,86.47738375513784,0,90,3.0,1,0.18510069598222342
2.355,0.06760532616242629,87.04656798666497,0,90,3.0,1,0.1968364533332983
2.36,0.05196904332202373,87.53286735530213,0,90,3.0,1,0.2068632444392192
2.365,0.03923107185803287,87.92003875076709,0,90,3.0,1,0.21484615980963073
2.37,0.02908287038705761,88.1948762403954,0,90,3.0,1,0.22051291217310107
2.375,0.02117220077308346,88.34783554716185,0,90,3.0,1,0.22366671231261545
2.38,0.0151361834125735,88.37354028569607,0,90,3.0,1,0.22419670692156837
2.385,0.010626454858290009,88.27108106749418,0,90,3.0,1,0.22208414572152949
2.39,0.007326255555493652,88.04406438191086,0,90,3.0,1,0.21740338931774963
2.395,0.004960179211183015,87.70040053904515,0,90,3.0,1,0.21031753688752883
2.4,0.0032978759379303545,87.25184573884796,0,90,3.0,1,0.20106898430614353
2.405,0.002153242296767213,86.71333452777212,0,90,3.0,1,0.18996566036643545
2.41,0.001380616732225004,86.10215528685912,0,90,3.0,2,0.17736402653317765
2.415,0.0008693106590991584,85.43703209507676,0,90,3.0,2,0.16365014629024247
2.42,0.000537524815942247,84.73718067857484,0,90,3.0,2,0.14922022017680092
2.425,0.0003263951340288585,84.02140412721407,0,90,3.0,2,0.1344619407673004
2.43,0.00019463030985187395,83.30728624532938,0,90,3.0,2,0.11973786072844081
2.435,0.00011397219555062695,82.61052800894745,0,90,3.0,2,0.10537171152468978
2.44,6.55403863487943e-05,81.94445724555983,0,90,3.0,2,0.09163829372288314
2.445,3.701184389455385e-05,81.31972513974611,0,90,3.0,2,0.07875721937620848
2.45,2.0525516217290957e-05,80.74418725350604,0,90,3.0,2,0.06689045883517611
2.455,1.1178128483661116e-05,80.22295293316265,0,90,3.0,2,0.056143359446652476
2.46,5.978135409912517e-06,79.75857634759942,0,90,3.0,2,0.046568584486585886
2.465,3.1396702713238487e-06,79.35135557138227,0,90,3.0,2,0.038172279822314865
2.47,1.6192875458531019e-06,78.9997032039245,0,90,3.0,2,0.030921715544834992
2.475,8.201353897972012e-07,78.70055267993662,0,90,3.0,2,0.02475366350384785
2.48,4.0791415086824765e-07,78.44976802421002,0,90,3.0,2,0.01958284586000033
2.485,1.9923866938774793e-07,78.24253048240675,0,90,3.0,2,0.015309906853747415
2.49,9.556527981051257e-08,78.07368229950097,0,90,3.0,2,0.011828501020638621
2.495,4.501406988770349e-08,77.93801505095327,0,90,3.0,2,0.009031238163984913
2.5,0.0,77.8304966317818,0,90,3.0,2,0.006814363541892754
2.505,0.0,77.74643674394598,0,90,3.0,2,0.005081169978267584
2.51,0.0,77.68159517563214,0,90,3.0,2,0.0037442304254049416
2.515,0.0,77.63224022257143,0,90,3.0,2,0.0027266025272458896
2.52,0.0,77.59516631581924,0,90,3.0,2,0.0019621920787472524
2.525,0.0,77.56768046943643,0,90,3.0,2,0.0013954735966273202
2.53,0.0,77.54756679479637,0,90,3.0,2,0.0009807586555951992
2.535,0.0,77.53303732186714,0,90,3.0,2,0.0006811818941678587
2.54,0.0,77.52267598708985,0,90,3.0,2,0.00046754612556401535
2.545,0.0,77.51538112097494,0,90,3.0,2,0.0003171365149471419
2.55,0.0,77.51031027372,0,90,3.0,2,0.00021258296329886004
2.555,0.0,77.50682987606086,0,90,3.0,2,0.00014082218682191167
2.56,0.0,77.50447111531227,0,90,3.0,2,9.218794458289717e-05
2.565,0.0,77.50289253977044,0,90,3.0,2,5.963999526685941e-05
2.57,0.0,77.50184928236199,0,90,3.0,2,3.812953323686604e-05
2.575,0.0,77.50116838920664,0,90,3.0,2,2.4090499105981152e-05
2.58,0.0,77.50072951170684,0,90,3.0,2,1.5041478491477542e-05
2.585,0.0,77.50045012943687,0,90,3.0,2,9.281019316924508e-06
2.59,0.0,77.50027447512092,0,90,3.0,2,5.659280843666547e-06
2.595,0.0,77.50016539751311,0,90,3.0,2,3.4102580023678343e-06
2.6,0.0,77.50009849527245,0,90,3.0,2,2.03083035986901e-06
2.605,0.0,77.50005796451639,0,90,3.0,2,1.1951446677676826e-06
2.61,0.0,77.50003371083174,0,90,3.0,2,6.950686957497027e-07
2.615,0.0,77.50001937479605,0,90,3.0,2,3.9948033100493557e-07
2.62,0.0,77.50001100437119,0,90,3.0,2,2.2689425130939178e-07
2.625,0.001684486749771458,77.50000617666068,0,90,3.0,2,1.2735382837650157e-07
2.63,0.004172395771277602,77.50000342612084,0,90,3.0,2,7.064166682998944e-08
2.635,0.009438687428818865,77.5000018780711,0,90,3.0,2,3.872311552739345e-08
2.64,0.019500507867137046,77.50000101737673,0,90,3.0,2,2.097683983903181e-08
2.645,0.03679496976339974,77.50000054464309,0,90,3.0,2,1.1229754354363397e-08
2.65,0.06340728953298436,77.50000028813938,0,90,3.0,2,5.941018050939466e-09
2.655,0.09979255396093453,77.50000015064462,0,90,3.0,2,3.106074719306486e-09
2.66,0.14343835518453557,77.50000007783323,0,90,3.0,2,1.6048089684172924e-09
2.665,0.18829581417209276,77.50000003974084,0,90,3.0,2,8.193987619004887e-10
2.67,0.2257481735193119,77.50000002005254,0,90,3.0,2,4.134544161791654e-10
2.675,0.24718154073554727,77.50000000999913,0,90,3.0,2,2.061675641203861e-10
2.68,0.24718154074102772,77.50000000492737,0,90,3.0,2,1.0159530490651828e-10
2.685,0.22574817354072055,77.50000000239955,0,90,3.0,2,4.94751639428042e-11
2.69,0.18829581422840957,77.50000000115479,0,90,3.0,2,2.381006731983567e-11
2.695,0.14343835532456656,77.5000000005492,0,90,3.0,2,1.132385365316313e-11
2.7,0.09979255431561854,77.50000000025813,0,90,3.0,2,5.322184846328437e-12
2.705,0.06340729067170194,77.5000000001199,0,90,3.0,2,2.4721027058177174e-12
2.71,0.03679497683410042,77.50000000005502,0,90,3.0,2,1.1345243187064363e-12
2.715,0.019500578284482293,77.50000000002495,0,90,3.0,2,5.145208428844272e-13
2.72,0.009439396781978427,77.50000000001118,0,90,3.0,2,2.305967558941026e-13
2.725,0.004178588733610924,77.50000000000496,0,90,3.0,2,1.0225955248671133e-13
2.73,0.0017299316936037381,77.50000000000217,0,90,3.0,2,4.48301189984723e-14
2.735,0.0008997325756988589,77.50000000000094,0,90,3.0,2,1.9338482705223346e-14
2.74,0.001634769674224814,77.5000000000004,0,90,3.0,2,8.204204784034146e-15
2.745,0.00614904736476635,77.50000000000017,0,90,3.0,2,3.516087764586063e-15
2.75,0.02168080359963608,77.50000000000007,0,90,3.0,2,1.465036568577526e-15
2.755,0.06433400338904088,77.50000000000003,0,90,3.0,2,5.860146274310105e-16
2.76,0.1593410769217493,77.50000000000001,0,90,3.0,2,2.9300731371550523e-16
2.765,0.3291989194808569,77.5,0,90,3.0,2,0.0
2.77,0.5672906802982638,77.5,0,90,3.0,2,0.0
2.775,0.815339152120446,77.5,0,90,3.0,2,0.0
2.78,0.9768711246313155,77.50000285438263,1,90,3.0,2,5.885325008093037e-08
2.785,0.9726380909165361,77.50000490798809,0,90,3.0,2,1.0119563062430316e-07
2.79,0.7921091683291741,77.50000876182364,0,90,3.0,2,1.8065615745165148e-07
2.795,0.49139090102639077,77.5000165920193,0,90,3.0,2,3.421034908644719e-07
2.8,0.15739335672107918,77.50003385036689,0,90,3.0,2,6.97945709071439e-07
2.805,-0.11102342218909485,77.50007435934741,0,90,3.0,2,1.5331824207918282e-06
2.81,-0.2314207883647528,77.50017274998639,0,90,3.0,2,3.561855389492492e-06
2.815,-0.2029124434754801,77.50041351300322,0,90,3.0,2,8.526041303585517e-06
2.82,-0.11151350554305876,77.50099568078633,0,90,3.0,2,2.0529500749109932e-05
2.825,-0.039430666652076896,77.50236971223775,0,90,3.0,2,4.886004613920179e-05
2.83,-0.006087703519843621,77.5055120944739,0,90,3.0,2,0.00011365143245155093
2.835,0.005350271385530551,77.51244596989915,0,90,3.0,2,0.00025661793606489194
2.84,0.010381647827441833,77.52717057486487,0,90,3.0,2,0.0005602180384508972
2.845,0.015115203303506243,77.55721592054012,0,90,3.0,2,0.0011797097018580694
2.85,0.021170964062928475,77.61606227824153,0,90,3.0,2,0.00239303666477379
2.855,0.029082821134029553,77.72660549211236,0,90,3.0,2,0.004672278187883618
2.86,0.03923107061708144,77.92564105826666,0,90,3.0,2,0.008776104294158005
2.865,0.051969043308817596,78.26891948551088,0,90,3.0,2,0.01585401001053357
2.87,0.06760532616283861,78.83567823921733,0,90,3.0,2,0.027539757509635672
2.875,0.08636519236693461,79.73077347175595,0,90,3.0,2,0.04599532931455572
2.88,0.10834733138818661,81.08186407813274,0,90,3.0,2,0.07385286759036574
2.885,0.1334809643017884,83.02893871137952,0,90,3.0,2,0.1139987363171036
2.89,0.16148868344343945,85.70427428345654,0,90,3.0,2,0.1691602945042586
2.895,0.191860907532018,89.20297317559513,0,90,3.0,2,0.24129841599165222
2.9,0.22384764873847726,93.54743690524495,0,90,3.0,2,0.3308749877370093
2.905,0.25647215537198226,98.65278368312896,0,90,3.0,2,0.4361398697552363
2.91,0.2885689161419028,104.30301930813482,0,90,3.0,2,0.5526395733636046
2.915,0.31884566517832524,110.14822115319846,0,90,3.0,2,0.6731591990350199
2.92,0.3459657668955683,115.73000984596136,0,90,3.0,2,0.788247625689925
2.925,0.3686441789190902,120.5361767888806,0,90,3.0,2,0.8873438513171257
2.93,0.3857476379544367,124.07697600191973,0,90,3.0,2,0.9603500206581388
2.935,0.3963882865005728,125.9679329806614,0,90,3.0,2,0.999338824343534
2.94,0.4,126.0,0,90,3.0,2,1.0
2.945,0.39638828650057273,124.179457125695,0,90,3.0,2,0.9624630335194845
2.95,0.38574763795443656,120.72712903134621,0,90,3.0,2,0.891281010955592
2.955,0.36864417891908974,116.03711754734277,0,90,3.0,2,0.7945797432441809
2.96,0.345965766895568,110.60581198433403,0,90,3.0,2,0.6825940615326603
2.965,0.3188456651783249,104.94893447767554,0,90,3.0,2,0.5659574119108358
2.97,0.28856891614190205,99.5257333923695,0,90,3.0,2,0.4541388328323609
2.975,0.2564721553719815,94.6852416077423,0,90,3.0,2,0.3543348785101505
2.98,0.22384764873847685,90.64178407123171,0,90,3.0,2,0.2709646200253961
2.985,0.19186090753201765,87.4785903024585,0,90,3.0,2,0.20574412994759794
2.99,0.16148868344343878,85.1720692802678,0,90,3.0,2,0.1581869954694393
2.995,0.1334809643017881,83.62645237665319,0,90,3.0,2,0.1263186057041895
3.0,0.10834733138818531,82.70907002014256,0,90,3.0,2,0.10740350556994974
3.005,0.08636519236690572,82.27938805113108,0,90,3.0,2,0.09854408352847585
3.01,0.06760532616242629,82.20858406356933,0,90,3.0,2,0.0970842074962749
3.015,0.05196904332202373,82.38962199058922,0,90,3.0,2,0.10081694825957153
3.02,0.03923107185803287,82.73979502082149,0,90,3.0,2,0.10803701073858742
3.025,0.02908287038705761,83.19846256402695,0,90,3.0,2,0.11749407348509183
3.03,0.02117220077308346,83.7225172699791,0,90,3.0,2,0.1282993251542081
3.035,0.0151361834125735,84.28143513244977,0,90,3.0,2,0.1398234047927788
3.04,0.010626454858290009,84.85297849135206,0,90,3.0,2,0.15160780394540332
3.045,0.007326255555493652,85.41997879394694,0,90,3.0,2,0.1632985318339575
3.05,0.004960179211183015,85.96821055646527,0,90,3.0,2,0.17460227951474774
3.055,0.0032978759379303545,86.48516315033311,0,90,3.0,2,0.18526109588315687
3.06,0.002153242296767213,86.95945946664608,0,90,3.0,2,0.195040401374146
3.065,0.001380616732225004,87.38069290852465,0,90,3.0,2,0.20372562697988972
3.07,0.0008693106590991584,87.7395063586069,0,90,3.0,2,0.21112384244550314
3.075,0.000537524815942247,88.0277899940315,0,90,3.0,2,0.21706783492848442
3.08,0.0003263951340288585,88.23891716841138,0,90,3.0,2,0.22142097254456447
3.085,0.00019463030985187395,88.36796717802692,0,90,3.0,2,0.22408179748509105
3.09,0.00011397219555062695,88.4119030921089,0,90,3.0,2,0.22498769262080207
3.095,6.55403863487943e-05,88.36968541349775,0,90,3.0,2,0.22411722502057213
3.1,3.701184389455385e-05,88.24231099266989,0,90,3.0,2,0.22149094830247187
3.105,2.0525516217290957e-05,88.03277318202096,0,90,3.0,2,0.21717058107259712
3.11,1.1178128483661116e-05,87.74594465103213,0,90,3.0,2,0.21125659074293057
3.115,5.978135409912517e-06,87.3883889597389,0,90,3.0,2,0.20388430844822483
3.12,3.1396702713238487e-06,86.96811095147308,0,90,3.0,2,0.19521878250459956
3.125,1.6192875458531019e-06,86.49425917535086,0,90,3.0,2,0.18544864279073942
3.13,8.201353897972012e-07,85.97679575397432,0,90,3.0,2,0.17477929389637764
3.135,4.0791415086824765e-07,85.42615027643305,0,90,3.0,2,0.16342577889552679
3.14,1.9923866938774793e-07,84.85287439100834,0,90,3.0,2,0.15160565754656374
3.145,9.556527981051257e-08,84.26731284242813,0,90,3.0,2,0.1395322235552191
3.15,4.501406988770349e-08,83.67930486469288,0,90,3.0,2,0.12740834772562643
3.155,0.0,83.0979272828346,0,90,3.0,2,0.11542118108937328
3.16,0.0,82.53128761864484,0,90,3.0,2,0.10373788904422349
3.165,0.0,81.98637218109799,0,90,3.0,2,0.09250251919789672
3.17,0.0,81.46895079637038,0,90,3.0,2,0.08183403703856451
3.175,0.0,80.98353671922568,0,90,3.0,2,0.071825499365478
3.18,0.0,80.53339755454446,0,90,3.0,2,0.0625442794751436
3.185,0.0,80.12061084387935,0,90,3.0,2,0.05403321327586284
3.19,0.0,79.74615642136378,0,90,3.0,2,0.046312503533273784
3.195,0.0,79.41003674488853,0,90,3.0,2,0.03938220092553669
3.2,0.0,79.11141613975474,0,90,3.0,2,0.03322507504648944
3.205,0.0,78.84877018756029,0,90,3.0,2,0.02780969458887198
3.21,0.0,78.6200372552955,0,90,3.0,2,0.023093551655577325
3.215,0.0,78.42276527103053,0,90,3.0,2,0.01902608806248511
3.22,0.0,78.25424818799434,0,90,3.0,2,0.015551509030811036
3.225,0.0,78.11164801646754,0,90,3.0,2,0.012611299308609089
3.23,0.0,77.9920997333571,0,90,3.0,2,0.01014638625478544
3.235,0.0,77.89279771215702,0,90,3.0,2,0.00809892190014473
3.24,0.0,77.81106348355671,0,90,3.0,2,0.006413680073334192
3.245,0.0,77.74439559553625,0,90,3.0,2,0.005039084444046328
3.25,0.0,77.69050307062214,0,90,3.0,2,0.003927898363343143
3.255,0.0,77.6473244564584,0,90,3.0,2,0.003037617658936215
3.26,0.0,77.61303474959401,0,90,3.0,2,0.0023306133936908694
3.265,0.0,77.5860425687419,0,90,3.0,2,0.0017740735823072664
3.27,0.0,77.56497989724345,0,90,3.0,2,0.0013397916957411705
3.275,0.0,77.5486865425945,0,90,3.0,2,0.0010038462390617642
3.28,0.0,77.53619121066095,0,90,3.0,2,0.0007462105290916539
3.285,0.0,77.52669079745137,0,90,3.0,2,0.0005503257206467156
3.29,0.0,77.51952919085412,0,90,3.0,2,0.0004026637289508265
3.295,0.0,77.51417657146926,0,90,3.0,2,0.00029230044266523455
3.3,0.0,77.51020992226385,0,90,3.0,2,0.00021051386111039814
3.305,0.0,77.50729521206802,0,90,3.0,2,0.00015041674367042565
3.31,0.0,77.50517151357019,0,90,3.0,2,0.00010662914577710814
3.315,0.0,77.50363715390067,0,90,3.0,2,7.49928639313285e-05
3.32,0.0,77.50253787337257,0,90,3.0,2,5.2327286032463816e-05
3.325,0.0,77.50175688155026,0,90,3.0,2,3.6224361861117755e-05
3.33,0.0,77.50120664433146,0,90,3.0,2,2.4879264566203984e-05
3.335,0.0,77.50082220541694,0,90,3.0,2,1.695268900903102e-05
3.34,0.0,77.5005558346956,0,90,3.0,2,1.1460509187703248e-05
3.345,0.0,77.50037279942399,0,90,3.0,2,7.68658606155197e-06
3.35,0.0,77.50024806704589,0,90,3.0,2,5.114784451298527e-06
3.355,0.0,77.50016376729623,0,90,3.0,2,3.3766452830703427e-06
3.36,0.0,77.50010726290255,0,90,3.0,2,2.2116062380579943e-06
3.365,0.0,77.50006970054478,0,90,3.0,2,1.437124634736561e-06
3.37,0.0,77.50004493523964,0,90,3.0,2,9.264997864535224e-07
3.375,0.0,77.50002874102243,0,90,3.0,2,5.925984006826746e-07
3.38,0.0,77.50001823818543,0,90,3.0,2,3.7604506047435127e-07
3.385,0.0,77.50001148220515,0,90,3.0,2,2.3674649799797464e-07
3.39,0.0,77.50000717188371,0,90,3.0,2,1.478738909099775e-07
3.395,0.0,77.50000444432119,0,90,3.0,2,9.163548849390225e-08
3.4,0.0,77.50000273238504,0,90,3.0,2,5.633783591302116e-08
3.405,0.0,77.50000166664314,0,90,3.0,2,3.436377615451926e-08
3.41,0.0,77.50000100857362,0,90,3.0,2,2.0795332356448347e-08
3.415,0.0,77.50000060553165,0,90,3.0,2,1.2485188727089164e-08
3.42,0.0,77.5000003606869,0,90,3.0,2,7.436843242027591e-09
3.425,0.001684486749771458,77.50000021315137,0,90,3.0,2,4.394873541837723e-09
3.43,0.004172395771277602,77.50000012497127,0,90,3.0,2,2.5767271203334266e-09
3.435,0.009438687428818865,77.50000007269365,0,90,3.0,2,1.4988381852950605e-09
3.44,0.019500507867137046,77.50000004195145,0,90,3.0,2,8.649783936074452e-10
3.445,0.03679496976339974,77.50000002401939,0,90,3.0,2,4.95245063744339e-10
3.45,0.06340728953298436,77.50000001364397,0,90,3.0,2,2.8131895896408004e-10
3.455,0.09979255396093453,77.50000000768925,0,90,3.0,2,1.585412763271267e-10
3.46,0.14343835518453557,77.50000000429924,0,90,3.0,2,8.864408863297923e-11
3.465,0.18829581417209276,77.50000000238487,0,90,3.0,2,4.917248738773609e-11
3.47,0.2257481735193119,77.5000000013125,0,90,3.0,2,2.706186248745035e-11
3.475,0.24718154073554727,77.50000000071664,0,90,3.0,2,1.4776065823359212e-11
3.48,0.24718154074102772,77.50000000038821,0,90,3.0,2,8.004373796080172e-12
3.485,0.22574817354072055,77.50000000020864,0,90,3.0,2,4.301933379971048e-12
3.49,0.18829581422840957,77.50000000011124,0,90,3.0,2,2.293661251764975e-12
3.495,0.14343835532456656,77.50000000005885,0,90,3.0,2,1.2133432860959072e-12
3.5,0.09979255431561854,77.50000000003088,0,90,3.0,2,6.367048927037928e-13
3.505,0.06340729067170194,77.50000000001609,0,90,3.0,2,3.316842791259519e-13
3.51,0.03679497683410042,77.50000000000831,0,90,3.0,2,1.7140927852357056e-13
3.515,0.019500578284482293,77.50000000000426,0,90,3.0,2,8.790219411465157e-14
3.52,0.009439396781978427,77.50000000000216,0,90,3.0,2,4.4537111684756795e-14
3.525,0.004178588733610924,77.5000000000011,0,90,3.0,2,2.25615631560939e-14
3.53,0.0017299316936037381,77.50000000000054,0,90,3.0,2,1.1134277921189199e-14
3.535,0.0008997325756988589,77.50000000000027,0,90,3.0,2,5.567138960594599e-15
3.54,0.001634769674224814,77.50000000000013,0,90,3.0,2,2.637065823439547e-15
3.545,0.00614904736476635,77.50000000000007,0,90,3.0,2,1.465036568577526e-15
3.55,0.02168080359963608,77.50000000000003,0,90,3.0,2,5.860146274310105e-16
3.555,0.06433400338904088,77.50000000000001,0,90,3.0,2,2.9300731371550523e-16
3.56,0.1593410769217493,77.5,0,90,3.0,2,0.0
3.565,0.3291989194808569,77.5,0,90,3.0,2,0.0
3.57,0.5672906802982638,77.5,0,90,3.0,2,0.0
3.575,0.815339152120446,77.5,0,90,3.0,2,0.0
3.58,0.9768711246313155,77.50000284164666,1,90,3.0,2,5.859065282427614e-08
3.585,0.9726380909165361,77.50000513541534,0,90,3.0,2,1.0588485228132395e-07
3.59,0.7921091683291741,77.50000972533142,0,90,3.0,2,2.0052229739665507e-07
3.595,0.49139090102639077,77.50001983204943,0,90,3.0,2,4.089082357115762e-07
3.6,0.15739335672107918,77.50004425244363,0,90,3.0,2,9.124215181337914e-07
3.605,-0.11102342218909485,77.50010715796503,0,90,3.0,2,2.2094425779981713e-06
3.61,-0.2314207883647528,77.5002735884935,0,90,3.0,2,5.640999865963562e-06
3.615,-0.2029124434754801,77.50071229869842,0,90,3.0,3,1.4686571101384692e-05
3.62,-0.11151350554305876,77.50184192436068,0,90,3.0,3,3.797782186960334e-05
3.625,-0.039430666652076896,77.50465058308532,0,90,3.0,3,9.588831103756842e-05
3.63,-0.006087703519843621,77.51135048292498,0,90,3.0,3,0.00023403057577282423
3.635,0.005350271385530551,77.52662836067672,0,90,3.0,3,0.0005490383644685481
3.64,0.010381647827441833,77.55986008283949,0,90,3.0,3,0.0012342285121544779
3.645,0.015115203303506243,77.62871615943192,0,90,3.0,3,0.002653941431585923
3.65,0.021170964062928475,77.76448507889882,0,90,3.0,3,0.005453300595851858
3.655,0.029082821134029553,78.0190308444065,0,90,3.0,3,0.010701666894979403
3.66,0.03923107061708144,78.47243990533991,0,90,3.0,3,0.020050307326596104
3.665,0.051969043308817596,79.23909047325527,0,90,3.0,3,0.03585753553103658
3.67,0.06760532616283861,80.468368163272,0,90,3.0,3,0.06120346728395884
3.675,0.08636519236693461,82.33522248926154,0,90,3.0,3,0.09969530905693896
3.68,0.10834733138818661,85.01619319399947,0,90,3.0,3,0.15497305554638083
3.685,0.1334809643017884,88.64936492577402,0,90,3.0,3,0.2298838129025572
3.69,0.16148868344343945,93.28217293658074,0,90,3.0,3,0.32540562755836566
3.695,0.191860907532018,98.81798972078323,0,90,3.0,3,0.4395461798099635
3.7,0.22384764873847726,104.97837403835521,0,90,3.0,3,0.5665644131619632
3.705,0.25647215537198226,111.29935597736814,0,90,3.0,3,0.6968939376776936
3.71,0.2885689161419028,117.17453906786568,0,90,3.0,3,0.8180317333580552
3.715,0.31884566517832524,121.94509813663508,0,90,3.0,3,0.9163937760130945
3.72,0.3459657668955683,125.02047608087008,0,90,3.0,3,0.9798036305334038
3.725,0.3686441789190902,126.0,0,90,3.0,3,1.0
3.73,0.3857476379544367,124.76110192272094,0,90,3.0,3,0.9744557097468235
3.735,0.3963882865005728,121.4875182790804,0,90,3.0,3,0.9069591397748537
3.74,0.4,116.6287058194931,0,90,3.0,3,0.8067774395771774
3.745,0.39638828650057273,110.80301806039404,0,90,3.0,3,0.6866601661936915
3.75,0.38574763795443656,104.67357444072778,0,90,3.0,3,0.5602798853758304
3.755,0.36864417891908974,98.83118480258737,0,90,3.0,3,0.43981824335231695
3.76,0.345965766895568,93.71212167075892,0,90,3.0,3,0.334270549912555
3.765,0.3188456651783249,89.56393789015415,0,90,3.0,3,0.24874098742585876
3.77,0.28856891614190205,86.45649610709219,0,90,3.0,3,0.18467002282664313
3.775,0.2564721553719815,84.3238267777099,0,90,3.0,3,0.14069745933422467
3.78,0.22384764873847685,83.01824586008357,0,90,3.0,3,0.11377826515636222
3.785,0.19186090753201765,82.3607250432506,0,90,3.0,3,0.10022113491238344
3.79,0.16148868344343878,82.17790417755486,0,90,3.0,3,0.09645163252690443
3.795,0.1334809643017881,82.32301424983154,0,90,3.0,3,0.09944359278003184
3.8,0.10834733138818531,82.68299482340544,0,90,3.0,3,0.10686587264753479
3.805,0.08636519236690572,83.17642932367355,0,90,3.0,3,0.11703977986955764
3.81,0.06760532616242629,83.747005124037,0,90,3.0,3,0.12880422936158767
3.815,0.05196904332202373,84.35601615827898,0,90,3.0,3,0.1413611579026593
3.82,0.03923107185803287,84.97590794405919,0,90,3.0,3,0.1541424318362719
3.825,0.02908287038705761,85.58561130572897,0,90,3.0,3,0.16671363516966958
3.83,0.02117220077308346,86.1676328734186,0,90,3.0,3,0.17871407986430096
3.835,0.0151361834125735,86.70652267302486,0,90,3.0,3,0.18982520975308997
3.84,0.010626454858290009,87.18827313384817,0,90,3.0,3,0.1997582089453231
3.845,0.007326255555493652,87.6002732574449,0,90,3.0,3,0.20825305685453396
3.85,0.004960179211183015,87.93154771974346,0,90,3.0,3,0.21508345813904048
3.855,0.0032978759379303545,88.17310463785162,0,90,3.0,3,0.22006401315157983
3.86,0.002153242296767213,88.31828322100691,0,90,3.0,3,0.22305738600014244
3.865,0.001380616732225004,88.36303606968106,0,90,3.0,3,0.22398012514806306
3.87,0.0008693106590991584,88.30610811938153,0,90,3.0,3,0.22280635297693885
3.875,0.000537524815942247,88.14909210780685,0,90,3.0,3,0.2195689094393165
3.88,0.0003263951340288585,87.89635352979845,0,90,3.0,3,0.2143578047381123
3.885,0.00019463030985187395,87.55482865987335,0,90,3.0,3,0.2073160548427495
3.89,0.00011397219555062695,87.13370820829557,0,90,3.0,3,0.19863315893392935
3.895,6.55403863487943e-05,86.64402658647539,0,90,3.0,3,0.18853663064897713
3.9,3.701184389455385e-05,86.09818233591776,0,90,3.0,3,0.1772821100189228
3.905,2.0525516217290957e-05,85.50941874168905,0,90,3.0,3,0.1651426544678154
3.91,1.1178128483661116e-05,84.89129484704627,0,90,3.0,3,0.15239783189786119
3.915,5.978135409912517e-06,84.25717603311269,0,90,3.0,3,0.13932321717758114
3.92,3.1396702713238487e-06,83.61977023968812,0,90,3.0,3,0.1261808296842912
3.925,1.6192875458531019e-06,82.99073116007229,0,90,3.0,3,0.11321095175406776
3.93,8.201353897972012e-07,82.38034384450859,0,90,3.0,3,0.10062564627852758
3.935,4.0791415086824765e-07,81.79730165774147,0,90,3.0,3,0.08860415789157672
3.94,1.9923866938774793e-07,81.24857702449877,0,90,3.0,3,0.07729024792780972
3.945,9.556527981051257e-08,80.73938237949095,0,90,3.0,3,0.06679138926785459
3.95,4.501406988770349e-08,80.27321263676781,0,90,3.0,3,0.05717964199521256
3.955,0.0,79.85195660178154,0,90,3.0,3,0.04849395055219666
3.96,0.0,79.47606222315747,0,90,3.0,3,0.04074355099293753
3.965,0.0,79.14473943737704,0,90,3.0,3,0.03391215334798022
3.97,0.0,78.85618449458457,0,90,3.0,3,0.027962566898650884
3.975,0.0,78.60781086922685,0,90,3.0,3,0.022841461221172223
3.98,0.0,78.39647389480362,0,90,3.0,3,0.018483997831002474
3.985,0.0,78.21867882903723,0,90,3.0,3,0.014818120186334651
3.99,0.0,78.07076486884718,0,90,3.0,3,0.011768347811282017
3.995,0.0,77.94906043727421,0,90,3.0,3,0.009258978088128096
4.0,0.0,77.85000764806028,0,90,3.0,3,0.007216652537325449
4.005,0.0,77.77025606689202,0,90,3.0,3,0.005572290039010662
4.01,0.0,77.706727640736,0,90,3.0,3,0.00426242558218568
4.015,0.0,77.65665592416397,0,90,3.0,3,0.003230019054927235
4.02,0.0,77.61760350788578,0,90,3.0,3,0.002424814595582992
4.025,0.0,77.58746190000828,0,90,3.0,3,0.0018033381445005938
4.03,0.0,77.5644380986904,0,90,3.0,3,0.001328620591554691
4.035,0.0,77.54703181144795,0,90,3.0,3,0.0009697280710917753
4.04,0.0,77.53400680827698,0,90,3.0,3,0.000701171304680096
4.045,0.0,77.52435932323314,0,90,3.0,3,0.0005022540872812794
4.05,0.0,77.51728581027695,0,90,3.0,3,0.00035640845931846006
4.055,0.0,77.51215176729428,0,90,3.0,3,0.0002505519029749352
4.06,0.0,77.5084628048222,0,90,3.0,3,0.00017449082107632
4.065,0.0,77.50583867610601,0,90,3.0,3,0.00012038507435070492
4.07,0.0,77.50399061307752,0,90,3.0,3,8.228068201070837e-05
4.075,0.0,77.50270202919619,0,90,3.0,3,5.571194218940449e-05
4.08,0.0,77.50181244831914,0,90,3.0,3,3.7370068435934955e-05
4.085,0.0,77.50120438795803,0,90,3.0,3,2.4832741402600658e-05
4.09,0.0,77.50079285241956,0,90,3.0,3,1.6347472568347174e-05
4.095,0.0,77.50051706302851,0,90,3.0,3,1.0661093371355332e-05
4.1,0.0,77.50033405639782,0,90,3.0,3,6.8877607797623064e-06
4.105,0.0,77.50021380668517,0,90,3.0,3,4.408385261177903e-06
4.11,0.0,77.50013556511455,0,90,3.0,3,2.7951570009768194e-06
4.115,0.0,77.5000851529678,0,90,3.0,3,1.7557312948198517e-06
4.12,0.0,77.50005298791253,0,90,3.0,3,1.0925342788717917e-06
4.125,0.0,77.50003266472537,0,90,3.0,3,6.73499492107759e-07
4.13,0.0,77.50001994832292,0,90,3.0,3,4.113056271195354e-07
4.135,0.0,77.50001206865707,0,90,3.0,3,2.48838290124545e-07
4.14,0.0,77.5000072333034,0,90,3.0,3,1.4914027643105337e-07
4.145,0.0,77.5000042947669,0,90,3.0,3,8.855189476074059e-08
4.15,0.0,77.50000252619976,0,90,3.0,3,5.208659309133022e-08
4.155,0.0,77.50000147204457,0,90,3.0,3,3.035143450200774e-08
4.16,0.001684486749771458,77.50000084976611,0,90,3.0,3,1.7520950720055908e-08
4.165,0.004172395771277602,77.50000048596281,0,90,3.0,3,1.001985185315245e-08
4.17,0.009438687428818865,77.50000027531625,0,90,3.0,3,5.676623780430221e-09
4.175,0.019500507867137046,77.50000015452041,0,90,3.0,3,3.1859877760053704e-09
4.18,0.03679496976339974,77.50000008591421,0,90,3.0,3,1.771426991346987e-09
4.185,0.06340728953298436,77.50000004732269,0,90,3.0,3,9.757254889505535e-10
4.19,0.09979255396093453,77.50000002582253,0,90,3.0,3,5.324232967451309e-10
4.195,0.14343835518453557,77.50000001395898,0,90,3.0,3,2.878140520872116e-10
4.2,0.18829581417209276,77.50000000747538,0,90,3.0,3,1.5413151625570837e-10
4.205,0.2257481735193119,77.50000000396587,0,90,3.0,3,8.177043006052719e-11
4.21,0.24718154073554727,77.50000000208433,0,90,3.0,3,4.2975968717280584e-11
4.215,0.24718154074102772,77.50000000108524,0,90,3.0,3,2.2376089526511988e-11
4.22,0.22574817354072055,77.50000000055977,0,90,3.0,3,1.1541558087253752e-11
4.225,0.18829581422840957,77.50000000028602,0,90,3.0,3,5.897358203151974e-12
4.23,0.14343835532456656,77.5000000001448,0,90,3.0,3,2.9854515194472828e-12
4.235,0.09979255431561854,77.5000000000726,0,90,3.0,3,1.4969743657725163e-12
4.24,0.06340729067170194,77.50000000003607,0,90,3.0,3,7.436525622099523e-13
4.245,0.03679497683410042,77.50000000001775,0,90,3.0,3,3.6596613483066605e-13
4.25,0.019500578284482293,77.50000000000865,0,90,3.0,3,1.7844145405274268e-13
4.255,0.009439396781978427,77.50000000000418,0,90,3.0,3,8.614415023235853e-14
4.26,0.004178588733610924,77.500000000002,0,90,3.0,3,4.1314031233886236e-14
4.265,0.0017299316936037381,77.50000000000095,0,90,3.0,3,1.963149001893885e-14
4.27,0.0008997325756988589,77.50000000000044,0,90,3.0,3,9.083226725180661e-15
4.275,0.001634769674224814,77.50000000000021,0,90,3.0,3,4.395109705732579e-15
4.28,0.00614904736476635,77.5000000000001,0,90,3.0,3,2.0510511960085364e-15
4.285,0.02168080359963608,77.50000000000004,0,90,3.0,3,8.790219411465157e-16
4.29,0.06433400338904088,77.50000000000001,0,90,3.0,3,2.9300731371550523e-16
4.295,0.1593410769217493,77.50000000000001,0,90,3.0,3,2.9300731371550523e-16
4.3,0.3291989194808569,77.5,0,90,3.0,3,0.0
4.305,0.5672906802982638,77.5,0,90,3.0,3,0.0
4.31,0.815339152120446,77.5,0,90,3.0,3,0.0
4.315,0.9768711246313155,77.50000284784167,1,90,3.0,3,5.871838496758071e-08
4.32,0.9726380909165361,77.50000500507221,0,90,3.0,3,1.0319736517332561e-07
4.325,0.7921091683291741,77.5000091686428,0,90,3.0,3,1.890441815459743e-07
4.33,0.49139090102639077,77.50001793011047,0,90,3.0,3,3.696929994574245e-07
4.335,0.15739335672107918,77.50003803451901,0,90,3.0,3,7.842168867645126e-07
4.34,-0.11102342218909485,77.50008720525884,0,90,3.0,3,1.7980465739447495e-06
4.345,-0.2314207883647528,77.50021128600096,0,90,3.0,3,4.356412390964194e-06
4.35,-0.2029124434754801,77.50052526321522,0,90,3.0,3,1.0830169386051624e-05
4.355,-0.11151350554305876,77.50130643511761,0,90,3.0,3,2.6936806548714156e-05
4.36,-0.039430666652076896,77.50319460251153,0,90,3.0,3,6.586809302118512e-05
4.365,-0.006087703519843621,77.50759776984054,0,90,3.0,3,0.00015665504825863573
4.37,0.005350271385530551,77.51746486457824,0,90,3.0,3,0.0003601003005823512
4.375,0.010381647827441833,77.53866271321813,0,90,3.0,3,0.0007971693447037176
4.38,0.015115203303506243,77.58225742402149,0,90,3.0,3,0.0016960293612678751
4.385,0.021170964062928475,77.66799595773713,0,90,3.0,3,0.0034638341801470824
4.39,0.029082821134029553,77.82912594226663,0,90,3.0,3,0.006786101902404714
4.395,0.03923107061708144,78.11828020202714,0,90,3.0,3,0.012748045402621377
4.4,0.051969043308817596,78.6134212101303,0,90,3.0,3,0.022957138353202018
4.405,0.06760532616283861,79.42184006803714,0,90,3.0,3,0.03962556841313694
4.41,0.08636519236693461,80.67918959102214,0,90,3.0,3,0.06555030084581726
4.415,0.10834733138818661,82.53999862869271,0,90,3.0,3,0.10391749749881886
4.42,0.1334809643017884,85.15671549570214,0,90,3.0,3,0.1578704225917968
4.425,0.16148868344343945,88.64660514927232,0,90,3.0,3,0.2298269102942746
4.43,0.191860907532018,93.0498208292531,0,90,3.0,3,0.32061486245882664
4.435,0.22384764873847726,98.28687733416436,0,90,3.0,3,0.42859540895184245
4.44,0.25647215537198226,104.1278521713547,0,90,3.0,3,0.5490278798217465
4.445,0.2885689161419028,110.1867551126686,0,90,3.0,3,0.6739537136632703
4.45,0.31884566517832524,115.95093583348796,0,90,3.0,3,0.7928028006904734
4.455,0.3459657668955683,120.84699252210778,0,90,3.0,3,0.8937524231362429
4.46,0.3686441789190902,124.33341809910247,0,90,3.0,3,0.9656374865794325
4.465,0.3857476379544367,126.0,0,90,3.0,3,1.0
4.47,0.3963882865005728,125.64899379590275,0,90,3.0,3,0.9927627586784074
4.475,0.4,123.33600858159323,0,90,3.0,3,0.9450723418885203
4.48,0.39638828650057273,119.35905971777999,0,90,3.0,3,0.8630733962428863
4.485,0.38574763795443656,114.19889310231652,0,90,3.0,3,0.756678208295186
4.49,0.36864417891908974,108.4272130436868,0,90,3.0,3,0.6376744957461197
4.495,0.345965766895568,102.60708895577622,0,90,3.0,3,0.5176719372324994
4.5,0.3188456651783249,97.20932083286478,0,90,3.0,3,0.4063777491312325
4.505,0.28856891614190205,92.56094072447954,0,90,3.0,3,0.31053486029854716
4.51,0.2564721553719815,88.83086392400567,0,90,3.0,3,0.2336260602887767
4.515,0.22384764873847685,86.04725942611216,0,90,3.0,3,0.1762321531157147
4.52,0.19186090753201765,84.1346807598539,0,90,3.0,3,0.13679754144028644
4.525,0.16148868344343878,82.95748856417065,0,90,3.0,3,0.11252553740558033
4.53,0.1334809643017881,82.35870067278485,0,90,3.0,3,0.10017939531515152
4.535,0.10834733138818531,82.1880929738592,0,90,3.0,3,0.09666171080122059
4.54,0.08636519236690572,82.31806683684977,0,90,3.0,3,0.09934158426494363
4.545,0.06760532616242629,82.64913028424574,0,90,3.0,3,0.10616763472671635
4.55,0.05196904332202373,83.10838225134538,0,90,3.0,3,0.11563674745042012
4.555,0.03923107185803287,83.64444151385598,0,90,3.0,3,0.12668951574960785
4.56,0.02908287038705761,84.22145386082907,0,90,3.0,3,0.13858667754286746
4.565,0.02117220077308346,84.81375179244516,0,90,3.0,3,0.15079900602979712
4.57,0.0151361834125735,85.40182976721093,0,90,3.0,3,0.1629243250971325
4.575,0.010626454858290009,85.96969660892174,0,90,3.0,3,0.1746329197715822
4.58,0.007326255555493652,86.50336664105231,0,90,3.0,3,0.1856364255887074
4.585,0.004960179211183015,86.99016444250195,0,90,3.0,3,0.19567349365983402
4.59,0.0032978759379303545,87.418546690176,0,90,3.0,3,0.20450611732321652
4.595,0.002153242296767213,87.77821501494395,0,90,3.0,3,0.21192195907100933
4.6,0.001380616732225004,88.06036485670985,0,90,3.0,3,0.21773948158164647
4.605,0.0008693106590991584,88.2579706783744,0,90,3.0,3,0.22181382842009084
4.61,0.000537524815942247,88.36604570398518,0,90,3.0,3,0.22404217946361193
4.615,0.0003263951340288585,88.38183858849678,0,90,3.0,3,0.22436780594838715
4.62,0.00019463030985187395,88.30494505127466,0,90,3.0,3,0.22278237219123004
4.625,0.00011397219555062695,88.13732333923794,0,90,3.0,3,0.21932625441727707
4.63,6.55403863487943e-05,87.88321074397193,0,90,3.0,3,0.21408681946333874
4.635,3.701184389455385e-05,87.5489453886372,0,90,3.0,3,0.20719475028117926
4.64,2.0525516217290957e-05,87.14270347494788,0,90,3.0,3,0.1988186283494408
4.645,1.1178128483661116e-05,86.67416710033316,0,90,3.0,3,0.18915808454295185
4.65,5.978135409912517e-06,86.15414144283855,0,90,3.0,3,0.17843590603790827
4.655,3.1396702713238487e-06,85.59414239296551,0,90,3.0,3,0.1668895338755775
4.66,1.6192875458531019e-06,85.00597649365882,0,90,3.0,3,0.1547624019311097
4.665,8.201353897972012e-07,84.401334349279,0,90,3.0,3,0.1422955535933814
4.67,4.0791415086824765e-07,83.79141661387153,0,90,3.0,3,0.12971993018291822
4.675,1.9923866938774793e-07,83.18660850156178,0,90,3.0,3,0.11724965982601605
4.68,9.556527981051257e-08,82.5962147859916,0,90,3.0,3,0.10507659352560011
4.685,4.501406988770349e-08,82.02826282300234,0,90,3.0,3,0.09336624377324405
4.69,0.0,81.48937660159106,0,90,3.0,3,0.08225518766167136
4.695,0.0,80.98472053897156,0,90,3.0,3,0.07184990802003213
4.7,0.0,80.5180079714542,0,90,3.0,3,0.062226968483591674
4.705,0.0,80.09156626764032,0,90,3.0,3,0.053434356033820976
4.71,0.0,79.70644833556666,0,90,3.0,3,0.04549378011477655
4.715,0.0,79.36257905801442,0,90,3.0,3,0.03840369191782306
4.72,0.0,79.05892483911421,0,90,3.0,3,0.032142780187921896
4.725,0.0,78.79367488414451,0,90,3.0,3,0.026673708951433155
4.73,0.0,78.56442391838769,0,90,3.0,3,0.021946884915210085
4.735,0.0,78.3683476065922,0,90,3.0,3,0.01790407436272567
4.74,0.0,78.20236377881581,0,90,3.0,3,0.01448172739826409
4.745,0.0,78.06327452543111,0,90,3.0,3,0.011613907740847666
4.75,0.0,77.9478861391376,0,90,3.0,3,0.009234765755414317
4.755,0.0,77.85310563068178,0,90,3.0,3,0.007280528467665602
4.76,0.0,77.77601403877705,0,90,3.0,3,0.005691011108805136
4.765,0.0,77.71391794082291,0,90,3.0,3,0.004410679192224942
4.77,0.0,77.66438143043999,0,90,3.0,3,0.003389307844123468
4.775,0.0,77.62524137001843,0,90,3.0,3,0.0025822962890397765
4.78,0.0,77.59460898267879,0,90,3.0,3,0.001950700673789538
4.785,0.0,77.5708608640907,0,90,3.0,3,0.0014610487441382364
4.79,0.0,77.55262232393028,0,90,3.0,3,0.0010849963696964832
4.795,0.0,77.53874566435232,0,90,3.0,3,0.0007988796773674105
4.8,0.0,77.52828562039277,0,90,3.0,3,0.0005832086678920629
4.805,0.0,77.52047376969986,0,90,3.0,3,0.00042213958144045425
4.81,0.0,77.514693302759,0,90,3.0,3,0.00030295469606184523
4.815,0.0,77.51045515677697,0,90,3.0,3,0.00021557024282413192
4.82,0.0,77.50737617446104,0,90,3.0,4,0.00015208607136172497
4.825,0.0,77.50515966278871,0,90,3.0,4,0.0001063847997672908
4.83,0.0,77.5035784995472,0,90,3.0,4,7.378349581861435e-05
4.835,0.0,77.50246076489488,0,90,3.0,4,5.073742051293491e-05
4.84,0.0,77.50167775594724,0,90,3.0,4,3.459290612869323e-05
4.845,0.0,77.50113416687736,0,90,3.0,4,2.3384884069358676e-05
4.85,0.0,77.50076017685257,0,90,3.0,4,1.5673749537443692e-05
4.855,0.0,77.50050517497772,0,90,3.0,4,1.0415978922022068e-05
4.86,0.0,77.50033285763969,0,90,3.0,4,6.863044117341074e-06
4.865,0.0,77.50021745266571,0,90,3.0,4,4.483560117703221e-06
4.87,0.0,77.5001408511675,0,90,3.0,4,2.904147783524844e-06
4.875,0.0,77.50009045772786,0,90,3.0,4,1.8651077910236222e-06
4.88,0.0,77.5000575997246,0,90,3.0,4,1.1876231876050445e-06
4.885,0.0,77.50003636508839,0,90,3.0,4,7.497956369324007e-07
4.89,0.0,77.50002276346639,0,90,3.0,4,4.693498224757614e-07
4.895,0.0,77.50001412803148,0,90,3.0,4,2.912996181589499e-07
4.9,0.0,77.50000869389558,0,90,3.0,4,1.7925557897600362e-07
4.905,0.0,77.50000530440524,0,90,3.0,4,1.0936918010415444e-07
4.91,0.0,77.50000320884307,0,90,3.0,4,6.616171275446814e-08
4.915,0.0,77.50000192464115,0,90,3.0,4,3.9683322762995006e-08
4.92,0.0,77.50000114456529,0,90,3.0,4,2.3599284304509638e-08
4.925,0.0,77.50000067487117,0,90,3.0,4,1.3914869568157208e-08
4.93,0.001684486749771458,77.50000039453968,0,90,3.0,4,8.134838818599764e-09
4.935,0.004172395771277602,77.50000022869149,0,90,3.0,4,4.715288466670864e-09
4.94,0.009438687428818865,77.50000013143132,0,90,3.0,4,2.7099241430461033e-09
4.945,0.019500507867137046,77.5000000748923,0,90,3.0,4,1.5441711048438687e-09
4.95,0.03679496976339974,77.50000004231214,0,90,3.0,4,8.724152122368584e-10
4.955,0.06340728953298436,77.50000002370186,0,90,3.0,4,4.886981083266797e-10
4.96,0.09979255396093453,77.50000001316404,0,90,3.0,4,2.7142351596528e-10
4.965,0.14343835518453557,77.50000000724913,0,90,3.0,4,1.494665468140438e-10
4.97,0.18829581417209276,77.50000000395796,0,90,3.0,4,8.160751799410137e-11
4.975,0.2257481735193119,77.50000000214263,0,90,3.0,4,4.417788471814158e-11
4.98,0.24718154073554727,77.50000000115004,0,90,3.0,4,2.371220287705469e-11
4.985,0.24718154074102772,77.50000000061202,0,90,3.0,4,1.2618945979785664e-11
4.99,0.22574817354072055,77.50000000032293,0,90,3.0,4,6.658298196871141e-12
4.995,0.18829581422840957,77.50000000016894,0,90,3.0,4,3.4832709454499263e-12
5.0,0.14343835532456656,77.50000000008764,0,90,3.0,4,1.8069761036835207e-12
5.005,0.09979255431561854,77.50000000004506,0,90,3.0,4,9.291261917918671e-13
5.01,0.06340729067170194,77.50000000002298,0,90,3.0,4,4.73792826277972e-13
5.015,0.03679497683410042,77.50000000001162,0,90,3.0,4,2.396799826192833e-13
5.02,0.019500578284482293,77.50000000000583,0,90,3.0,4,1.2013299862335715e-13
5.025,0.009439396781978427,77.5000000000029,0,90,3.0,4,5.977349199796307e-14
5.03,0.004178588733610924,77.50000000000142,0,90,3.0,4,2.930073137155052e-14
5.035,0.0017299316936037381,77.5000000000007,0,90,3.0,4,1.4357358372059756e-14
5.04,0.0008997325756988589,77.50000000000034,0,90,3.0,4,7.032175529172126e-15
5.045,0.001634769674224814,77.50000000000016,0,90,3.0,4,3.2230804508705575e-15
5.05,0.00614904736476635,77.50000000000007,0,90,3.0,4,1.465036568577526e-15
5.055,0.02168080359963608,77.50000000000004,0,90,3.0,4,8.790219411465157e-16
5.06,0.06433400338904088,77.50000000000001,0,90,3.0,4,2.9300731371550523e-16
5.065,0.1593410769217493,77.50000000000001,0,90,3.0,4,2.9300731371550523e-16
5.07,0.3291989194808569,77.5,0,90,3.0,4,0.0
5.075,0.5672906802982638,77.5,0,90,3.0,4,0.0
5.08,0.815339152120446,77.5,0,90,3.0,4,0.0
5.085,0.9768711246313155,77.50000285676417,1,90,3.0,4,5.8902354004606695e-08
5.09,0.9726380909165361,77.50000597579871,0,90,3.0,4,1.2321234462949187e-07
5.095,0.7921091683291741,77.50001356552342,0,90,3.0,4,2.7970151376225144e-07
5.1,0.49139090102639077,77.50003497746438,0,90,3.0,4,7.211848325950246e-07
5.105,0.15739335672107918,77.5001028295484,0,90,3.0,4,2.120196874149357e-06
5.11,-0.11102342218909485,77.50032857627353,0,90,3.0,4,6.774768526426116e-06
5.115,-0.2314207883647528,77.50107318995177,0,90,3.0,4,2.212762787150458e-05
5.12,-0.2029124434754801,77.50342722585395,0,90,3.0,4,7.066445059699992e-05
5.125,-0.11151350554305876,77.51043915786184,0,90,3.0,4,0.00021524036828534065
5.13,-0.039430666652076896,77.52995417374301,0,90,3.0,4,0.0006176118297527334
5.135,-0.006087703519843621,77.58048363866507,0,90,3.0,4,0.0016594564673210726
5.14,0.005350271385530551,77.70190353972639,0,90,3.0,4,0.004162959581987377
5.145,0.010381647827441833,77.9722066886246,0,90,3.0,4,0.009736220384012277
5.15,0.015115203303506243,78.52883723691323,0,90,3.0,4,0.02121313890542749
5.155,0.021170964062928475,79.58744640825846,0,90,3.0,4,0.04304013212904037
5.16,0.029082821134029553,81.44316199336016,0,90,3.0,4,0.08130230914144668
5.165,0.03923107061708144,84.43398868669256,0,90,3.0,4,0.1429688389008775
5.17,0.051969043308817596,88.85019363942794,0,90,3.0,4,0.2340246111222256
5.175,0.06760532616283861,94.7938714694461,0,90,3.0,4,0.3565746694731155
5.18,0.08636519236693461,102.02720152947737,0,90,3.0,4,0.5057154954531415
5.185,0.10834733138818661,109.88014675588812,0,90,3.0,4,0.6676318918739819
5.19,0.1334809643017884,117.29290180342403,0,90,3.0,4,0.8204722021324542
5.195,0.16148868344343945,123.0269677988685,0,90,3.0,4,0.9387003669869793
5.2,0.191860907532018,126.0,0,90,3.0,4,1.0
5.205,0.22384764873847726,125.62371847231691,0,90,3.0,4,0.9922416179859157
5.21,0.25647215537198226,122.00127964141313,0,90,3.0,4,0.91755215755491
5.215,0.2885689161419028,115.8942005025768,0,90,3.0,4,0.7916330000531298
5.22,0.31884566517832524,108.47408490095529,0,90,3.0,4,0.6386409257928926
5.225,0.3459657668955683,100.9706790088459,0,90,3.0,4,0.4839315259555857
5.23,0.3686441789190902,94.36101382665612,0,90,3.0,4,0.3476497696217757
5.235,0.3857476379544367,89.2030180856508,0,90,3.0,4,0.2412993419721814
5.24,0.3963882865005728,85.63519025775187,0,90,3.0,4,0.1677358816031314
5.245,0.4,83.49252208582134,0,90,3.0,4,0.12355715640868732
5.25,0.39638828650057273,82.46051258424505,0,90,3.0,4,0.10227860998443405
5.255,0.38574763795443656,82.2037286051027,0,90,3.0,4,0.09698409495057107
5.26,0.36864417891908974,82.44053007862519,0,90,3.0,4,0.1018665995592822
5.265,0.345965766895568,82.9670753901127,0,90,3.0,4,0.11272320391984943
5.27,0.3188456651783249,83.64938531699276,0,90,3.0,4,0.12679144983490234
5.275,0.28856891614190205,84.40302826020769,0,90,3.0,4,0.14233047959191114
5.28,0.2564721553719815,85.17322761248187,0,90,3.0,4,0.15821087860787353
5.285,0.22384764873847685,85.92070708946643,0,90,3.0,4,0.17362282658693676
5.29,0.19186090753201765,86.61369544823104,0,90,3.0,4,0.1879112463552792
5.295,0.16148868344343878,87.22447800411031,0,90,3.0,4,0.2005047011156765
5.3,0.1334809643017881,87.72864249984536,0,90,3.0,4,0.21089984535763637
5.305,0.10834733138818531,88.10562810276168,0,90,3.0,4,0.21867274438683887
5.31,0.08636519236690572,88.33971603156166,0,90,3.0,4,0.22349929961982815
5.315,0.06760532616242629,88.42098031514153,0,90,3.0,4,0.22517485185858835
5.32,0.05196904332202373,88.3459434177633,0,90,3.0,4,0.22362769933532567
5.325,0.03923107185803287,88.11781090723721,0,90,3.0,4,0.21892393623169512
5.33,0.02908287038705761,87.74624109913799,0,90,3.0,4,0.2112627030750101
5.335,0.02117220077308346,87.2466660189184,0,90,3.0,4,0.20096218595708049
5.34,0.0151361834125735,86.63922833639852,0,90,3.0,4,0.18843769765770138
5.345,0.010626454858290009,85.94743581358989,0,90,3.0,4,0.1741739343008225
5.35,0.007326255555493652,85.19665823503733,0,90,3.0,4,0.1586939842275739
5.355,0.004960179211183015,84.41260010523945,0,90,3.0,4,0.14252783722143192
5.36,0.0032978759379303545,83.61987559820312,0,90,3.0,4,0.12618300202480667
5.365,0.002153242296767213,82.84079223906735,0,90,3.0,4,0.11011942760963618
5.37,0.001380616732225004,82.09442009731812,0,90,3.0,4,0.09473031128490972
5.375,0.0008693106590991584,81.39598836660922,0,90,3.0,4,0.080329657043489
5.38,0.000537524815942247,80.75661582638531,0,90,3.0,4,0.06714671806980028
5.385,0.0003263951340288585,80.1833500803319,0,90,3.0,4,0.05532680578003929
5.39,0.00019463030985187395,79.67946586996223,0,90,3.0,4,0.044937440617777914
5.395,0.00011397219555062695,79.24495703495197,0,90,3.0,4,0.03597849556601992
5.4,6.55403863487943e-05,78.87715027435881,0,90,3.0,4,0.028394851017707456
5.405,3.701184389455385e-05,78.57137092730025,0,90,3.0,4,0.022090122212376304
5.41,2.0525516217290957e-05,78.3215997732229,0,90,3.0,4,0.016940201509750515
5.415,1.1178128483661116e-05,78.12107306297722,0,90,3.0,4,0.012805630164478705
5.42,5.978135409912517e-06,77.96279323900905,0,90,3.0,4,0.009542128639361753
5.425,3.1396702713238487e-06,77.83993293743072,0,90,3.0,4,0.007008926544963241
5.43,1.6192875458531019e-06,77.74612822394465,0,90,3.0,4,0.005074808741126842
5.435,8.201353897972012e-07,77.67566753930957,0,90,3.0,4,0.003622011119784988
5.44,4.0791415086824765e-07,77.62359006118383,0,90,3.0,4,0.0025482486842027465
5.445,1.9923866938774793e-07,77.58571118626367,0,90,3.0,4,0.0017672409538900143
5.45,9.556527981051257e-08,77.55859403333916,0,90,3.0,4,0.0012081243987456065
5.455,4.501406988770349e-08,77.53948491533247,0,90,3.0,4,0.0008141219656178489
5.46,0.0,77.52622834922965,0,90,3.0,4,0.0005407907057660757
5.465,0.0,77.51717404646297,0,90,3.0,4,0.0003541040507828716
5.47,0.0,77.51108501381437,0,90,3.0,4,0.0002285569858632187
5.475,0.0,77.50705280332339,0,90,3.0,4,0.00014541862522453333
5.48,0.0,77.50442332894124,0,90,3.0,4,9.1202658582334e-05
5.485,0.0,77.50273463035334,0,90,3.0,4,5.638413099680143e-05
5.49,0.0,77.50166651778338,0,90,3.0,4,3.4361191409839806e-05
5.495,0.0,77.50100111323763,0,90,3.0,4,2.064151005432689e-05
5.5,0.0,77.50059281390932,0,90,3.0,4,1.2222967202503532e-05
5.505,0.0,77.50034603138842,0,90,3.0,4,7.1346678024247484e-06
5.51,0.0,77.50019910150137,0,90,3.0,4,4.105185595171486e-06
5.515,0.0,77.50011292640531,0,90,3.0,4,2.328379490880196e-06
5.52,0.0,77.50006313619457,0,90,3.0,4,1.3017772076149338e-06
5.525,0.001684486749771458,77.50003479551185,0,90,3.0,4,7.17433234048886e-07
5.53,0.004172395771277602,77.50001890296744,0,90,3.0,4,3.897519059840484e-07
5.535,0.009438687428818865,77.50001012275375,0,90,3.0,4,2.087165721628274e-07
5.54,0.019500507867137046,77.50000534354274,0,90,3.0,4,1.1017613894754383e-07
5.545,0.03679496976339974,77.50000278049316,0,90,3.0,4,5.7329755916200773e-08
5.55,0.06340728953298436,77.50000142618646,0,90,3.0,4,2.9405906346808705e-08
5.555,0.09979255396093453,77.50000072109538,0,90,3.0,4,1.4867945884764867e-08
5.56,0.14343835518453557,77.50000035939418,0,90,3.0,4,7.410189245720832e-09
5.565,0.18829581417209276,77.50000017656772,0,90,3.0,4,3.6405716288107815e-09
5.57,0.2257481735193119,77.50000008550933,0,90,3.0,4,1.7630789199719187e-09
5.575,0.24718154073554727,77.50000004082044,0,90,3.0,4,8.416585275234556e-10
5.58,0.24718154074102772,77.50000001920895,0,90,3.0,4,3.960609160223856e-10
5.585,0.22574817354072055,77.50000000891029,0,90,3.0,4,1.8371734374350407e-10
5.59,0.18829581422840957,77.5000000040742,0,90,3.0,4,8.400402481298048e-11
5.595,0.14343835532456656,77.50000000183634,0,90,3.0,4,3.78626980856313e-11
5.6,0.09979255431561854,77.50000000081589,0,90,3.0,4,1.68224289023483e-11
5.605,0.06340729067170194,77.50000000035732,0,90,3.0,4,7.367375896062664e-12
5.61,0.03679497683410042,77.50000000015426,0,90,3.0,4,3.180594390381809e-12
5.615,0.019500578284482293,77.50000000006564,0,90,3.0,4,1.3534007820519186e-12
5.62,0.009439396781978427,77.50000000002754,0,90,3.0,4,5.678481739806491e-13
5.625,0.004178588733610924,77.50000000001138,0,90,3.0,4,2.346988582861197e-13
5.63,0.0017299316936037381,77.50000000000465,0,90,3.0,4,9.581339158497021e-14
5.635,0.0008997325756988589,77.50000000000186,0,90,3.0,4,3.838395809673119e-14
5.64,0.001634769674224814,77.50000000000074,0,90,3.0,4,1.523638031320627e-14
5.645,0.00614904736476635,77.50000000000028,0,90,3.0,4,5.860146274310104e-15
5.65,0.02168080359963608,77.50000000000011,0,90,3.0,4,2.344058509724042e-15
5.655,0.06433400338904088,77.50000000000004,0,90,3.0,4,8.790219411465157e-16
5.66,0.1593410769217493,77.50000000000001,0,90,3.0,4,2.9300731371550523e-16
5.665,0.3291989194808569,77.5,0,90,3.0,4,0.0
5.67,0.5672906802982638,77.5,0,90,3.0,4,0.0
5.675,0.815339152120446,77.5,0,90,3.0,4,0.0
5.68,0.9768711246313155,77.50000285700571,1,90,3.0,4,5.890733424991792e-08
5.685,0.9726380909165361,77.5000055981037,0,90,3.0,4,1.1542481851411701e-07
5.69,0.7921091683291741,77.50001170193522,0,90,3.0,4,2.412770148805872e-07
5.695,0.49139090102639077,77.5000270882034,0,90,3.0,4,5.585196576478281e-07
5.7,0.15739335672107918,77.50007030382385,0,90,3.0,4,1.4495633782883385e-06
5.705,-0.11102342218909485,77.50019904185636,0,90,3.0,4,4.1039558012827685e-06
5.71,-0.2314207883647528,77.50058607134292,0,90,3.0,4,1.2083945214904703e-05
5.715,-0.2029124434754801,77.50172157287263,0,90,3.0,4,3.549634788918851e-05
5.72,-0.11151350554305876,77.50491227303426,0,90,3.0,4,0.00010128398008792904
5.725,-0.039430666652076896,77.51341548520728,0,90,3.0,4,0.00027660794241804996
5.73,-0.006087703519843621,77.53479767151332,0,90,3.0,4,0.0007174777631611781
5.735,0.005350271385530551,77.58538694566,0,90,3.0,4,0.001760555580618663
5.74,0.010381647827441833,77.69780421918405,0,90,3.0,4,0.004078437508949487
5.745,0.015115203303506243,77.93212374321509,0,90,3.0,4,0.008909767901341991
5.75,0.021170964062928475,78.38971621807644,0,90,3.0,4,0.018344664290235957
5.755,0.029082821134029553,79.22592550239746,0,90,3.0,4,0.035586092832937295
5.76,0.03923107061708144,80.65382694330745,0,90,3.0,4,0.06502735965582372
5.765,0.051969043308817596,82.92814688244911,0,90,3.0,4,0.1119205542773013
5.77,0.06760532616283861,86.29905479142072,0,90,3.0,4,0.1814238101323859
5.775,0.08636519236693461,90.93310591840898,0,90,3.0,4,0.27697125604966977
5.78,0.10834733138818661,96.81375736041753,0,90,3.0,4,0.3982218012457222
5.785,0.1334809643017884,103.65218979533569,0,90,3.0,4,0.5392204081512513
5.79,0.16148868344343945,110.85098906485283,0,90,3.0,4,0.6876492590691304
5.795,0.191860907532018,117.55776115670236,0,90,3.0,4,0.8259332197258218
5.8,0.22384764873847726,122.81835656489098,0,90,3.0,4,0.9343991044307418
5.805,0.25647215537198226,125.79775358536652,0,90,3.0,4,0.9958299708322994
5.81,0.2885689161419028,126.0,0,90,3.0,4,1.0
5.815,0.31884566517832524,123.40809829602208,0,90,3.0,4,0.9465587277530325
5.82,0.3459657668955683,118.49003065599916,0,90,3.0,4,0.8451552712577147
5.825,0.3686441789190902,112.06852813875727,0,90,3.0,4,0.71275315750015
5.83,0.3857476379544367,105.10477932098621,0,90,3.0,4,0.5691707076492002
5.835,0.3963882865005728,98.47443100842273,0,90,3.0,4,0.4324624950190253
5.84,0.4,92.8066072912793,0,90,3.0,4,0.3156001503356558
5.845,0.39638828650057273,88.42148372327156,0,90,3.0,4,0.2251852314076611
5.85,0.38574763795443656,85.35990241659837,0,90,3.0,4,0.16205984364120357
5.855,0.36864417891908974,83.46944358620377,0,90,3.0,4,0.12308131105574777
5.86,0.345965766895568,82.50409108932574,0,90,3.0,4,0.1031771358623864
5.865,0.3188456651783249,82.20538889595129,0,90,3.0,4,0.09701832775157294
5.87,0.28856891614190205,82.35118221387862,0,90,3.0,4,0.10002437554388899
5.875,0.2564721553719815,82.77370137387766,0,90,3.0,4,0.10873611080160117
5.88,0.22384764873847685,83.35697885227354,0,90,3.0,4,0.12076245056234107
5.885,0.19186090753201765,84.0246919330554,0,90,3.0,4,0.13452973057846174
5.89,0.16148868344343878,84.72653191551647,0,90,3.0,4,0.1490006580518861
5.895,0.1334809643017881,85.42725699479512,0,90,3.0,4,0.16344859783082713
5.9,0.10834733138818531,86.09955203844497,0,90,3.0,4,0.17731035130814368
5.905,0.08636519236690572,86.72019234262434,0,90,3.0,4,0.1901070586108112
5.91,0.06760532616242629,87.26848870696234,0,90,3.0,4,0.20141213828788337
5.915,0.05196904332202373,87.72606423286395,0,90,3.0,4,0.21084668521368966
5.92,0.03923107185803287,88.07728034294114,0,90,3.0,4,0.2180882544936317
5.925,0.02908287038705761,88.30988433026353,0,90,3.0,4,0.22288421299512431
5.93,0.02117220077308346,88.41562988670005,0,90,3.0,4,0.2250645337463927
5.935,0.0151361834125735,88.39073171494468,0,90,3.0,4,0.22455116938030265
5.94,0.010626454858290009,88.23608061227844,0,90,3.0,4,0.2213624868511019
5.945,0.007326255555493652,87.95718762032197,0,90,3.0,4,0.2156121158829273
5.95,0.004960179211183015,87.56385719193653,0,90,3.0,4,0.20750221014302134
5.955,0.0032978759379303545,87.06961485035202,0,90,3.0,4,0.19731164639901083
5.96,0.002153242296767213,86.49093547163766,0,90,3.0,4,0.18538011281727124
5.965,0.001380616732225004,85.84633343081921,0,90,3.0,4,0.17208934908905596
5.97,0.0008693106590991584,85.15538449808108,0,90,3.0,4,0.15784297934187785
5.975,0.000537524815942247,84.43775108996621,0,90,3.0,4,0.14304641422610748
5.98,0.0003263951340288585,83.71227751571944,0,90,3.0,4,0.12808819620040074
5.985,0.00019463030985187395,82.99621117057644,0,90,3.0,4,0.11332394166136998
5.99,0.00011397219555062695,82.30459074772966,0,90,3.0,4,0.09906372675731262
5.995,6.55403863487943e-05,81.64982534565863,0,90,3.0,4,0.08556340918883767
6.0,3.701184389455385e-05,81.04147079905813,0,90,3.0,4,0.0730200164754254
6.005,2.0525516217290957e-05,80.4861934573874,0,90,3.0,4,0.06157099912138971
6.01,1.1178128483661116e-05,79.98789840738041,0,90,3.0,4,0.05129687437897759
6.015,5.978135409912517e-06,79.54798972143004,0,90,3.0,4,0.04222659219443386
6.02,3.1396702713238487e-06,79.1657251050575,0,90,3.0,4,0.03434484752695885
6.025,1.6192875458531019e-06,78.83862619104653,0,90,3.0,5,0.027600540021577923
6.03,8.201353897972012e-07,78.5629081394647,0,90,3.0,5,0.021915631741540122
6.035,4.0791415086824765e-07,78.33389731528789,0,90,3.0,5,0.017193759078100723
6.04,1.9923866938774793e-07,78.14641264967727,0,90,3.0,5,0.013328095869634505
6.045,9.556527981051257e-08,77.9950938659425,0,90,3.0,5,0.010208120947267908
6.05,4.501406988770349e-08,77.87466719823882,0,90,3.0,5,0.007725096870903608
6.055,0.0,77.78014587226397,0,90,3.0,5,0.00577620355183448
6.06,0.0,77.7069680038797,0,90,3.0,5,0.004267381523292672
6.065,0.0,77.651078485453,0,90,3.0,5,0.0031150203186185305
6.07,0.0,77.6089638555516,0,90,3.0,5,0.0022466774340534693
6.075,0.0,77.57765022693218,0,90,3.0,5,0.0016010356068490341
6.08,0.0,77.55467432434818,0,90,3.0,5,0.0011273056566635917
6.085,0.0,77.53803685039938,0,90,3.0,5,0.0007842649566882334
6.09,0.0,77.52614605077103,0,90,3.0,5,0.0005390938303305668
6.095,0.0,77.5177577558228,0,90,3.0,5,0.0003661392953154532
6.1,0.0,77.51191654857978,0,90,3.0,5,0.000245702032572712
6.105,0.0,77.507901204888,0,90,3.0,5,0.0001629114409896965
6.11,0.0,77.5051762660216,0,90,3.0,5,0.00010672713446612442
6.115,0.0,77.50335058222204,0,90,3.0,5,6.908416952660915e-05
6.12,0.0,77.50214291231161,0,90,3.0,5,4.4183759002311787e-05
6.125,0.0,77.50135415677913,0,90,3.0,5,2.792075833256313e-05
6.13,0.0,77.50084550060859,0,90,3.0,5,1.7433002238989895e-05
6.135,0.0,77.50052160209725,0,90,3.0,5,1.075468241754972e-05
6.14,0.0,77.50031793999378,0,90,3.0,5,6.555463789233549e-06
6.145,0.0,77.50019148352861,0,90,3.0,5,3.948113991960669e-06
6.15,0.0,77.50011394574456,0,90,3.0,5,2.3493967950292517e-06
6.155,0.0,77.50006699543745,0,90,3.0,5,1.381349225776202e-06
6.16,0.0,77.50003891999467,0,90,3.0,5,8.024741168107361e-07
6.165,0.0,77.50002233987531,0,90,3.0,5,4.6061598587565985e-07
6.17,0.0,77.5000126697821,0,90,3.0,5,2.6123262050673147e-07
6.175,0.001684486749771458,77.50000709966693,0,90,3.0,5,1.4638488517110878e-07
6.18,0.004172395771277602,77.50000393085688,0,90,3.0,5,8.104859540891112e-08
6.185,0.009438687428818865,77.50000215038844,0,90,3.0,5,4.433790597441029e-08
6.19,0.019500507867137046,77.50000116232353,0,90,3.0,5,2.3965433568911375e-08
6.195,0.03679496976339974,77.50000062075121,0,90,3.0,5,1.2798993992939508e-08
6.2,0.06340728953298436,77.50000032755825,0,90,3.0,5,6.7537784391404165e-09
6.205,0.09979255396093453,77.50000017078115,0,90,3.0,5,3.52126080870971e-09
6.21,0.14343835518453557,77.50000008797753,0,90,3.0,5,1.8139696022472824e-09
6.215,0.18829581417209276,77.50000004478,0,90,3.0,5,9.232988623366931e-10
6.22,0.2257481735193119,77.50000002252042,0,90,3.0,5,4.6433865229362745e-10
6.225,0.24718154073554727,77.50000001119051,0,90,3.0,5,2.3073212527303918e-10
6.23,0.24718154074102772,77.50000000549419,0,90,3.0,5,1.1328219462137492e-10
6.235,0.22574817354072055,77.50000000266525,0,90,3.0,5,5.495352168734301e-11
6.24,0.18829581422840957,77.50000000127747,0,90,3.0,5,2.6339599459141628e-11
6.245,0.14343835532456656,77.50000000060498,0,90,3.0,5,1.247390735949649e-11
6.25,0.09979255431561854,77.5000000002831,0,90,3.0,5,5.83699869652658e-12
6.255,0.06340729067170194,77.50000000013088,0,90,3.0,5,2.698597359319803e-12
6.26,0.03679497683410042,77.50000000005979,0,90,3.0,5,1.2326817688011305e-12
6.265,0.019500578284482293,77.50000000002699,0,90,3.0,5,5.564208887457445e-13
6.27,0.009439396781978427,77.50000000001204,0,90,3.0,5,2.481771947170329e-13
6.275,0.004178588733610924,77.5000000000053,0,90,3.0,5,1.0929172801588345e-13
6.28,0.0017299316936037381,77.5000000000023,0,90,3.0,5,4.746718482191185e-14
6.285,0.0008997325756988589,77.500000000001,0,90,3.0,5,2.0510511960085366e-14
6.29,0.001634769674224814,77.50000000000043,0,90,3.0,5,8.790219411465157e-15
6.295,0.00614904736476635,77.50000000000017,0,90,3.0,5,3.516087764586063e-15
6.3,0.02168080359963608,77.50000000000007,0,90,3.0,5,1.465036568577526e-15
6.305,0.06433400338904088,77.50000000000003,0,90,3.0,5,5.860146274310105e-16
6.31,0.1593410769217493,77.50000000000001,0,90,3.0,5,2.9300731371550523e-16
6.315,0.3291989194808569,77.5,0,90,3.0,5,0.0
6.32,0.5672906802982638,77.5,0,90,3.0,5,0.0
6.325,0.815339152120446,77.5,0,90,3.0,5,0.0
6.33,0.9768711246313155,77.50000284586159,1,90,3.0,5,5.8677558500516847e-08
6.335,0.9726380909165361,77.50000607395938,0,90,3.0,5,1.2523627594756484e-07
6.34,0.7921091683291741,77.50001414975088,0,90,3.0,5,2.9174744086799133e-07
6.345,0.49139090102639077,77.50003774688028,0,90,3.0,5,7.782861913612353e-07
6.35,0.15739335672107918,77.500115316467,0,90,3.0,5,2.3776591134621187e-06
6.355,-0.11102342218909485,77.50038193899846,0,90,3.0,5,7.875030896051725e-06
6.36,-0.2314207883647528,77.50128513772876,0,90,3.0,5,2.6497685129020422e-05
6.365,-0.2029124434754801,77.50420106011745,0,90,3.0,5,8.661979623613342e-05
6.37,-0.11151350554305876,77.5130256934612,0,90,3.0,5,0.0002685709992000429
6.375,-0.039430666652076896,77.53786196262558,0,90,3.0,5,0.0007806590232079187
6.38,-0.006087703519843621,77.60260192062486,0,90,3.0,5,0.0021155035180384207
6.385,0.005350271385530551,77.75852362014285,0,90,3.0,5,0.005330383920471194
6.39,0.010381647827441833,78.10487622432902,0,90,3.0,5,0.01247167472843337
6.395,0.015115203303506243,78.81329977645272,0,90,3.0,5,0.027078345906241717
6.4,0.021170964062928475,80.145086141204,0,90,3.0,5,0.05453785858152586
6.405,0.029082821134029553,82.4409718211188,0,90,3.0,5,0.10187570765193389
6.41,0.03923107061708144,86.05928105043185,0,90,3.0,5,0.17648002165838864
6.415,0.051969043308817596,91.2496597082909,0,90,3.0,5,0.2834981383152764
6.42,0.06760532616283861,97.9817859100092,0,90,3.0,5,0.4223048641239009
6.425,0.08636519236693461,105.79226260767271,0,90,3.0,5,0.5833456207767569
6.43,0.10834733138818661,113.74152810943451,0,90,3.0,5,0.7472480022563817
6.435,0.1334809643017884,120.55428234773409,0,90,3.0,5,0.8877171618089502
6.44,0.16148868344343945,124.94140906395694,0,90,3.0,5,0.9781733827619987
6.445,0.191860907532018,126.0,0,90,3.0,5,1.0
6.45,0.22384764873847726,123.52338133034326,0,90,3.0,5,0.9489356975328507
6.455,0.25647215537198226,118.07639781402526,0,90,3.0,5,0.8366267590520672
6.46,0.2885689161419028,110.79940800075586,0,90,3.0,5,0.6865857319743477
6.465,0.31884566517832524,103.03487075863387,0,90,3.0,5,0.5264921805903892
6.47,0.3459657668955683,95.94429841424011,0,90,3.0,5,0.3802948126647445
6.475,0.3686441789190902,90.2626013354371,0,90,3.0,5,0.2631464192873628
6.48,0.3857476379544367,86.24702551304469,0,90,3.0,5,0.1803510415060761
6.485,0.3963882865005728,83.78185040445095,0,90,3.0,5,0.12952268875156597
6.49,0.4,82.54963637113546,0,90,3.0,5,0.1041162138378446
6.495,0.39638828650057273,82.18634243383278,0,90,3.0,5,0.0966256171924284
6.5,0.38574763795443656,82.3774367104458,0,90,3.0,5,0.10056570537001663
6.505,0.36864417891908974,82.8929218361134,0,90,3.0,5,0.111194264662132
6.51,0.345965766895568,83.58184221421544,0,90,3.0,5,0.12539880854052457
6.515,0.3188456651783249,84.3500335133804,0,90,3.0,5,0.1412378043995958
6.52,0.28856891614190205,85.13731939707576,0,90,3.0,5,0.15747050303248983
6.525,0.2564721553719815,85.90112483967476,0,90,3.0,5,0.1732190688592735
6.53,0.22384764873847685,86.60725888394899,0,90,3.0,5,0.18777853368966982
6.535,0.19186090753201765,87.22600098303674,0,90,3.0,5,0.20053610274302558
6.54,0.16148868344343878,87.73129427857432,0,90,3.0,5,0.21095452120771804
6.545,0.1334809643017881,88.10140680065318,0,90,3.0,5,0.21858570722996248
6.55,0.10834733138818531,88.32006084897934,0,90,3.0,5,0.22309403812328532
6.555,0.08636519236690572,88.37748176745886,0,90,3.0,5,0.22427797458678062
6.56,0.06760532616242629,88.27108106749418,0,90,3.0,5,0.22208414572152949
6.565,0.05196904332202373,88.00563854852327,0,90,3.0,5,0.2166111040932632
6.57,0.03923107185803287,87.59294335966689,0,90,3.0,5,0.20810192494158536
6.575,0.02908287038705761,87.05092505826738,0,90,3.0,5,0.19692628986118313
6.58,0.02117220077308346,86.40236216625274,0,90,3.0,5,0.1835538590979947
6.585,0.0151361834125735,85.67329734339388,0,90,3.0,5,0.16852159470915223
6.59,0.010626454858290009,84.89131240569297,0,90,3.0,5,0.15239819393181386
6.595,0.007326255555493652,84.08382135764072,0,90,3.0,5,0.1357488939719735
6.6,0.004960179211183015,83.2765260683795,0,90,3.0,5,0.1191036302758659
6.605,0.0032978759379303545,82.49215034587014,0,90,3.0,5,0.10293093496639472
6.61,0.002153242296767213,81.74952897269961,0,90,3.0,5,0.08761915407628057
6.615,0.001380616732225004,81.06308474959009,0,90,3.0,5,0.07346566494000184
6.62,0.0008693106590991584,80.44268468999192,0,90,3.0,5,0.06067391113385404
6.625,0.000537524815942247,79.8938312199177,0,90,3.0,5,0.049357344740571144
6.63,0.0003263951340288585,79.41811898180232,0,90,3.0,5,0.0395488449856149
6.635,0.00019463030985187395,79.01387417058143,0,90,3.0,5,0.031213900424359405
6.64,0.00011397219555062695,78.6768909812966,0,90,3.0,5,0.02426579342879576
6.645,6.55403863487943e-05,78.40118698283636,0,90,3.0,5,0.018581174903842562
6.65,3.701184389455385e-05,78.17971335755713,0,90,3.0,5,0.01401470840323987
6.655,2.0525516217290957e-05,78.00497388499059,0,90,3.0,5,0.010411832680218365
6.66,1.1178128483661116e-05,77.86952536337502,0,90,3.0,5,0.007619079657216875
6.665,5.978135409912517e-06,77.76634945109376,0,90,3.0,5,0.005491741259665147
6.67,3.1396702713238487e-06,77.6891000218534,0,90,3.0,5,0.0038989695227506396
6.675,1.6192875458531019e-06,77.63224022257143,0,90,3.0,5,0.0027266025272458896
6.68,8.201353897972012e-07,77.5910893878649,0,90,3.0,5,0.0018781317085545923
6.685,4.0791415086824765e-07,77.56180223984774,0,90,3.0,5,0.0012742729865512674
6.69,1.9923866938774793e-07,77.5413021696559,0,90,3.0,5,0.0008515911269259185
6.695,9.556527981051257e-08,77.52718777937379,0,90,3.0,5,0.0005605727705936087
6.7,4.501406988770349e-08,77.51762815365113,0,90,3.0,5,0.00036346708559033253
6.705,0.0,77.5112582823711,0,90,3.0,5,0.00023212953342478904
6.71,0.0,77.50708222412621,0,90,3.0,5,0.00014602523971562573
6.715,0.0,77.5043883313797,0,90,3.0,5,9.048105937527983e-05
6.72,0.0,77.5026783133365,0,90,3.0,5,5.522295539181287e-05
6.725,0.0,77.50161011009115,0,90,3.0,5,3.319814620927553e-05
6.73,0.0,77.50095341499808,0,90,3.0,5,1.9658041197514188e-05
6.735,0.0,77.50055608426527,0,90,3.0,5,1.1465654954018018e-05
6.74,0.0,77.50031947100895,0,90,3.0,5,6.587031112376187e-06
6.745,0.0,77.5001807817223,0,90,3.0,5,3.7274581918914056e-06
6.75,0.0,77.50010076502231,0,90,3.0,5,2.077629325982606e-06
6.755,0.001684486749771458,77.50005532192847,0,90,3.0,5,1.1406583189923789e-06
6.76,0.004172395771277602,77.50002991693071,0,90,3.0,5,6.168439322490738e-07
6.765,0.009438687428818865,77.50001593562055,0,90,3.0,5,3.285694959362745e-07
6.77,0.019500507867137046,77.50000836090221,0,90,3.0,5,1.7238973637364494e-07
6.775,0.03679496976339974,77.50000432085336,0,90,3.0,5,8.908976008232336e-08
6.78,0.06340728953298436,77.50000219947044,0,90,3.0,5,4.534990606180614e-08
6.785,0.09979255396093453,77.50000110280557,0,90,3.0,5,2.2738259165578842e-08
6.79,0.14343835518453557,77.50000054464309,0,90,3.0,5,1.1229754354363397e-08
6.795,0.18829581417209276,77.50000026494594,0,90,3.0,5,5.4628028652755864e-09
6.8,0.2257481735193119,77.5000001269506,0,90,3.0,5,2.6175380580096633e-09
6.805,0.24718154073554727,77.50000005991622,0,90,3.0,5,1.235385933299411e-09
6.81,0.24718154074102772,77.50000002785391,0,90,3.0,5,5.743075202115075e-10
6.815,0.22574817354072055,77.50000001275441,0,90,3.0,5,2.6297758014743055e-10
6.82,0.18829581422840957,77.50000000575264,0,90,3.0,5,1.186111186359188e-10
6.825,0.14343835532456656,77.50000000255568,0,90,3.0,5,5.269443529859646e-11
6.83,0.09979255431561854,77.50000000111835,0,90,3.0,5,2.3058796567469115e-11
6.835,0.06340729067170194,77.50000000048203,0,90,3.0,5,9.938808081229938e-12
6.84,0.03679497683410042,77.50000000020465,0,90,3.0,5,4.2195983248169905e-12
6.845,0.019500578284482293,77.50000000008558,0,90,3.0,5,1.7644900431947725e-12
6.85,0.009439396781978427,77.50000000003526,0,90,3.0,5,7.269511453281685e-13
6.855,0.004178588733610924,77.5000000000143,0,90,3.0,5,2.947653575977983e-13
6.86,0.0017299316936037381,77.50000000000571,0,90,3.0,5,1.1778894011363311e-13
6.865,0.0008997325756988589,77.50000000000225,0,90,3.0,5,4.6295155567049826e-14
6.87,0.001634769674224814,77.50000000000087,0,90,3.0,5,1.787344613664582e-14
6.875,0.00614904736476635,77.50000000000033,0,90,3.0,5,6.73916821545662e-15
6.88,0.02168080359963608,77.50000000000013,0,90,3.0,5,2.637065823439547e-15
6.885,0.06433400338904088,77.50000000000004,0,90,3.0,5,8.790219411465157e-16
6.89,0.1593410769217493,77.50000000000001,0,90,3.0,5,2.9300731371550523e-16
6.895,0.3291989194808569,77.5,0,90,3.0,5,0.0
6.9,0.5672906802982638,77.5,0,90,3.0,5,0.0
6.905,0.815339152120446,77.5,0,90,3.0,5,0.0
6.91,0.9768711246313155,77.50000284586159,1,90,3.0,5,5.8677558500516847e-08
6.915,0.9726380909165361,77.50000527961552,0,90,3.0,5,1.0885805199295553e-07
6.92,0.7921091683291741,77.50001031954956,0,90,3.0,5,2.1277421772716367e-07
6.925,0.49139090102639077,77.5000219076864,0,90,3.0,5,4.517048742836215e-07
6.93,0.15739335672107918,77.5000513062313,0,90,3.0,5,1.0578604391548184e-06
6.935,-0.11102342218909485,77.50013076005604,0,90,3.0,5,2.6960836296509407e-06
6.94,-0.2314207883647528,77.50035020381222,0,90,3.0,5,7.220697159130761e-06
6.945,-0.2029124434754801,77.50095018691317,0,90,3.0,5,1.9591482745824776e-05
6.95,-0.11151350554305876,77.50254252172627,0,90,3.0,5,5.242312837668747e-05
6.955,-0.039430666652076896,77.50659976740856,0,90,3.0,5,0.00013607767852699768
6.96,-0.006087703519843621,77.51646537881305,0,90,3.0,5,0.00033949234666087036
6.965,0.005350271385530551,77.53928253215116,0,90,3.0,5,0.00080994911651881
6.97,0.010381647827441833,77.58937615985101,0,90,3.0,5,0.0018428074196085336
6.975,0.015115203303506243,77.69363594416527,0,90,3.0,5,0.003992493694129186
6.98,0.021170964062928475,77.89914273187748,0,90,3.0,5,0.008229747049020112
6.985,0.029082821134029553,78.28242166935907,0,90,3.0,5,0.016132405553795196
6.99,0.03923107061708144,78.95815265228912,0,90,3.0,5,0.03006500313998176
6.995,0.051969043308817596,80.08310908029944,0,90,3.0,5,0.05325998103710179
7.0,0.06760532616283861,81.84927459141106,0,90,3.0,5,0.08967576477136206
7.005,0.08636519236693461,84.45983730743244,0,90,3.0,5,0.14350180015324612
7.01,0.10834733138818661,88.08459313200352,0,90,3.0,5,0.2182390336495571
7.015,0.1334809643017884,92.79797719482352,0,90,3.0,5,0.31542221020254674
7.02,0.16148868344343945,98.51242125918112,0,90,3.0,5,0.4332457991583737
7.025,0.191860907532018,104.92855626497301,0,90,3.0,5,0.5655372425767631
7.03,0.22384764873847726,111.52691835651606,0,90,3.0,5,0.7015859454951766
7.035,0.25647215537198226,117.61903404505797,0,90,3.0,5,0.827196578248618
7.04,0.2885689161419028,122.45858606973496,0,90,3.0,5,0.9269811560770096
7.045,0.31884566517832524,125.39083977274626,0,90,3.0,5,0.9874399953143559
7.05,0.3459657668955683,126.0,0,90,3.0,5,1.0
7.055,0.3686441789190902,124.20909158519541,0,90,3.0,5,0.9630740533029981
7.06,0.3857476379544367,120.29953639901376,0,90,3.0,5,0.8824646680209023
7.065,0.3963882865005728,114.84382327361675,0,90,3.0,5,0.7699757376003453
7.07,0.4,108.57369951396845,0,90,3.0,5,0.6406948353395556
7.075,0.39638828650057273,102.2258821880279,0,90,3.0,5,0.5098120038768639
7.08,0.38574763795443656,96.40992335364712,0,90,3.0,5,0.389895326879322
7.085,0.36864417891908974,91.52930221937348,0,90,3.0,5,0.2892639632860511
7.09,0.345965766895568,87.76478426184879,0,90,3.0,5,0.21164503632677914
7.095,0.3188456651783249,85.10862158827653,0,90,3.0,5,0.15687879563456772
7.1,0.28856891614190205,83.42656336784474,0,90,3.0,5,0.1221971828421595
7.105,0.2564721553719815,82.52378753042284,0,90,3.0,5,0.1035832480499554
7.11,0.22384764873847685,82.19783132916163,0,90,3.0,5,0.09686250163219856
7.115,0.19186090753201765,82.27134594925722,0,90,3.0,5,0.09837826699499432
7.12,0.16148868344343878,82.60568848479885,0,90,3.0,5,0.10527192752162572
7.125,0.1334809643017881,83.10088201483204,0,90,3.0,5,0.11548210339859873
7.13,0.10834733138818531,83.68840901871987,0,90,3.0,5,0.12759606224164674
7.135,0.08636519236690572,84.32197791292448,0,90,3.0,5,0.14065933841081404
7.14,0.06760532616242629,84.96931088968523,0,90,3.0,5,0.15400641009660274
7.145,0.05196904332202373,85.60616534397113,0,90,3.0,5,0.16713742977260057
7.15,0.03923107185803287,86.21263167382902,0,90,3.0,5,0.1796418901820417
7.155,0.02908287038705761,86.77121984433278,0,90,3.0,5,0.19115917204809849
7.16,0.02117220077308346,87.26614028210291,0,90,3.0,5,0.20136371715676102
7.165,0.0151361834125735,87.68327944307798,0,90,3.0,5,0.20996452459954595
7.17,0.010626454858290009,88.01051741167255,0,90,3.0,5,0.21671169920974334
7.175,0.007326255555493652,88.23816273562356,0,90,3.0,5,0.22140541722935178
7.18,0.004960179211183015,88.35936913531009,0,90,3.0,5,0.22390451825381627
7.185,0.0032978759379303545,88.3704549759066,0,90,3.0,5,0.22413309228673395
7.19,0.002153242296767213,88.27108106749418,0,90,3.0,5,0.22208414572152949
7.195,0.001380616732225004,88.06426526041847,0,90,3.0,5,0.2178199022766694
7.2,0.0008693106590991584,87.75622938752784,0,90,3.0,5,0.21146864716552244
7.205,0.000537524815942247,87.35608811985259,0,90,3.0,5,0.20321831174953786
7.21,0.0003263951340288585,86.87540102954962,0,90,3.0,5,0.1933072377226726
7.215,0.00019463030985187395,86.32761843902698,0,90,3.0,5,0.18201275132014386
7.22,0.00011397219555062695,85.72745804544682,0,90,3.0,5,0.16963831021539844
7.225,6.55403863487943e-05,85.09025249472462,0,90,3.0,5,0.1565000514376211
7.23,3.701184389455385e-05,84.43130793834682,0,90,3.0,6,0.14291356573910968
7.235,2.0525516217290957e-05,83.7653103417945,0,90,3.0,6,0.12918165653184543
7.24,1.1178128483661116e-05,83.10581041043784,0,90,3.0,6,0.11558371980284206
7.245,5.978135409912517e-06,82.46481016288601,0,90,3.0,6,0.1023672198533198
7.25,3.1396702713238487e-06,81.85246524967621,0,90,3.0,6,0.08974155153971576
7.255,1.6192875458531019e-06,81.276907956434,0,90,3.0,6,0.07787439085430932
7.26,8.201353897972012e-07,80.74418725350604,0,90,3.0,6,0.06689045883517611
7.265,4.0791415086824765e-07,80.25831492720756,0,90,3.0,6,0.056872472725929164
7.27,1.9923866938774793e-07,79.82140122596148,0,90,3.0,6,0.04786394280332949
7.275,9.556527981051257e-08,79.43385983225944,0,90,3.0,6,0.039873398603287494
7.28,4.501406988770349e-08,79.09466036456183,0,90,3.0,6,0.03287959514560479
7.285,0.0,78.80160686539986,0,90,3.0,6,0.026837254956698177
7.29,0.0,78.55162253760456,0,90,3.0,6,0.021682938919681614
7.295,0.0,78.34102394918298,0,90,3.0,6,0.017340699983154285
7.3,0.0,78.16577159895577,0,90,3.0,6,0.0137272494630056
7.305,0.0,78.02168769123986,0,90,3.0,6,0.010756447242059007
7.31,0.0,77.90463583247852,0,90,3.0,6,0.008343006855227193
7.315,0.0,77.81066083961933,0,90,3.0,6,0.006405378136481049
7.32,0.0,77.73608973677702,0,90,3.0,6,0.004867829624268409
7.325,0.0,77.67759720552577,0,90,3.0,6,0.003661798052077754
7.33,0.0,77.63224022257143,0,90,3.0,6,0.0027266025272458896
7.335,0.0,77.59746741293033,0,90,3.0,6,0.0020096373800067655
7.34,0.0,77.57110886220912,0,90,3.0,6,0.001466162107404441
7.345,0.0,77.55135189140306,0,90,3.0,6,0.0010588018845991423
7.35,0.0,77.53670773455,0,90,3.0,6,0.0007568605061856994
7.355,0.0,77.52597330075044,0,90,3.0,6,0.0005355319742358057
7.36,0.0,77.51819135838316,0,90,3.0,6,0.00037507955429202044
7.365,0.0,77.51261163923783,0,90,3.0,6,0.00026003379871818866
7.37,0.0,77.50865458747553,0,90,3.0,6,0.00017844510258831027
7.375,0.0,77.50587881276304,0,90,3.0,6,0.00012121263428955844
7.38,0.0,77.5039527678497,0,90,3.0,6,8.150036803498289e-05
7.385,0.0,77.5026307611049,0,90,3.0,6,5.424249700817218e-05
7.39,0.0,77.50173312521085,0,90,3.0,6,3.5734540429848964e-05
7.395,0.0,77.50113017810872,0,90,3.0,6,2.3302641416991072e-05
7.4,0.0,77.50072951170684,0,90,3.0,6,1.5041478491477542e-05
7.405,0.0,77.50046610747096,0,90,3.0,6,9.610463318680203e-06
7.41,0.0,77.50029478697198,0,90,3.0,6,6.078081896445378e-06
7.415,0.0,77.50018454357595,0,90,3.0,6,3.805022184636626e-06
7.42,0.0,77.5001143557486,0,90,3.0,6,2.357850486457688e-06
7.425,0.0,77.50007014318696,0,90,3.0,6,1.446251277527444e-06
7.43,0.0,77.50004258742786,0,90,3.0,6,8.780912960048095e-07
7.435,0.0,77.50002559444704,0,90,3.0,6,5.277205574886991e-07
7.44,0.0,77.50001522574371,0,90,3.0,6,3.139328599872053e-07
7.445,0.0,77.5000089656071,0,90,3.0,6,1.8485787822822944e-07
7.45,0.0,77.50000522575824,0,90,3.0,6,1.0774759265793186e-07
7.455,0.0,77.50000301500023,0,90,3.0,6,6.21649532309e-08
7.46,0.001684486749771458,77.50000172184403,0,90,3.0,6,3.5501938745040105e-08
7.465,0.004172395771277602,77.50000097334923,0,90,3.0,6,2.0069056299970978e-08
7.47,0.009438687428818865,77.50000054464309,0,90,3.0,6,1.1229754354363397e-08
7.475,0.019500507867137046,77.50000030166417,0,90,3.0,6,6.219879850570728e-09
7.48,0.03679496976339974,77.50000016538796,0,90,3.0,6,3.410061017066911e-09
7.485,0.06340728953298436,77.50000008975371,0,90,3.0,6,1.850592000373956e-09
7.49,0.09979255396093453,77.5000000482136,0,90,3.0,6,9.940947034620061e-10
7.495,0.14343835518453557,77.50000002563627,0,90,3.0,6,5.285828498842617e-10
7.5,0.18829581417209276,77.50000001349301,0,90,3.0,6,2.782063422704802e-10
7.505,0.2257481735193119,77.50000000702961,0,90,3.0,6,1.449404628390804e-10
7.51,0.24718154073554727,77.50000000362512,0,90,3.0,6,7.474470069225681e-11
7.515,0.24718154074102772,77.50000000185047,0,90,3.0,6,3.8153947355464515e-11
7.52,0.22574817354072055,77.50000000093499,0,90,3.0,6,1.927812319859795e-11
7.525,0.18829581422840957,77.50000000046764,0,90,3.0,6,9.641991672436131e-12
7.53,0.14343835532456656,77.50000000023151,0,90,3.0,6,4.773382147739296e-12
7.535,0.09979255431561854,77.50000000011345,0,90,3.0,6,2.3390773853908783e-12
7.54,0.06340729067170194,77.50000000005502,0,90,3.0,6,1.1345243187064363e-12
7.545,0.03679497683410042,77.50000000002642,0,90,3.0,6,5.447005961971242e-13
7.55,0.019500578284482293,77.50000000001256,0,90,3.0,6,2.590184653245066e-13
7.555,0.009439396781978427,77.50000000000591,0,90,3.0,6,1.2189104250565017e-13
7.56,0.004178588733610924,77.50000000000276,0,90,3.0,6,5.684341886080802e-14
7.565,0.0017299316936037381,77.50000000000126,0,90,3.0,6,2.6077650920679964e-14
7.57,0.0008997325756988589,77.50000000000058,0,90,3.0,6,1.2013299862335714e-14
7.575,0.001634769674224814,77.50000000000026,0,90,3.0,6,5.274131646879094e-15
7.58,0.00614904736476635,77.50000000000011,0,90,3.0,6,2.344058509724042e-15
7.585,0.02168080359963608,77.50000000000006,0,90,3.0,6,1.172029254862021e-15
7.59,0.06433400338904088,77.50000000000003,0,90,3.0,6,5.860146274310105e-16
7.595,0.1593410769217493,77.50000000000001,0,90,3.0,6,2.9300731371550523e-16
7.6,0.3291989194808569,77.5,0,90,3.0,6,0.0
7.605,0.5672906802982638,77.5,0,90,3.0,6,0.0
7.61,0.815339152120446,77.5,0,90,3.0,6,0.0
7.615,0.9768711246313155,77.50000285473426,1,90,3.0,6,5.8860500253900945e-08
7.62,0.9726380909165361,77.5000049983091,0,90,3.0,6,1.0305791947664063e-07
7.625,0.7921091683291741,77.5000091154937,0,90,3.0,6,1.8794832364441503e-07
7.63,0.49139090102639077,77.50001772688137,0,90,3.0,6,3.655027086031473e-07
7.635,0.15739335672107918,77.5000373499512,0,90,3.0,6,7.701020865859147e-07
7.64,-0.11102342218909485,77.50008500575251,0,90,3.0,6,1.7526959280394762e-06
7.645,-0.2314207883647528,77.50020448252373,0,90,3.0,6,4.216134509850179e-06
7.65,-0.2029124434754801,77.50050509629355,0,90,3.0,6,1.0414356568068712e-05
7.655,-0.11151350554305876,77.50124942857047,0,90,3.0,6,2.5761413824221028e-05
7.66,-0.039430666652076896,77.50304137163405,0,90,3.0,6,6.270869348566418e-05
7.665,-0.006087703519843621,77.50720659234621,0,90,3.0,6,0.00014858953291149867
7.67,0.005350271385530551,77.51651671365775,0,90,3.0,6,0.0003405507970670282
7.675,0.010381647827441833,77.53648043728987,0,90,3.0,6,0.000752173964739536
7.68,0.015115203303506243,77.57748674207457,0,90,3.0,6,0.0015976647850426658
7.685,0.021170964062928475,77.65808783672054,0,90,3.0,6,0.003259543025165774
7.69,0.029082821134029553,77.80957351772746,0,90,3.0,6,0.006382959128401189
7.695,0.03923107061708144,78.08161919315936,0,90,3.0,6,0.011992148312564023
7.7,0.051969043308817596,78.5481198867466,0,90,3.0,6,0.021610719314362987
7.705,0.06760532616283861,79.31138621754397,0,90,3.0,6,0.037348169433896274
7.71,0.08636519236693461,80.501894662539,0,90,3.0,6,0.06189473531008251
7.715,0.10834733138818661,82.27019956672632,0,90,3.0,6,0.09835463024177978
7.72,0.1334809643017884,84.7680342733444,0,90,3.0,6,0.1498563767699876
7.725,0.16148868344343945,88.11759318932269,0,90,3.0,6,0.2189194472025297
7.73,0.191860907532018,92.37161292978578,0,90,3.0,6,0.30663119442857284
7.735,0.22384764873847726,97.47150946226328,0,90,3.0,6,0.4117837002528512
7.74,0.25647215537198226,103.2149623594649,0,90,3.0,6,0.5302054094735033
7.745,0.2885689161419028,109.24593250545675,0,90,3.0,6,0.6545553093908608
7.75,0.31884566517832524,115.07742493768276,0,90,3.0,6,0.7747922667563456
7.755,0.3459657668955683,120.14994703649623,0,90,3.0,6,0.8793803512679634
7.76,0.3686441789190902,123.91813671703507,0,90,3.0,6,0.9570749838563931
7.765,0.3857476379544367,125.94783631725358,0,90,3.0,6,0.9989244601495583
7.77,0.3963882865005728,126.0,0,90,3.0,6,1.0
7.775,0.4,124.07915595123734,0,90,3.0,6,0.9603949680667493
7.78,0.39638828650057273,120.43297441942573,0,90,3.0,6,0.8852159674108399
7.785,0.38574763795443656,115.50305402477471,0,90,3.0,6,0.783568124222159
7.79,0.36864417891908974,109.84055929025234,0,90,3.0,6,0.6668156554691205
7.795,0.345965766895568,104.00906719378588,0,90,3.0,6,0.5465787050265131
7.8,0.3188456651783249,98.49818917012387,0,90,3.0,6,0.4329523540231725
7.805,0.28856891614190205,93.66555143370792,0,90,3.0,6,0.3333103388393385
7.81,0.2564721553719815,89.7144827701363,0,90,3.0,6,0.2518450055698206
7.815,0.22384764873847685,86.7043124531151,0,90,3.0,6,0.18977963820855864
7.82,0.19186090753201765,84.58288995167732,0,90,3.0,6,0.14603896807582095
7.825,0.16148868344343878,83.22834194908314,0,90,3.0,6,0.11811014328006485
7.83,0.1334809643017881,82.48873580979522,0,90,3.0,6,0.1028605321607261
7.835,0.10834733138818531,82.21247796708191,0,90,3.0,6,0.0971644941666373
7.84,0.08636519236690572,82.26690909575632,0,90,3.0,6,0.09828678547951172
7.845,0.06760532616242629,82.54616069056094,0,90,3.0,6,0.1040445503208441
7.85,0.05196904332202373,82.971274279,0,90,3.0,6,0.11280977894845359
7.855,0.03923107185803287,83.48598202927768,0,90,3.0,6,0.123422309882014
7.86,0.02908287038705761,84.0509493967084,0,90,3.0,6,0.13507112158161658
7.865,0.02117220077308346,84.63829145408482,0,90,3.0,6,0.14718126709453241
7.87,0.0151361834125735,85.22723755948846,0,90,3.0,6,0.15932448576264863
7.875,0.010626454858290009,85.80114977653734,0,90,3.0,6,0.17115772735128543
7.88,0.007326255555493652,86.34573114748355,0,90,3.0,6,0.1823862092264649
7.885,0.004960179211183015,86.84812271191404,0,90,3.0,6,0.19274479818379472
7.89,0.0032978759379303545,87.29658861252781,0,90,3.0,6,0.20199151778407862
7.895,0.002153242296767213,87.68054828000182,0,90,3.0,6,0.20990821195880033
7.9,0.001380616732225004,87.99078493957134,0,90,3.0,6,0.21630484411487302
7.905,0.0008693106590991584,88.21971832679051,0,90,3.0,6,0.22102512014001058
7.91,0.000537524815942247,88.36167114857207,0,90,3.0,6,0.22395198244478498
7.915,0.0003263951340288585,88.41308600139116,0,90,3.0,6,0.2250120825029106
7.92,0.00019463030985187395,88.37266684196382,0,90,3.0,6,0.2241786977724499
7.925,0.00011397219555062695,88.24143078599542,0,90,3.0,6,0.22147279971124575
7.93,6.55403863487943e-05,88.02266468234762,0,90,3.0,6,0.21696215839892008
7.935,3.701184389455385e-05,87.72178799669148,0,90,3.0,6,0.2107585153957005
7.94,2.0525516217290957e-05,87.34612959684776,0,90,3.0,6,0.20301298137830434
7.945,1.1178128483661116e-05,86.90463113480797,0,90,3.0,6,0.193909920305319
7.95,5.978135409912517e-06,86.40749373199031,0,90,3.0,6,0.18365966457711988
7.955,3.1396702713238487e-06,85.86578741799237,0,90,3.0,6,0.1724904622266467
7.96,1.6192875458531019e-06,85.2910441240324,0,90,3.0,6,0.1606400850315958
7.965,8.201353897972012e-07,84.69485496083774,0,90,3.0,6,0.1483475249657267
7.97,4.0791415086824765e-07,84.08849109567761,0,90,3.0,6,0.1358451772304662
7.975,1.9923866938774793e-07,83.48256496485517,0,90,3.0,6,0.12335185494546747
7.98,9.556527981051257e-08,82.88674507841722,0,90,3.0,6,0.11106690883334476
7.985,4.501406988770349e-08,82.30953360935997,0,90,3.0,6,0.09916564143010256
7.99,0.0,81.75811164906654,0,90,3.0,6,0.08779611647559867
7.995,0.0,81.23825278415366,0,90,3.0,6,0.07707737699285894
8.0,0.0,80.7543018005637,0,90,3.0,6,0.06709900619718959
8.005,0.0,80.30921208306694,0,90,3.0,6,0.05792189861993688
8.01,0.0,79.90463281376022,0,90,3.0,6,0.049580058015674555
8.015,0.0,79.54103546418303,0,90,3.0,6,0.04208320544707268
8.02,0.0,79.21786832813989,0,90,3.0,6,0.03541996552865745
8.025,0.0,78.9337278944078,0,90,3.0,6,0.029561399884696807
8.03,0.0,78.68653659498678,0,90,3.0,6,0.024464672061583023
8.035,0.0,78.47371773397128,0,90,3.0,6,0.020076654308686274
8.04,0.0,78.29236003491764,0,90,3.0,6,0.016337320307580113
8.045,0.0,78.13936607011075,0,90,3.0,6,0.013182805569293887
8.05,0.0,78.01158069613635,0,90,3.0,6,0.010548055590440183
8.055,0.0,77.90589738363109,0,90,3.0,6,0.00836901821919764
8.06,0.0,77.8193418930763,0,90,3.0,6,0.006584368929408222
8.065,0.0,77.74913404493157,0,90,3.0,6,0.005136784431578676
8.07,0.0,77.69272932628196,0,90,3.0,6,0.003973800541896147
8.075,0.0,77.64784276200395,0,90,3.0,6,0.003048304371215399
8.08,0.0,77.61245787474897,0,90,3.0,6,0.0023187190669890574
8.085,0.0,77.58482370079636,0,90,3.0,6,0.001748942284461098
8.09,0.0,77.56344276484224,0,90,3.0,6,0.001308098244169814
8.095,0.0,77.54705269750748,0,90,3.0,6,0.0009701587114944715
8.1,0.0,77.53460385564382,0,90,3.0,6,0.000713481559666455
8.105,0.0,77.52523492376558,0,90,3.0,6,0.000520307706506818
8.11,0.0,77.51824807439121,0,90,3.0,6,0.00037624895651978263
8.115,0.0,77.51308487652001,0,90,3.0,6,0.00026979126845384197
8.12,0.0,77.50930378690524,0,90,3.0,6,0.0001918306578399022
8.125,0.0,77.50655975200604,0,90,3.0,6,0.00013525261868125264
8.13,0.0,77.50458619617231,0,90,3.0,6,9.456074582086453e-05
8.135,0.0,77.50317947470528,0,90,3.0,6,6.55561794902501e-05
8.14,0.0,77.50218572571207,0,90,3.0,6,4.5066509527158975e-05
8.145,0.0,77.50148995615403,0,90,3.0,6,3.0720745443954676e-05
8.15,0.0,77.50100713770587,0,90,3.0,6,2.076572589421349e-05
8.155,0.0,77.50067505904896,0,90,3.0,6,1.3918743277501338e-05
8.16,0.0,77.50044867535075,0,90,3.0,6,9.251038159866944e-06
8.165,0.0,77.50029570604245,0,90,3.0,6,6.097031803106408e-06
8.17,0.0,77.5001932527698,0,90,3.0,6,3.9845931918459906e-06
8.175,0.0,77.50012523588686,0,90,3.0,6,2.5821832341347375e-06
8.18,0.0,77.50008047656003,0,90,3.0,6,1.6593105160679733e-06
8.185,0.0,77.50005127994527,0,90,3.0,6,1.057318459131529e-06
8.19,0.0,77.50003240136019,0,90,3.0,6,6.680692822040319e-07
8.195,0.0,77.50002030095513,0,90,3.0,6,4.185763944021637e-07
8.2,0.0,77.50001261267603,0,90,3.0,6,2.6005517589069737e-07
8.205,0.0,77.50000777025998,0,90,3.0,6,1.6021154605950118e-07
8.21,0.0,77.5000047468051,0,90,3.0,6,9.787227017835734e-08
8.215,0.0,77.50000287544319,0,90,3.0,6,5.9287488384893317e-08
8.22,0.0,77.5000017272123,0,90,3.0,6,3.5612624601854644e-08
8.225,0.0,77.50000102878397,0,90,3.0,6,2.1212040618846322e-08
8.23,0.0,77.50000060763139,0,90,3.0,6,1.2528482315734512e-08
8.235,0.001684486749771458,77.50000035587195,0,90,3.0,6,7.3375659179798756e-09
8.24,0.004172395771277602,77.50000020667352,0,90,3.0,6,4.261309673968275e-09
8.245,0.009438687428818865,77.50000011901822,0,90,3.0,6,2.4539840125594917e-09
8.25,0.019500507867137046,77.50000006796411,0,90,3.0,6,1.4013218352027758e-09
8.255,0.03679496976339974,77.50000003848427,0,90,3.0,6,7.934901761998226e-10
8.26,0.06340728953298436,77.5000000216085,0,90,3.0,6,4.4553607996518976e-10
8.265,0.09979255396093453,77.50000001203105,0,90,3.0,6,2.480629218646839e-10
8.27,0.14343835518453557,77.50000000664232,0,90,3.0,6,1.3695513451839172e-10
8.275,0.18829581417209276,77.50000000363642,0,90,3.0,6,7.497764150666063e-11
8.28,0.2257481735193119,77.50000000197409,0,90,3.0,6,4.0702817977475695e-11
8.285,0.24718154073554727,77.50000000106266,0,90,3.0,6,2.191050090501805e-11
8.29,0.24718154074102772,77.50000000056723,0,90,3.0,6,1.1695386926954391e-11
8.295,0.22574817354072055,77.50000000030023,0,90,3.0,6,6.190365516867479e-12
8.3,0.18829581422840957,77.50000000015758,0,90,3.0,6,3.2491581017912374e-12
8.305,0.14343835532456656,77.50000000008201,0,90,3.0,6,1.6909452074521806e-12
8.31,0.09979255431561854,77.50000000004232,0,90,3.0,6,8.725757802447746e-13
8.315,0.06340729067170194,77.50000000002166,0,90,3.0,6,4.4654314610242995e-13
8.32,0.03679497683410042,77.50000000001098,0,90,3.0,6,2.2649465350208555e-13
8.325,0.019500578284482293,77.50000000000553,0,90,3.0,6,1.1397984503533153e-13
8.33,0.009439396781978427,77.50000000000276,0,90,3.0,6,5.684341886080802e-14
8.335,0.004178588733610924,77.50000000000136,0,90,3.0,6,2.8128702116688503e-14
8.34,0.0017299316936037381,77.50000000000067,0,90,3.0,6,1.3771343744628746e-14
8.345,0.0008997325756988589,77.50000000000033,0,90,3.0,6,6.73916821545662e-15
8.35,0.001634769674224814,77.50000000000016,0,90,3.0,6,3.2230804508705575e-15
8.355,0.00614904736476635,77.50000000000007,0,90,3.0,6,1.465036568577526e-15
8.36,0.02168080359963608,77.50000000000003,0,90,3.0,6,5.860146274310105e-16
8.365,0.06433400338904088,77.50000000000001,0,90,3.0,6,2.9300731371550523e-16
8.37,0.1593410769217493,77.5,0,90,3.0,6,0.0
8.375,0.3291989194808569,77.5,0,90,3.0,6,0.0
8.38,0.5672906802982638,77.5,0,90,3.0,6,0.0
8.385,0.815339152120446,77.5,0,90,3.0,6,0.0
8.39,0.9768711246313155,77.50000285066528,1,90,3.0,6,5.8776603762772095e-08
8.395,0.9726380909165361,77.50000533774794,0,90,3.0,6,1.1005665847620811e-07
8.4,0.7921091683291741,77.50001055134113,0,90,3.0,6,2.1755342544631426e-07
8.405,0.49139090102639077,77.50002272509559,0,90,3.0,6,4.685586719629616e-07
8.41,0.15739335672107918,77.50005414678377,0,90,3.0,6,1.1164285312949602e-06
8.415,-0.11102342218909485,77.500140505292,0,90,3.0,6,2.8970163297926024e-06
8.42,-0.2314207883647528,77.50038258369432,0,90,3.0,6,7.888323594182947e-06
8.425,-0.2029124434754801,77.5010527695429,0,90,3.0,6,2.1706588513294712e-05
8.43,-0.11151350554305876,77.50284972513398,0,90,3.0,6,5.875721925740811e-05
8.435,-0.039430666652076896,77.50746597756105,0,90,3.0,7,0.00015393768167121978
8.44,-0.006087703519843621,77.51876169890194,0,90,3.0,7,0.0003868391526173268
8.445,0.005350271385530551,77.54500396355465,0,90,3.0,7,0.000927916774322657
8.45,0.010381647827441833,77.60277510805538,0,90,3.0,7,0.0021190743928944885
8.455,0.015115203303506243,77.72313394409493,0,90,3.0,7,0.004600699878245889
8.46,0.021170964062928475,77.96019364845812,0,90,3.0,7,0.009488528834187958
8.465,0.029082821134029553,78.40119339193035,0,90,3.0,7,0.018581307050110282
8.47,0.03923107061708144,79.17526941030879,0,90,3.0,7,0.034541637325954354
8.475,0.051969043308817596,80.45579048450003,0,90,3.0,7,0.06094413370103151
8.48,0.06760532616283861,82.44931195947832,0,90,3.0,7,0.10204766926759427
8.485,0.08636519236693461,85.36455622127653,0,90,3.0,7,0.16215579837683566
8.49,0.10834733138818661,89.35900055276574,0,90,3.0,7,0.24451547531475742
8.495,0.1334809643017884,94.46913761169944,0,90,3.0,7,0.3498791260144214
8.5,0.16148868344343945,100.54136540845477,0,90,3.0,7,0.47507969914339726
8.505,0.191860907532018,107.18914743882308,0,90,3.0,7,0.612147369872641
8.51,0.22384764873847726,113.8027021799891,0,90,3.0,7,0.7485093232987443
8.515,0.25647215537198226,119.62609966806052,0,90,3.0,7,0.868579374599186
8.52,0.2885689161419028,123.89459021136328,0,90,3.0,7,0.9565894888940882
8.525,0.31884566517832524,126.0,0,90,3.0,7,1.0
8.53,0.3459657668955683,125.63555232071732,0,90,3.0,7,0.992485614860151
8.535,0.3686441789190902,122.8728829839707,0,90,3.0,7,0.9355233604942412
8.54,0.3857476379544367,118.14488894980822,0,90,3.0,7,0.8380389474187262
8.545,0.3963882865005728,112.14032116465883,0,90,3.0,7,0.7142334260754398
8.55,0.4,105.64571806451514,0,90,3.0,7,0.5803240838044358
8.555,0.39638828650057273,99.38474665898676,0,90,3.0,7,0.4512318898760156
8.56,0.38574763795443656,93.89946334087666,0,90,3.0,7,0.3381332647603436
8.565,0.36864417891908974,89.49722210145336,0,90,3.0,7,0.24736540415367753
8.57,0.345965766895568,86.26179009897115,0,90,3.0,7,0.18065546595816798
8.575,0.3188456651783249,84.10837075711324,0,90,3.0,7,0.1362550671569739
8.58,0.28856891614190205,82.85525798893129,0,90,3.0,7,0.11041769049342856
8.585,0.2564721553719815,82.28893368935184,0,90,3.0,7,0.09874090081137807
8.59,0.22384764873847685,82.20954302821511,0,90,3.0,7,0.09710397996319811
8.595,0.19186090753201765,82.45412614899202,0,90,3.0,7,0.1021469309070519
8.6,0.16148868344343878,82.9020248457851,0,90,3.0,7,0.11138195558319808
8.605,0.1334809643017881,83.46956389310165,0,90,3.0,7,0.1230837916103433
8.61,0.10834733138818531,84.1004855952502,0,90,3.0,7,0.13609248650000424
8.615,0.08636519236690572,84.75645137662403,0,90,3.0,7,0.14961755415719646
8.62,0.06760532616242629,85.40966434514888,0,90,3.0,7,0.16308586278657491
8.625,0.05196904332202373,86.0380544133898,0,90,3.0,7,0.17604235903896498
8.63,0.03923107185803287,86.62263152761466,0,90,3.0,7,0.18809549541473522
8.635,0.02908287038705761,87.14635512742458,0,90,3.0,7,0.1988939201530842
8.64,0.02117220077308346,87.59392038235315,0,90,3.0,7,0.20812206973924013
8.645,0.0151361834125735,87.95201971947535,0,90,3.0,7,0.21550556122629577
8.65,0.010626454858290009,88.20979239540345,0,90,3.0,7,0.22082046176089595
8.655,0.007326255555493652,88.35928803931012,0,90,3.0,7,0.2239028461713426
8.66,0.004960179211183015,88.3958424677883,0,90,3.0,7,0.22465654572759378
8.665,0.0032978759379303545,88.31830826653777,0,90,3.0,7,0.22305790240284062
8.67,0.002153242296767213,88.12911092076266,0,90,3.0,7,0.21915692620129187
8.675,0.001380616732225004,87.83412164429782,0,90,3.0,7,0.21307467307830563
8.68,0.0008693106590991584,87.44235443924178,0,90,3.0,7,0.20499699874725325
8.685,0.000537524815942247,86.96550861191454,0,90,3.0,7,0.19516512601885658
8.69,0.0003263951340288585,86.41738895346812,0,90,3.0,7,0.18386368976222928
8.695,0.00019463030985187395,85.81324358973214,0,90,3.0,7,0.171407084324374
8.7,0.00011397219555062695,85.16906367666229,0,90,3.0,7,0.15812502426107813
