Time,ECG,Pressure,R_Peaks,mean_hr,hrv_scale,Phase_Bin,Normalized_Pressure
0.0,0.001684486749771458,77.5,0,90,3.0,0,0.0
0.005,0.004172395771277602,77.5,0,90,3.0,0,0.0
0.01,0.009438687428818865,77.5,0,90,3.0,0,0.0
0.015,0.019500507867137046,77.5,0,90,3.0,0,0.0
0.02,0.03679496976339974,77.5,0,90,3.0,0,0.0
0.025,0.06340728953298436,77.5,0,90,3.0,0,0.0
0.03,0.09979255396093453,77.5,0,90,3.0,0,0.0
0.035,0.14343835518453557,77.5,0,90,3.0,0,0.0
0.04,0.18829581417209276,77.5,0,90,3.0,0,0.0
0.045,0.2257481735193119,77.5,0,90,3.0,0,0.0
0.05,0.24718154073554727,77.5,0,90,3.0,0,0.0
0.055,0.24718154074102772,77.5,0,90,3.0,0,0.0
0.06,0.22574817354072055,77.5,0,90,3.0,0,0.0
0.065,0.18829581422840957,77.5,0,90,3.0,0,0.0
0.07,0.14343835532456656,77.5,0,90,3.0,0,0.0
0.075,0.09979255431561854,77.5,0,90,3.0,0,0.0
0.08,0.06340729067170194,77.5,0,90,3.0,0,0.0
0.085,0.03679497683410042,77.5,0,90,3.0,0,0.0
0.09,0.019500578284482293,77.5,0,90,3.0,0,0.0
0.095,0.009439396781978427,77.5,0,90,3.0,0,0.0
0.1,0.004178588733610924,77.5,0,90,3.0,0,0.0
0.105,0.0017299316936037381,77.5,0,90,3.0,0,0.0
0.11,0.0008997325756988589,77.5,0,90,3.0,0,0.0
0.115,0.001634769674224814,77.5,0,90,3.0,0,0.0
0.12,0.00614904736476635,77.5,0,90,3.0,0,0.0
0.125,0.02168080359963608,77.5,0,90,3.0,0,0.0
0.13,0.06433400338904088,77.5,0,90,3.0,0,0.0
0.135,0.1593410769217493,77.5,0,90,3.0,0,0.0
0.14,0.3291989194808569,77.5,0,90,3.0,0,0.0
0.145,0.5672906802982638,77.5,0,90,3.0,0,0.0
0.15,0.815339152120446,77.5,0,90,3.0,0,0.0
0.155,0.9768711246313155,77.5,0,90,3.0,0,0.0
0.16,0.9726380909165361,77.5,0,90,3.0,0,0.0
0.165,0.7921091683291741,77.5,0,90,3.0,0,0.0
0.17,0.49139090102639077,77.5,0,90,3.0,0,0.0
0.175,0.15739335672107918,77.5,0,90,3.0,0,0.0
0.18,-0.11102342218909485,77.5,0,90,3.0,0,0.0
0.185,-0.2314207883647528,77.5,0,90,3.0,0,0.0
0.19,-0.2029124434754801,77.5,0,90,3.0,0,0.0
0.195,-0.11151350554305876,77.5,0,90,3.0,0,0.0
0.2,-0.039430666652076896,77.5,0,90,3.0,0,0.0
0.205,-0.006087703519843621,77.5,0,90,3.0,0,0.0
0.21,0.005350271385530551,77.5,0,90,3.0,0,0.0
0.215,0.010381647827441833,77.5,0,90,3.0,0,0.0
0.22,0.015115203303506243,77.5,0,90,3.0,0,0.0
0.225,0.021170964062928475,77.5,0,90,3.0,0,0.0
0.23,0.029082821134029553,77.5,0,90,3.0,0,0.0
0.235,0.03923107061708144,77.5,0,90,3.0,0,0.0
0.24,0.051969043308817596,77.5,0,90,3.0,0,0.0
0.245,0.06760532616283861,77.5,0,90,3.0,0,0.0
0.25,0.08636519236693461,77.5,0,90,3.0,0,0.0
0.255,0.10834733138818661,77.5,0,90,3.0,0,0.0
0.26,0.1334809643017884,77.5,0,90,3.0,0,0.0
0.265,0.16148868344343945,77.5,0,90,3.0,0,0.0
0.27,0.191860907532018,77.5,0,90,3.0,0,0.0
0.275,0.22384764873847726,77.5,0,90,3.0,0,0.0
0.28,0.25647215537198226,77.5,0,90,3.0,0,0.0
0.285,0.2885689161419028,77.5,0,90,3.0,0,0.0
0.29,0.31884566517832524,77.5,0,90,3.0,0,0.0
0.295,0.3459657668955683,77.5,0,90,3.0,0,0.0
0.3,0.3686441789190902,77.5,0,90,3.0,0,0.0
0.305,0.3857476379544367,77.5,0,90,3.0,0,0.0
0.31,0.3963882865005728,77.5,0,90,3.0,0,0.0
0.315,0.4,77.5,0,90,3.0,0,0.0
0.32,0.39638828650057273,77.5,0,90,3.0,0,0.0
0.325,0.38574763795443656,77.5,0,90,3.0,0,0.0
0.33,0.36864417891908974,77.5,0,90,3.0,0,0.0
0.335,0.345965766895568,77.5,0,90,3.0,0,0.0
0.34,0.3188456651783249,77.5,0,90,3.0,0,0.0
0.345,0.28856891614190205,77.5,0,90,3.0,0,0.0
0.35,0.2564721553719815,77.5,0,90,3.0,0,0.0
0.355,0.22384764873847685,77.5,0,90,3.0,0,0.0
0.36,0.19186090753201765,77.5,0,90,3.0,0,0.0
0.365,0.16148868344343878,77.5,0,90,3.0,0,0.0
0.37,0.1334809643017881,77.5,0,90,3.0,0,0.0
0.375,0.10834733138818531,77.5,0,90,3.0,0,0.0
0.38,0.08636519236690572,77.5,0,90,3.0,0,0.0
0.385,0.06760532616242629,77.5,0,90,3.0,0,0.0
0.39,0.05196904332202373,77.5,0,90,3.0,0,0.0
0.395,0.03923107185803287,77.5,0,90,3.0,0,0.0
0.4,0.02908287038705761,77.5,0,90,3.0,0,0.0
0.405,0.02117220077308346,77.5,0,90,3.0,0,0.0
0.41,0.0151361834125735,77.5,0,90,3.0,0,0.0
0.415,0.010626454858290009,77.5,0,90,3.0,0,0.0
0.42,0.007326255555493652,77.5,0,90,3.0,0,0.0
0.425,0.004960179211183015,77.5,0,90,3.0,0,0.0
0.43,0.0032978759379303545,77.5,0,90,3.0,0,0.0
0.435,0.002153242296767213,77.5,0,90,3.0,0,0.0
0.44,0.001380616732225004,77.5,0,90,3.0,0,0.0
0.445,0.0008693106590991584,77.5,0,90,3.0,0,0.0
0.45,0.000537524815942247,77.5,0,90,3.0,0,0.0
0.455,0.0003263951340288585,77.5,0,90,3.0,0,0.0
0.46,0.00019463030985187395,77.5,0,90,3.0,0,0.0
0.465,0.00011397219555062695,77.5,0,90,3.0,0,0.0
0.47,6.55403863487943e-05,77.5,0,90,3.0,0,0.0
0.475,3.701184389455385e-05,77.5,0,90,3.0,0,0.0
0.48,2.0525516217290957e-05,77.5,0,90,3.0,0,0.0
0.485,1.1178128483661116e-05,77.5,0,90,3.0,0,0.0
0.49,5.978135409912517e-06,77.5,0,90,3.0,0,0.0
0.495,3.1396702713238487e-06,77.5,0,90,3.0,0,0.0
0.5,1.6192875458531019e-06,77.5,0,90,3.0,0,0.0
0.505,8.201353897972012e-07,77.5,0,90,3.0,0,0.0
0.51,4.0791415086824765e-07,77.5,0,90,3.0,0,0.0
0.515,1.9923866938774793e-07,77.5,0,90,3.0,0,0.0
0.52,9.556527981051257e-08,77.5,0,90,3.0,0,0.0
0.525,4.501406988770349e-08,77.5,0,90,3.0,0,0.0
0.53,0.0,77.5,0,90,3.0,0,0.0
0.535,0.0,77.5,0,90,3.0,0,0.0
0.54,0.0,77.5,0,90,3.0,0,0.0
0.545,0.0,77.5,0,90,3.0,0,0.0
0.55,0.0,77.5,0,90,3.0,0,0.0
0.555,0.0,77.5,0,90,3.0,0,0.0
0.56,0.0,77.5,0,90,3.0,0,0.0
0.565,0.0,77.5,0,90,3.0,0,0.0
0.57,0.0,77.5,0,90,3.0,0,0.0
0.575,0.0,77.5,0,90,3.0,0,0.0
0.58,0.0,77.5,0,90,3.0,0,0.0
0.585,0.0,77.5,0,90,3.0,0,0.0
0.59,0.0,77.5,0,90,3.0,0,0.0
0.595,0.0,77.5,0,90,3.0,0,0.0
0.6,0.0,77.5,0,90,3.0,0,0.0
0.605,0.0,77.5,0,90,3.0,0,0.0
0.61,0.0,77.5,0,90,3.0,0,0.0
0.615,0.0,77.5,0,90,3.0,0,0.0
0.62,0.0,77.5,0,90,3.0,0,0.0
0.625,0.0,77.5,0,90,3.0,0,0.0
0.63,0.0,77.5,0,90,3.0,0,0.0
0.635,0.0,77.5,0,90,3.0,0,0.0
0.64,0.0,77.5,0,90,3.0,0,0.0
0.645,0.0,77.5,0,90,3.0,0,0.0
0.65,0.0,77.5,0,90,3.0,0,0.0
0.655,0.0,77.5,0,90,3.0,0,0.0
0.66,0.0,77.5,0,90,3.0,0,0.0
0.665,0.0,77.5,0,90,3.0,0,0.0
0.67,0.0,77.5,0,90,3.0,0,0.0
0.675,0.0,77.5,0,90,3.0,0,0.0
0.68,0.0,77.5,0,90,3.0,0,0.0
0.685,0.0,77.5,0,90,3.0,0,0.0
0.69,0.0,77.5,0,90,3.0,0,0.0
0.695,0.0,77.5,0,90,3.0,0,0.0
0.7,0.0,77.5,0,90,3.0,0,0.0
0.705,0.0,77.5,0,90,3.0,0,0.0
0.71,0.0,77.5,0,90,3.0,0,0.0
0.715,0.0,77.5,0,90,3.0,0,0.0
0.72,0.0,77.5,0,90,3.0,0,0.0
0.725,0.0,77.5,0,90,3.0,0,0.0
0.73,0.0,77.5,0,90,3.0,0,0.0
0.735,0.0,77.5,0,90,3.0,0,0.0
0.74,0.0,77.5,0,90,3.0,0,0.0
0.745,0.0,77.5,0,90,3.0,0,0.0
0.75,0.0,77.5,0,90,3.0,0,0.0
0.755,0.001684486749771458,77.5,0,90,3.0,0,0.0
0.76,0.004172395771277602,77.5,0,90,3.0,0,0.0
0.765,0.009438687428818865,77.5,0,90,3.0,0,0.0
0.77,0.019500507867137046,77.5,0,90,3.0,0,0.0
0.775,0.03679496976339974,77.5,0,90,3.0,0,0.0
0.78,0.06340728953298436,77.5,0,90,3.0,0,0.0
0.785,0.09979255396093453,77.5,0,90,3.0,0,0.0
0.79,0.14343835518453557,77.5,0,90,3.0,0,0.0
0.795,0.18829581417209276,77.5,0,90,3.0,0,0.0
0.8,0.2257481735193119,77.5,0,90,3.0,0,0.0
0.805,0.24718154073554727,77.5,0,90,3.0,0,0.0
0.81,0.24718154074102772,77.5,0,90,3.0,0,0.0
0.815,0.22574817354072055,77.5,0,90,3.0,0,0.0
0.82,0.18829581422840957,77.5,0,90,3.0,0,0.0
0.825,0.14343835532456656,77.5,0,90,3.0,0,0.0
0.83,0.09979255431561854,77.5,0,90,3.0,0,0.0
0.835,0.06340729067170194,77.5,0,90,3.0,0,0.0
0.84,0.03679497683410042,77.5,0,90,3.0,0,0.0
0.845,0.019500578284482293,77.5,0,90,3.0,0,0.0
0.85,0.009439396781978427,77.5,0,90,3.0,0,0.0
0.855,0.004178588733610924,77.5,0,90,3.0,0,0.0
0.86,0.0017299316936037381,77.5,0,90,3.0,0,0.0
0.865,0.0008997325756988589,77.5,0,90,3.0,0,0.0
0.87,0.001634769674224814,77.5,0,90,3.0,0,0.0
0.875,0.00614904736476635,77.5,0,90,3.0,0,0.0
0.88,0.02168080359963608,77.5,0,90,3.0,0,0.0
0.885,0.06433400338904088,77.5,0,90,3.0,0,0.0
0.89,0.1593410769217493,77.5,0,90,3.0,0,0.0
0.895,0.3291989194808569,77.5,0,90,3.0,0,0.0
0.9,0.5672906802982638,77.5,0,90,3.0,0,0.0
0.905,0.815339152120446,77.5,0,90,3.0,0,0.0
0.91,0.9768711246313155,77.50000285188469,1,90,3.0,0,5.88017461343474e-08
0.915,0.9726380909165361,77.500005472104,0,90,3.0,0,1.1282688645449e-07
0.92,0.7921091683291741,77.50001114553572,0,90,3.0,0,2.2980486026370402e-07
0.925,0.49139090102639077,77.50002494746741,0,90,3.0,0,5.143807713241201e-07
0.93,0.15739335672107918,77.50006223014493,0,90,3.0,0,1.283095771835169e-06
0.935,-0.11102342218909485,77.5001692753466,0,90,3.0,0,3.4902133318178834e-06
0.94,-0.2314207883647528,77.50048103204684,0,90,3.0,0,9.918186532683284e-06
0.945,-0.2029124434754801,77.50137207546508,0,90,3.0,0,2.8290215774943847e-05
0.95,-0.11151350554305876,77.50382388761822,0,90,3.0,0,7.884304367473877e-05
0.955,-0.039430666652076896,77.51025255192553,0,90,3.0,0,0.00021139282320685189
0.96,-0.006087703519843621,77.52622730260188,0,90,3.0,0,0.0005407691258119953
0.965,0.005350271385530551,77.56373480349473,0,90,3.0,0,0.0013141196596850547
0.97,0.010381647827441833,77.64679192528084,0,90,3.0,0,0.0030266376346564368
0.975,0.015115203303506243,77.82003264790949,0,90,3.0,0,0.006598611297102794
0.98,0.021170964062928475,78.16002289075324,0,90,3.0,0,0.013608719396974014
0.985,0.029082821134029553,78.78715565839514,0,90,3.0,0,0.026539291925672906
0.99,0.03923107061708144,79.87309703665223,0,90,3.0,0,0.04892983580726239
0.995,0.051969043308817596,81.6357728352696,0,90,3.0,0,0.08527366670658981
1.0,0.06760532616283861,84.31274116702575,0,90,3.0,0,0.14046889004176802
1.005,0.08636519236693461,88.10699478553131,0,90,3.0,0,0.21870092341301678
1.01,0.10834733138818661,93.10840244452054,0,90,3.0,0,0.3218227308148564
1.015,0.1334809643017884,99.20787973600085,0,90,3.0,0,0.44758514919589376
1.02,0.16148868344343945,106.03465479272373,0,90,3.0,0,0.5883433977881181
1.025,0.191860907532018,112.95149073900936,0,90,3.0,0,0.7309585719383372
1.03,0.22384764873847726,119.13158563547512,0,90,3.0,0,0.8583832089788684
1.035,0.25647215537198226,123.71388588995438,0,90,3.0,0,0.9528636265969976
1.04,0.2885689161419028,126.0,0,90,3.0,0,1.0
1.045,0.31884566517832524,125.63168033832994,0,90,3.0,0,0.9924057801717514
1.05,0.3459657668955683,122.68717513676035,0,90,3.0,0,0.9316943327167081
1.055,0.3686441789190902,117.66114684156429,0,90,3.0,0,0.8280648833312224
1.06,0.3857476379544367,111.33557350136091,0,90,3.0,0,0.6976406907497096
1.065,0.3963882865005728,104.5882963007817,0,90,3.0,0,0.5585215732119939
1.07,0.4,98.20380090084146,0,90,3.0,0,0.4268824928008548
1.075,0.39638828650057273,92.74127363349305,0,90,3.0,0,0.31425306460810415
1.08,0.38574763795443656,88.48579720411917,0,90,3.0,0,0.22651128255915806
1.085,0.36864417891908974,85.47562070635212,0,90,3.0,0,0.16444578775983748
1.09,0.345965766895568,83.57616312899322,0,90,3.0,0,0.1252817139998601
1.095,0.3188456651783249,82.5659171942369,0,90,3.0,0,0.10445190091210109
1.1,0.28856891614190205,82.2077740060747,0,90,3.0,0,0.09706750527989073
1.105,0.2564721553719815,82.29359471173308,0,90,3.0,0,0.09883700436563048
1.11,0.22384764873847685,82.66255827345258,0,90,3.0,0,0.10644450048355825
1.115,0.19186090753201765,83.20095515387028,0,90,3.0,0,0.11754546709010891
1.12,0.16148868344343878,83.83258540626372,0,90,3.0,0,0.13056877126316943
1.125,0.1334809643017881,84.50688720883298,0,90,3.0,0,0.1444719012130511
1.13,0.10834733138818531,85.18879930614817,0,90,3.0,0,0.1585319444566633
1.135,0.08636519236690572,85.85174343024126,0,90,3.0,0,0.1722008954688919
1.14,0.06760532616242629,86.47356190947447,0,90,3.0,0,0.1850218950407107
1.145,0.05196904332202373,87.0346351717773,0,90,3.0,0,0.19659041591293394
1.15,0.03923107185803287,87.51735949791845,0,90,3.0,0,0.20654349480244225
1.155,0.02908287038705761,87.90635065364523,0,90,3.0,0,0.2145639310029945
1.16,0.02117220077308346,88.1889541011337,0,90,3.0,0,0.22039080620894233
1.165,0.0151361834125735,88.35580849564253,0,90,3.0,0,0.22383110300293885
1.17,0.010626454858290009,88.4013164549309,0,90,3.0,0,0.22476941144187437
1.175,0.007326255555493652,88.32394120303454,0,90,3.0,0,0.2231740454233925
1.18,0.004960179211183015,88.12628788072502,0,90,3.0,0,0.21909871919020651
1.185,0.0032978759379303545,87.8149564468404,0,90,3.0,0,0.21267951436784327
1.19,0.002153242296767213,87.40017534035806,0,90,3.0,0,0.20412732660532085
1.195,0.001380616732225004,86.89524350085946,0,90,3.0,0,0.1937163608424632
1.2,0.0008693106590991584,86.31582296936395,0,90,3.0,0,0.18176954576008145
1.205,0.000537524815942247,85.67913444059066,0,90,3.0,1,0.16864194722867337
1.21,0.0003263951340288585,85.00311320618148,0,90,3.0,1,0.15470336507590685
1.215,0.00019463030985187395,84.3055827268295,0,90,3.0,1,0.1403212933366907
1.22,0.00011397219555062695,83.60349793607864,0,90,3.0,1,0.12584531826966266
1.225,6.55403863487943e-05,82.91230113964602,0,90,3.0,1,0.11159383793084575
1.23,3.701184389455385e-05,82.24542123587032,0,90,3.0,1,0.09784373682206855
1.235,2.0525516217290957e-05,81.613933357956,0,90,3.0,1,0.08482336820527836
1.24,1.1178128483661116e-05,81.0263823663777,0,90,3.0,1,0.07270891477067429
1.245,5.978135409912517e-06,80.48876119719017,0,90,3.0,1,0.06162394221010664
1.25,3.1396702713238487e-06,80.00462491990231,0,90,3.0,1,0.05164175092582087
1.255,1.6192875458531019e-06,79.57531413717051,0,90,3.0,1,0.042789982209701205
1.26,8.201353897972012e-07,79.20025733794617,0,90,3.0,1,0.035056852328787
1.265,4.0791415086824765e-07,78.8773208986497,0,90,3.0,1,0.028398369044323704
1.27,1.9923866938774793e-07,78.60317721354771,0,90,3.0,1,0.02274592192881876
1.275,9.556527981051257e-08,78.37366531514834,0,90,3.0,1,0.01801371783811018
1.28,4.501406988770349e-08,78.18412359953327,0,90,3.0,1,0.014105641227490006
1.285,0.0,78.02968017202754,0,90,3.0,1,0.010921240660361643
1.29,0.0,77.90549221983429,0,90,3.0,1,0.008360664326480135
1.295,0.0,77.80693117491525,0,90,3.0,1,0.0063284778333041036
1.3,0.0,77.72971488846713,0,90,3.0,1,0.00473638945293049
1.305,0.0,77.66999140059843,0,90,3.0,1,0.003504977331926474
1.31,0.0,77.624381109498,0,90,3.0,1,0.002564558958721715
1.315,0.0,77.58998529958369,0,90,3.0,1,0.001855367001725527
1.32,0.0,77.56436923879633,0,90,3.0,1,0.001327200799924356
1.325,0.0,77.54552760933194,0,90,3.0,1,0.0009387135944730149
1.33,0.0,77.53183911478689,0,90,3.0,1,0.0006564765935441408
1.335,0.0,77.52201591751752,0,90,3.0,1,0.0004539364436602307
1.34,0.0,77.51505227902882,0,90,3.0,1,0.00031035626863550747
1.345,0.0,77.51017553839584,0,90,3.0,1,0.00020980491537818461
1.35,0.0,77.50680146081736,0,90,3.0,1,0.0001402363055125154
1.355,0.0,77.5044950721781,0,90,3.0,1,9.268190057942428e-05
1.36,0.0,77.50293738454126,0,90,3.0,1,6.056462971659852e-05
1.365,0.0,77.5018979055961,0,90,3.0,1,3.9132074146298636e-05
1.37,0.0,77.50121248974423,0,90,3.0,1,2.499978854089444e-05
1.375,0.0,77.50076589847964,0,90,3.0,1,1.5791721229734977e-05
1.38,0.0,77.50047835906365,0,90,3.0,1,9.863073477303842e-06
1.385,0.0,77.50029541087085,0,90,3.0,1,6.090945790679284e-06
1.39,0.0,77.50018038009229,0,90,3.0,1,3.7191771605897154e-06
1.395,0.0,77.50010890314022,0,90,3.0,1,2.2454255714627526e-06
1.4,0.0,77.5000650102546,0,90,3.0,1,1.3404176206560017e-06
1.405,0.0,77.50003837187288,0,90,3.0,1,7.911726366100336e-07
1.41,0.0,77.50002239410928,0,90,3.0,1,4.617342119555482e-07
1.415,0.0,77.500012922432,0,90,3.0,1,2.6644189703577083e-07
1.42,0.0,77.50000737300255,0,90,3.0,1,1.520206710571899e-07
1.425,0.001684486749771458,77.50000415943343,0,90,3.0,1,8.576151403242865e-08
1.43,0.004172395771277602,77.50000232013706,0,90,3.0,1,4.783787745772006e-08
1.435,0.009438687428818865,77.50000127962515,0,90,3.0,1,2.6384023763010605e-08
1.44,0.019500507867137046,77.50000069781701,0,90,3.0,1,1.4387979687394222e-08
1.445,0.03679496976339974,77.50000037626171,0,90,3.0,1,7.75797339771351e-09
1.45,0.06340728953298436,77.5000002005987,0,90,3.0,1,4.136055786523112e-09
1.455,0.09979255396093453,77.50000010574405,0,90,3.0,1,2.1802896899129167e-09
1.46,0.14343835518453557,77.50000005511545,0,90,3.0,1,1.1364010305507842e-09
1.465,0.18829581417209276,77.50000002840406,0,90,3.0,1,5.856507123473758e-10
1.47,0.2257481735193119,77.50000001447363,0,90,3.0,1,2.984253119534186e-10
1.475,0.24718154073554727,77.50000000729229,0,90,3.0,1,1.503564100257978e-10
1.48,0.24718154074102772,77.50000000363279,0,90,3.0,1,7.490292464166318e-11
1.485,0.22574817354072055,77.50000000178939,0,90,3.0,1,3.689460192111527e-11
1.49,0.18829581422840957,77.50000000087148,0,90,3.0,1,1.7968673513603357e-11
1.495,0.14343835532456656,77.50000000041966,0,90,3.0,1,8.652798981332584e-12
1.5,0.09979255431561854,77.50000000019982,0,90,3.0,1,4.119975838153719e-12
1.505,0.06340729067170194,77.50000000009408,0,90,3.0,1,1.9397084167966446e-12
1.51,0.03679497683410042,77.50000000004378,0,90,3.0,1,9.027555335574716e-13
1.515,0.019500578284482293,77.50000000002015,0,90,3.0,1,4.154843708485864e-13
1.52,0.009439396781978427,77.50000000000917,0,90,3.0,1,1.8898971734650088e-13
1.525,0.004178588733610924,77.50000000000412,0,90,3.0,1,8.497212097749652e-14
1.53,0.0017299316936037381,77.50000000000183,0,90,3.0,1,3.779794346930017e-14
1.535,0.0008997325756988589,77.50000000000081,0,90,3.0,1,1.67014168817838e-14
1.54,0.001634769674224814,77.50000000000036,0,90,3.0,1,7.32518284288763e-15
1.545,0.00614904736476635,77.50000000000016,0,90,3.0,1,3.2230804508705575e-15
1.55,0.02168080359963608,77.50000000000006,0,90,3.0,1,1.172029254862021e-15
1.555,0.06433400338904088,77.50000000000003,0,90,3.0,1,5.860146274310105e-16
1.56,0.1593410769217493,77.50000000000001,0,90,3.0,1,2.9300731371550523e-16
1.565,0.3291989194808569,77.5,0,90,3.0,1,0.0
1.57,0.5672906802982638,77.5,0,90,3.0,1,0.0
1.575,0.815339152120446,77.5,0,90,3.0,1,0.0
1.58,0.9768711246313155,77.50000284141352,1,90,3.0,1,5.8585845746287324e-08
1.585,0.9726380909165361,77.50000602320215,0,90,3.0,1,1.2418973498599896e-07
1.59,0.7921091683291741,77.50001390847572,0,90,3.0,1,2.867726953040473e-07
1.595,0.49139090102639077,77.50003667560723,0,90,3.0,1,7.56198087296089e-07
1.6,0.15739335672107918,77.50011059338524,0,90,3.0,1,2.2802759844191463e-06
1.605,-0.11102342218909485,77.50036189007052,0,90,3.0,1,7.4616509385981134e-06
1.61,-0.2314207883647528,77.50120558702137,0,90,3.0,1,2.4857464358232973e-05
1.615,-0.2029124434754801,77.50391036506441,0,90,3.0,1,8.062608380234367e-05
1.62,-0.11151350554305876,77.51205286547585,0,90,3.0,1,0.0002485126902237444
1.625,-0.039430666652076896,77.5348850163741,0,90,3.0,1,0.000719278688125872
1.63,-0.006087703519843621,77.59427278888509,0,90,3.0,1,0.0019437688429915978
1.635,0.005350271385530551,77.73721226669761,0,90,3.0,1,0.004890974571084765
1.64,0.010381647827441833,78.0550086364351,0,90,3.0,1,0.011443477039899064
1.645,0.015115203303506243,78.7066248131426,0,90,3.0,1,0.024878862126651476
1.65,0.021170964062928475,79.93666476058841,0,90,3.0,1,0.05024051052759616
1.655,0.029082821134029553,82.06966753381477,0,90,3.0,1,0.09421994915081991
1.66,0.03923107061708144,85.45778358580941,0,90,3.0,1,0.16407801207854453
1.665,0.051969043308817596,90.36749712734111,0,90,3.0,1,0.26530921912043526
1.67,0.06760532616283861,96.81881381212173,0,90,3.0,1,0.39832605798189136
1.675,0.08636519236693461,104.43099035060901,0,90,3.0,1,0.5552781515589487
1.68,0.10834733138818661,112.35958137529082,0,90,3.0,1,0.7187542551606354
1.685,0.1334809643017884,119.4003706123145,0,90,3.0,1,0.8639251672642165
1.69,0.16148868344343945,124.27266369891016,0,90,3.0,1,0.9643848185342302
1.695,0.191860907532018,126.0,0,90,3.0,1,1.0
1.7,0.22384764873847726,124.23551301661355,0,90,3.0,1,0.9636188250848156
1.705,0.25647215537198226,119.38441220181832,0,90,3.0,1,0.8635961278725427
1.71,0.2885689161419028,112.46530195676898,0,90,3.0,1,0.7209340609643089
1.715,0.31884566517832524,104.77609572874769,0,90,3.0,1,0.5623937263659318
1.72,0.3459657668955683,97.51510203100418,0,90,3.0,1,0.4126825161031789
1.725,0.3686441789190902,91.50737445707495,0,90,3.0,1,0.2888118444757721
1.73,0.3857476379544367,87.11225858587437,0,90,3.0,1,0.1981908986778221
1.735,0.3963882865005728,84.29424759822729,0,90,3.0,1,0.14008757934489252
1.74,0.4,82.77940077248911,0,90,3.0,1,0.10885362417503323
1.745,0.39638828650057273,82.21366852739418,0,90,3.0,1,0.09718904180194178
1.75,0.38574763795443656,82.27174039653985,0,90,3.0,1,0.09838639992865679
1.755,0.36864417891908974,82.70539350031173,0,90,3.0,1,0.10732770103735523
1.76,0.345965766895568,83.34686082867735,0,90,3.0,1,0.12055383151912062
1.765,0.3188456651783249,84.09021653841471,0,90,3.0,1,0.13588075336937544
1.77,0.28856891614190205,84.8686223908513,0,90,3.0,1,0.1519303585742536
1.775,0.2564721553719815,85.6364398089941,0,90,3.0,1,0.16776164554627004
1.78,0.22384764873847685,86.35833960937738,0,90,3.0,1,0.1826461775129357
1.785,0.19186090753201765,87.00413060605341,0,90,3.0,1,0.19596145579491564
1.79,0.16148868344343878,87.54719230360597,0,90,3.0,1,0.2071586041980612
1.795,0.1334809643017881,87.9647580630516,0,90,3.0,1,0.2157682074856001
1.8,0.10834733138818531,88.23891533843656,0,90,3.0,1,0.22142093481312486
1.805,0.08636519236690572,88.35767975220547,0,90,3.0,1,0.22386968561248394
1.81,0.06760532616242629,88.31580122051929,0,90,3.0,1,0.2230062107323565
1.815,0.05196904332202373,88.1151308889805,0,90,3.0,1,0.21886867812330932
1.82,0.03923107185803287,87.76448070910753,0,90,3.0,1,0.21163877750737176
1.825,0.02908287038705761,87.27898053878907,0,90,3.0,1,0.20162846471730042
1.83,0.02117220077308346,86.67899535312071,0,90,3.0,1,0.1892576361468188
1.835,0.0151361834125735,85.9887098085372,0,90,3.0,1,0.17502494450592154
1.84,0.010626454858290009,85.23451691398876,0,90,3.0,1,0.15947457554615993
1.845,0.007326255555493652,84.44335977110556,0,90,3.0,1,0.14316205713619717
1.85,0.004960179211183015,83.641169909098,0,90,3.0,1,0.126622059981402
1.855,0.0032978759379303545,82.85152460724532,0,90,3.0,1,0.11034071355144998
1.86,0.002153242296767213,82.09461270593953,0,90,3.0,1,0.09473428259669124
1.865,0.001380616732225004,81.38655896338032,0,90,3.0,1,0.08013523635835719
1.87,0.0008693106590991584,80.7391165974011,0,90,3.0,1,0.06678590922476481
1.875,0.000537524815942247,80.15970133410246,0,90,3.0,1,0.054839202764999276
1.88,0.0003263951340288585,79.65171194034743,0,90,3.0,1,0.04436519464633867
1.885,0.00019463030985187395,79.2150641053718,0,90,3.0,1,0.03536214650251123
1.89,0.00011397219555062695,78.84685720699574,0,90,3.0,1,0.027770251690633733
1.895,6.55403863487943e-05,78.54209597968156,0,90,3.0,1,0.021486515044980666
1.9,3.701184389455385e-05,78.29439930474261,0,90,3.0,1,0.01637936710809509
1.905,2.0525516217290957e-05,78.09664356285721,0,90,3.0,1,0.012301929131076495
1.91,1.1178128483661116e-05,77.94150541295326,0,90,3.0,1,0.009103204390788908
1.915,5.978135409912517e-06,77.82188599005731,0,90,3.0,1,0.00663682453726414
1.92,3.1396702713238487e-06,77.7312134456517,0,90,3.0,1,0.004767287539210398
1.925,1.6192875458531019e-06,77.66363231176639,0,90,3.0,1,0.0033738620982761243
1.93,8.201353897972012e-07,77.61409589393084,0,90,3.0,1,0.0023524926583677864
1.935,4.0791415086824765e-07,77.57838192653549,0,90,3.0,1,0.001616122196607939
1.94,1.9923866938774793e-07,77.55305261813884,0,90,3.0,1,0.001093868415233718
1.945,9.556527981051257e-08,77.53537876574086,0,90,3.0,1,0.0007294590874403887
1.95,4.501406988770349e-08,77.52324467632434,0,90,3.0,1,0.0004792716767904907
1.955,0.0,77.51504697840599,0,90,3.0,1,0.00031024697744310895
1.96,0.0,77.50959665895905,0,90,3.0,1,0.0001978692568877236
1.965,0.0,77.50603025661913,0,90,3.0,1,0.00012433518802323334
1.97,0.0,77.50373333099382,0,90,3.0,1,7.697589677989236e-05
1.975,0.0,77.5022772051987,0,90,3.0,1,4.695268450917087e-05
1.98,0.0,77.50136852522381,0,90,3.0,1,2.821701492392741e-05
1.985,0.0,77.50081030480717,0,90,3.0,1,1.670731561184719e-05
1.99,0.0,77.50047270369095,0,90,3.0,1,9.74646785455183e-06
1.995,0.0,77.50027169055465,0,90,3.0,1,5.601867106287097e-06
2.0,0.0,77.50015385267672,0,90,3.0,1,3.172220138510253e-06
2.005,0.0,77.50008583818806,0,90,3.0,1,1.7698595475502367e-06
2.01,0.001684486749771458,77.50004718467801,0,90,3.0,1,9.728799589716687e-07
2.015,0.004172395771277602,77.50002555444298,0,90,3.0,1,5.268957316453339e-07
2.02,0.009438687428818865,77.50001363568033,0,90,3.0,1,2.811480480909971e-07
2.025,0.019500507867137046,77.5000071685641,0,90,3.0,1,1.478054452805155e-07
2.03,0.03679496976339974,77.50000371306459,0,90,3.0,1,7.655803271058944e-08
2.035,0.06340728953298436,77.50000189486295,0,90,3.0,1,3.906933912243328e-08
2.04,0.09979255396093453,77.50000095272611,0,90,3.0,1,1.9643837347138823e-08
2.045,0.14343835518453557,77.50000047195795,0,90,3.0,1,9.731091680449251e-09
2.05,0.18829581417209276,77.50000023034751,0,90,3.0,1,4.749433194952759e-09
2.055,0.2257481735193119,77.50000011076656,0,90,3.0,1,2.2838466787847602e-09
2.06,0.24718154073554727,77.50000005247819,0,90,3.0,1,1.082024440264147e-09
2.065,0.24718154074102772,77.50000002449593,0,90,3.0,1,5.050707710024747e-10
2.07,0.22574817354072055,77.5000000112656,0,90,3.0,1,2.322803759187119e-10
2.075,0.18829581422840957,77.50000000510457,0,90,3.0,1,1.0524881310123691e-10
2.08,0.14343835532456656,77.50000000227881,0,90,3.0,1,4.6985773805477274e-11
2.085,0.09979255431561854,77.50000000100232,0,90,3.0,1,2.0666391850982016e-11
2.09,0.06340729067170194,77.50000000043435,0,90,3.0,1,8.955768543714417e-12
2.095,0.03679497683410042,77.50000000018545,0,90,3.0,1,3.823745443987344e-12
2.1,0.019500578284482293,77.50000000007802,0,90,3.0,1,1.6086101522981237e-12
2.105,0.009439396781978427,77.50000000003233,0,90,3.0,1,6.665916387027744e-13
2.11,0.004178588733610924,77.5000000000132,0,90,3.0,1,2.7220379444170435e-13
2.115,0.0017299316936037381,77.50000000000531,0,90,3.0,1,1.0958473532959896e-13
2.12,0.0008997325756988589,77.5000000000021,0,90,3.0,1,4.336508242989477e-14
2.125,0.001634769674224814,77.50000000000082,0,90,3.0,1,1.6994424195499303e-14
2.13,0.00614904736476635,77.50000000000031,0,90,3.0,1,6.446160901741115e-15
2.135,0.02168080359963608,77.50000000000011,0,90,3.0,1,2.344058509724042e-15
2.14,0.06433400338904088,77.50000000000004,0,90,3.0,1,8.790219411465157e-16
2.145,0.1593410769217493,77.50000000000001,0,90,3.0,1,2.9300731371550523e-16
2.15,0.3291989194808569,77.5,0,90,3.0,1,0.0
2.155,0.5672906802982638,77.5,0,90,3.0,1,0.0
2.16,0.815339152120446,77.5,0,90,3.0,1,0.0
2.165,0.9768711246313155,77.50000284586159,1,90,3.0,1,5.8677558500516847e-08
2.17,0.9726380909165361,77.50000527961552,0,90,3.0,1,1.0885805199295553e-07
2.175,0.7921091683291741,77.50001031954956,0,90,3.0,1,2.1277421772716367e-07
2.18,0.49139090102639077,77.5000219076864,0,90,3.0,1,4.517048742836215e-07
2.185,0.15739335672107918,77.5000513062313,0,90,3.0,1,1.0578604391548184e-06
2.19,-0.11102342218909485,77.50013076005604,0,90,3.0,1,2.6960836296509407e-06
2.195,-0.2314207883647528,77.50035020381222,0,90,3.0,1,7.220697159130761e-06
2.2,-0.2029124434754801,77.50095018691317,0,90,3.0,1,1.9591482745824776e-05
2.205,-0.11151350554305876,77.50254252172627,0,90,3.0,1,5.242312837668747e-05
2.21,-0.039430666652076896,77.50659976740856,0,90,3.0,1,0.00013607767852699768
2.215,-0.006087703519843621,77.51646537881305,0,90,3.0,1,0.00033949234666087036
2.22,0.005350271385530551,77.53928253215116,0,90,3.0,1,0.00080994911651881
2.225,0.010381647827441833,77.58937615985101,0,90,3.0,1,0.0018428074196085336
2.23,0.015115203303506243,77.69363594416527,0,90,3.0,1,0.003992493694129186
2.235,0.021170964062928475,77.89914273187748,0,90,3.0,1,0.008229747049020112
2.24,0.029082821134029553,78.28242166935907,0,90,3.0,1,0.016132405553795196
2.245,0.03923107061708144,78.95815265228912,0,90,3.0,1,0.03006500313998176
2.25,0.051969043308817596,80.08310908029944,0,90,3.0,1,0.05325998103710179
2.255,0.06760532616283861,81.84927459141106,0,90,3.0,1,0.08967576477136206
2.26,0.08636519236693461,84.45983730743244,0,90,3.0,1,0.14350180015324612
2.265,0.10834733138818661,88.08459313200352,0,90,3.0,1,0.2182390336495571
2.27,0.1334809643017884,92.79797719482352,0,90,3.0,1,0.31542221020254674
2.275,0.16148868344343945,98.51242125918112,0,90,3.0,1,0.4332457991583737
2.28,0.191860907532018,104.92855626497301,0,90,3.0,1,0.5655372425767631
2.285,0.22384764873847726,111.52691835651606,0,90,3.0,1,0.7015859454951766
2.29,0.25647215537198226,117.61903404505797,0,90,3.0,1,0.827196578248618
2.295,0.2885689161419028,122.45858606973496,0,90,3.0,1,0.9269811560770096
2.3,0.31884566517832524,125.39083977274626,0,90,3.0,1,0.9874399953143559
2.305,0.3459657668955683,126.0,0,90,3.0,1,1.0
2.31,0.3686441789190902,124.20909158519541,0,90,3.0,1,0.9630740533029981
2.315,0.3857476379544367,120.29953639901376,0,90,3.0,1,0.8824646680209023
2.32,0.3963882865005728,114.84382327361675,0,90,3.0,1,0.7699757376003453
2.325,0.4,108.57369951396845,0,90,3.0,1,0.6406948353395556
2.33,0.39638828650057273,102.2258821880279,0,90,3.0,1,0.5098120038768639
2.335,0.38574763795443656,96.40992335364712,0,90,3.0,1,0.389895326879322
2.34,0.36864417891908974,91.52930221937348,0,90,3.0,1,0.2892639632860511
2.345,0.345965766895568,87.76478426184879,0,90,3.0,1,0.21164503632677914
2.35,0.3188456651783249,85.10862158827653,0,90,3.0,1,0.15687879563456772
2.355,0.28856891614190205,83.42656336784474,0,90,3.0,1,0.1221971828421595
2.36,0.2564721553719815,82.52378753042284,0,90,3.0,1,0.1035832480499554
2.365,0.22384764873847685,82.19783132916163,0,90,3.0,1,0.09686250163219856
2.37,0.19186090753201765,82.27134594925722,0,90,3.0,1,0.09837826699499432
2.375,0.16148868344343878,82.60568848479885,0,90,3.0,1,0.10527192752162572
2.38,0.1334809643017881,83.10088201483204,0,90,3.0,1,0.11548210339859873
2.385,0.10834733138818531,83.68840901871987,0,90,3.0,1,0.12759606224164674
2.39,0.08636519236690572,84.32197791292448,0,90,3.0,1,0.14065933841081404
2.395,0.06760532616242629,84.96931088968523,0,90,3.0,1,0.15400641009660274
2.4,0.05196904332202373,85.60616534397113,0,90,3.0,1,0.16713742977260057
2.405,0.03923107185803287,86.21263167382902,0,90,3.0,1,0.1796418901820417
2.41,0.02908287038705761,86.77121984433278,0,90,3.0,2,0.19115917204809849
2.415,0.02117220077308346,87.26614028210291,0,90,3.0,2,0.20136371715676102
2.42,0.0151361834125735,87.68327944307798,0,90,3.0,2,0.20996452459954595
2.425,0.010626454858290009,88.01051741167255,0,90,3.0,2,0.21671169920974334
2.43,0.007326255555493652,88.23816273562356,0,90,3.0,2,0.22140541722935178
2.435,0.004960179211183015,88.35936913531009,0,90,3.0,2,0.22390451825381627
2.44,0.0032978759379303545,88.3704549759066,0,90,3.0,2,0.22413309228673395
2.445,0.002153242296767213,88.27108106749418,0,90,3.0,2,0.22208414572152949
2.45,0.001380616732225004,88.06426526041847,0,90,3.0,2,0.2178199022766694
2.455,0.0008693106590991584,87.75622938752784,0,90,3.0,2,0.21146864716552244
2.46,0.000537524815942247,87.35608811985259,0,90,3.0,2,0.20321831174953786
2.465,0.0003263951340288585,86.87540102954962,0,90,3.0,2,0.1933072377226726
2.47,0.00019463030985187395,86.32761843902698,0,90,3.0,2,0.18201275132014386
2.475,0.00011397219555062695,85.72745804544682,0,90,3.0,2,0.16963831021539844
2.48,6.55403863487943e-05,85.09025249472462,0,90,3.0,2,0.1565000514376211
2.485,3.701184389455385e-05,84.43130793834682,0,90,3.0,2,0.14291356573910968
2.49,2.0525516217290957e-05,83.7653103417945,0,90,3.0,2,0.12918165653184543
2.495,1.1178128483661116e-05,83.10581041043784,0,90,3.0,2,0.11558371980284206
2.5,5.978135409912517e-06,82.46481016288601,0,90,3.0,2,0.1023672198533198
2.505,3.1396702713238487e-06,81.85246524967621,0,90,3.0,2,0.08974155153971576
2.51,1.6192875458531019e-06,81.276907956434,0,90,3.0,2,0.07787439085430932
2.515,8.201353897972012e-07,80.74418725350604,0,90,3.0,2,0.06689045883517611
2.52,4.0791415086824765e-07,80.25831492720756,0,90,3.0,2,0.056872472725929164
2.525,1.9923866938774793e-07,79.82140122596148,0,90,3.0,2,0.04786394280332949
2.53,9.556527981051257e-08,79.43385983225944,0,90,3.0,2,0.039873398603287494
2.535,4.501406988770349e-08,79.09466036456183,0,90,3.0,2,0.03287959514560479
2.54,0.0,78.80160686539986,0,90,3.0,2,0.026837254956698177
2.545,0.0,78.55162253760456,0,90,3.0,2,0.021682938919681614
2.55,0.0,78.34102394918298,0,90,3.0,2,0.017340699983154285
2.555,0.0,78.16577159895577,0,90,3.0,2,0.0137272494630056
2.56,0.0,78.02168769123986,0,90,3.0,2,0.010756447242059007
2.565,0.0,77.90463583247852,0,90,3.0,2,0.008343006855227193
2.57,0.0,77.81066083961933,0,90,3.0,2,0.006405378136481049
2.575,0.0,77.73608973677702,0,90,3.0,2,0.004867829624268409
2.58,0.0,77.67759720552577,0,90,3.0,2,0.003661798052077754
2.585,0.0,77.63224022257143,0,90,3.0,2,0.0027266025272458896
2.59,0.0,77.59746741293033,0,90,3.0,2,0.0020096373800067655
2.595,0.0,77.57110886220912,0,90,3.0,2,0.001466162107404441
2.6,0.0,77.55135189140306,0,90,3.0,2,0.0010588018845991423
2.605,0.0,77.53670773455,0,90,3.0,2,0.0007568605061856994
2.61,0.0,77.52597330075044,0,90,3.0,2,0.0005355319742358057
2.615,0.0,77.51819135838316,0,90,3.0,2,0.00037507955429202044
2.62,0.0,77.51261163923783,0,90,3.0,2,0.00026003379871818866
2.625,0.0,77.50865458747553,0,90,3.0,2,0.00017844510258831027
2.63,0.0,77.50587881276304,0,90,3.0,2,0.00012121263428955844
2.635,0.0,77.5039527678497,0,90,3.0,2,8.150036803498289e-05
2.64,0.0,77.5026307611049,0,90,3.0,2,5.424249700817218e-05
2.645,0.0,77.50173312521085,0,90,3.0,2,3.5734540429848964e-05
2.65,0.0,77.50113017810872,0,90,3.0,2,2.3302641416991072e-05
2.655,0.0,77.50072951170684,0,90,3.0,2,1.5041478491477542e-05
2.66,0.0,77.50046610747096,0,90,3.0,2,9.610463318680203e-06
2.665,0.0,77.50029478697198,0,90,3.0,2,6.078081896445378e-06
2.67,0.0,77.50018454357595,0,90,3.0,2,3.805022184636626e-06
2.675,0.0,77.5001143557486,0,90,3.0,2,2.357850486457688e-06
2.68,0.0,77.50007014318696,0,90,3.0,2,1.446251277527444e-06
2.685,0.0,77.50004258742786,0,90,3.0,2,8.780912960048095e-07
2.69,0.0,77.50002559444704,0,90,3.0,2,5.277205574886991e-07
2.695,0.0,77.50001522574371,0,90,3.0,2,3.139328599872053e-07
2.7,0.0,77.5000089656071,0,90,3.0,2,1.8485787822822944e-07
2.705,0.0,77.50000522575824,0,90,3.0,2,1.0774759265793186e-07
2.71,0.0,77.50000301500023,0,90,3.0,2,6.21649532309e-08
2.715,0.001684486749771458,77.50000172184403,0,90,3.0,2,3.5501938745040105e-08
2.72,0.004172395771277602,77.50000097334923,0,90,3.0,2,2.0069056299970978e-08
2.725,0.009438687428818865,77.50000054464309,0,90,3.0,2,1.1229754354363397e-08
2.73,0.019500507867137046,77.50000030166417,0,90,3.0,2,6.219879850570728e-09
2.735,0.03679496976339974,77.50000016538796,0,90,3.0,2,3.410061017066911e-09
2.74,0.06340728953298436,77.50000008975371,0,90,3.0,2,1.850592000373956e-09
2.745,0.09979255396093453,77.5000000482136,0,90,3.0,2,9.940947034620061e-10
2.75,0.14343835518453557,77.50000002563627,0,90,3.0,2,5.285828498842617e-10
2.755,0.18829581417209276,77.50000001349301,0,90,3.0,2,2.782063422704802e-10
2.76,0.2257481735193119,77.50000000702961,0,90,3.0,2,1.449404628390804e-10
2.765,0.24718154073554727,77.50000000362512,0,90,3.0,2,7.474470069225681e-11
2.77,0.24718154074102772,77.50000000185047,0,90,3.0,2,3.8153947355464515e-11
2.775,0.22574817354072055,77.50000000093499,0,90,3.0,2,1.927812319859795e-11
2.78,0.18829581422840957,77.50000000046764,0,90,3.0,2,9.641991672436131e-12
2.785,0.14343835532456656,77.50000000023151,0,90,3.0,2,4.773382147739296e-12
2.79,0.09979255431561854,77.50000000011345,0,90,3.0,2,2.3390773853908783e-12
2.795,0.06340729067170194,77.50000000005502,0,90,3.0,2,1.1345243187064363e-12
2.8,0.03679497683410042,77.50000000002642,0,90,3.0,2,5.447005961971242e-13
2.805,0.019500578284482293,77.50000000001256,0,90,3.0,2,2.590184653245066e-13
2.81,0.009439396781978427,77.50000000000591,0,90,3.0,2,1.2189104250565017e-13
2.815,0.004178588733610924,77.50000000000276,0,90,3.0,2,5.684341886080802e-14
2.82,0.0017299316936037381,77.50000000000126,0,90,3.0,2,2.6077650920679964e-14
2.825,0.0008997325756988589,77.50000000000058,0,90,3.0,2,1.2013299862335714e-14
2.83,0.001634769674224814,77.50000000000026,0,90,3.0,2,5.274131646879094e-15
2.835,0.00614904736476635,77.50000000000011,0,90,3.0,2,2.344058509724042e-15
2.84,0.02168080359963608,77.50000000000006,0,90,3.0,2,1.172029254862021e-15
2.845,0.06433400338904088,77.50000000000003,0,90,3.0,2,5.860146274310105e-16
2.85,0.1593410769217493,77.50000000000001,0,90,3.0,2,2.9300731371550523e-16
2.855,0.3291989194808569,77.5,0,90,3.0,2,0.0
2.86,0.5672906802982638,77.5,0,90,3.0,2,0.0
2.865,0.815339152120446,77.5,0,90,3.0,2,0.0
2.87,0.9768711246313155,77.50000285066528,1,90,3.0,2,5.8776603762772095e-08
2.875,0.9726380909165361,77.50000533774794,0,90,3.0,2,1.1005665847620811e-07
2.88,0.7921091683291741,77.50001055134113,0,90,3.0,2,2.1755342544631426e-07
2.885,0.49139090102639077,77.50002272509559,0,90,3.0,2,4.685586719629616e-07
2.89,0.15739335672107918,77.50005414678377,0,90,3.0,2,1.1164285312949602e-06
2.895,-0.11102342218909485,77.500140505292,0,90,3.0,2,2.8970163297926024e-06
2.9,-0.2314207883647528,77.50038258369432,0,90,3.0,2,7.888323594182947e-06
2.905,-0.2029124434754801,77.5010527695429,0,90,3.0,2,2.1706588513294712e-05
2.91,-0.11151350554305876,77.50284972513398,0,90,3.0,2,5.875721925740811e-05
2.915,-0.039430666652076896,77.50746597756105,0,90,3.0,2,0.00015393768167121978
2.92,-0.006087703519843621,77.51876169890194,0,90,3.0,2,0.0003868391526173268
2.925,0.005350271385530551,77.54500396355465,0,90,3.0,2,0.000927916774322657
2.93,0.010381647827441833,77.60277510805538,0,90,3.0,2,0.0021190743928944885
2.935,0.015115203303506243,77.72313394409493,0,90,3.0,2,0.004600699878245889
2.94,0.021170964062928475,77.96019364845812,0,90,3.0,2,0.009488528834187958
2.945,0.029082821134029553,78.40119339193035,0,90,3.0,2,0.018581307050110282
2.95,0.03923107061708144,79.17526941030879,0,90,3.0,2,0.034541637325954354
2.955,0.051969043308817596,80.45579048450003,0,90,3.0,2,0.06094413370103151
2.96,0.06760532616283861,82.44931195947832,0,90,3.0,2,0.10204766926759427
2.965,0.08636519236693461,85.36455622127653,0,90,3.0,2,0.16215579837683566
2.97,0.10834733138818661,89.35900055276574,0,90,3.0,2,0.24451547531475742
2.975,0.1334809643017884,94.46913761169944,0,90,3.0,2,0.3498791260144214
2.98,0.16148868344343945,100.54136540845477,0,90,3.0,2,0.47507969914339726
2.985,0.191860907532018,107.18914743882308,0,90,3.0,2,0.612147369872641
2.99,0.22384764873847726,113.8027021799891,0,90,3.0,2,0.7485093232987443
2.995,0.25647215537198226,119.62609966806052,0,90,3.0,2,0.868579374599186
3.0,0.2885689161419028,123.89459021136328,0,90,3.0,2,0.9565894888940882
3.005,0.31884566517832524,126.0,0,90,3.0,2,1.0
3.01,0.3459657668955683,125.63555232071732,0,90,3.0,2,0.992485614860151
3.015,0.3686441789190902,122.8728829839707,0,90,3.0,2,0.9355233604942412
3.02,0.3857476379544367,118.14488894980822,0,90,3.0,2,0.8380389474187262
3.025,0.3963882865005728,112.14032116465883,0,90,3.0,2,0.7142334260754398
3.03,0.4,105.64571806451514,0,90,3.0,2,0.5803240838044358
3.035,0.39638828650057273,99.38474665898676,0,90,3.0,2,0.4512318898760156
3.04,0.38574763795443656,93.89946334087666,0,90,3.0,2,0.3381332647603436
3.045,0.36864417891908974,89.49722210145336,0,90,3.0,2,0.24736540415367753
3.05,0.345965766895568,86.26179009897115,0,90,3.0,2,0.18065546595816798
3.055,0.3188456651783249,84.10837075711324,0,90,3.0,2,0.1362550671569739
3.06,0.28856891614190205,82.85525798893129,0,90,3.0,2,0.11041769049342856
3.065,0.2564721553719815,82.28893368935184,0,90,3.0,2,0.09874090081137807
3.07,0.22384764873847685,82.20954302821511,0,90,3.0,2,0.09710397996319811
3.075,0.19186090753201765,82.45412614899202,0,90,3.0,2,0.1021469309070519
3.08,0.16148868344343878,82.9020248457851,0,90,3.0,2,0.11138195558319808
3.085,0.1334809643017881,83.46956389310165,0,90,3.0,2,0.1230837916103433
3.09,0.10834733138818531,84.1004855952502,0,90,3.0,2,0.13609248650000424
3.095,0.08636519236690572,84.75645137662403,0,90,3.0,2,0.14961755415719646
3.1,0.06760532616242629,85.40966434514888,0,90,3.0,2,0.16308586278657491
3.105,0.05196904332202373,86.0380544133898,0,90,3.0,2,0.17604235903896498
3.11,0.03923107185803287,86.62263152761466,0,90,3.0,2,0.18809549541473522
3.115,0.02908287038705761,87.14635512742458,0,90,3.0,2,0.1988939201530842
3.12,0.02117220077308346,87.59392038235315,0,90,3.0,2,0.20812206973924013
3.125,0.0151361834125735,87.95201971947535,0,90,3.0,2,0.21550556122629577
3.13,0.010626454858290009,88.20979239540345,0,90,3.0,2,0.22082046176089595
3.135,0.007326255555493652,88.35928803931012,0,90,3.0,2,0.2239028461713426
3.14,0.004960179211183015,88.3958424677883,0,90,3.0,2,0.22465654572759378
3.145,0.0032978759379303545,88.31830826653777,0,90,3.0,2,0.22305790240284062
3.15,0.002153242296767213,88.12911092076266,0,90,3.0,2,0.21915692620129187
3.155,0.001380616732225004,87.83412164429782,0,90,3.0,2,0.21307467307830563
3.16,0.0008693106590991584,87.44235443924178,0,90,3.0,2,0.20499699874725325
3.165,0.000537524815942247,86.96550861191454,0,90,3.0,2,0.19516512601885658
3.17,0.0003263951340288585,86.41738895346812,0,90,3.0,2,0.18386368976222928
3.175,0.00019463030985187395,85.81324358973214,0,90,3.0,2,0.171407084324374
3.18,0.00011397219555062695,85.16906367666229,0,90,3.0,2,0.15812502426107813
3.185,6.55403863487943e-05,84.5008894969962,0,90,3.0,2,0.14434823705146793
3.19,3.701184389455385e-05,83.82416428298873,0,90,3.0,2,0.1303951398554378
3.195,2.0525516217290957e-05,83.15317077049401,0,90,3.0,2,0.11656022207204154
3.2,1.1178128483661116e-05,82.50057687127921,0,90,3.0,2,0.10310467775833418
3.205,5.978135409912517e-06,81.8771068894783,0,90,3.0,2,0.09024962658718141
3.21,3.1396702713238487e-06,81.29134441020258,0,90,3.0,2,0.07817204969489863
3.215,1.6192875458531019e-06,80.74966329577829,0,90,3.0,2,0.06700336692326372
3.22,8.201353897972012e-07,80.25627492189922,0,90,3.0,2,0.05683041076080865
3.225,4.0791415086824765e-07,79.81337343151264,0,90,3.0,2,0.04769842126830195
3.23,1.9923866938774793e-07,79.42135668043277,0,90,3.0,2,0.03961560165840754
3.235,9.556527981051257e-08,79.07909874103451,0,90,3.0,2,0.032558736928546675
3.24,4.501406988770349e-08,78.78425013843707,0,90,3.0,2,0.026479384297671618
3.245,0.0,78.5335440627456,0,90,3.0,2,0.021310186860734128
3.25,0.0,78.32309016640502,0,90,3.0,2,0.016970931266082963
3.255,0.0,78.14864170879353,0,90,3.0,2,0.013374055851413066
3.26,0.0,78.00582625821215,0,90,3.0,2,0.010429407385817584
3.265,0.0,77.89033447553675,0,90,3.0,2,0.008048133516221589
3.27,0.0,77.79806535061086,0,90,3.0,2,0.006145677332182583
3.275,0.0,77.72522941908457,0,90,3.0,2,0.0046439055481354696
3.28,0.0,77.66841384122971,0,90,3.0,2,0.0034724503346331417
3.285,0.0,77.62461476063879,0,90,3.0,2,0.0025693765080163334
3.29,0.0,77.59124314265756,0,90,3.0,2,0.001881301910465172
3.295,0.0,77.5661104364004,0,90,3.0,2,0.0013631017814514075
3.3,0.0,77.54740005593854,0,90,3.0,2,0.0009773207410008
3.305,0.0,77.53362998903987,0,90,3.0,2,0.0006934018358735332
3.31,0.0,77.52361095963337,0,90,3.0,2,0.00048682390996646063
3.315,0.0,77.51640361595736,0,90,3.0,2,0.00033821888571872985
3.32,0.0,77.51127728584574,0,90,3.0,2,0.00023252135764404482
3.325,0.0,77.50767200055635,0,90,3.0,2,0.0001581855784815344
3.33,0.0,77.50516477853803,0,90,3.0,2,0.00010649027913466187
3.335,0.0,77.503440597138,0,90,3.0,2,7.094014717516253e-05
3.34,0.0,77.5022680623265,0,90,3.0,2,4.676417168027292e-05
3.345,0.0,77.50147950074185,0,90,3.0,2,3.0505169935078867e-05
3.35,0.0,77.50095502431975,0,90,3.0,2,1.9691223087647813e-05
3.355,0.0,77.50061003213925,0,90,3.0,2,1.2577982252566668e-05
3.36,0.0,77.50038559380044,0,90,3.0,2,7.95038763803906e-06
3.365,0.0,77.50024118284321,0,90,3.0,2,4.9728421280745995e-06
3.37,0.0,77.50014928006648,0,90,3.0,2,3.0779395150644987e-06
3.375,0.0,77.50009143158961,0,90,3.0,2,1.8851874146323622e-06
3.38,0.0,77.50005541530939,0,90,3.0,2,1.1425836987655202e-06
3.385,0.0,77.50003323550604,0,90,3.0,2,6.852681657310126e-07
3.39,0.0,77.50001972485731,0,90,3.0,2,4.06698088869403e-07
3.395,0.0,77.50001158415837,0,90,3.0,2,2.3884862622891006e-07
3.4,0.0,77.50000673215557,0,90,3.0,2,1.388073313198229e-07
3.405,0.0,77.5000038715319,0,90,3.0,2,7.982540004489884e-08
3.41,0.001684486749771458,77.50000220318306,0,90,3.0,2,4.542645480852894e-08
3.415,0.004172395771277602,77.5000012406731,0,90,3.0,2,2.5580888665065207e-08
3.42,0.009438687428818865,77.50000069135831,0,90,3.0,2,1.4254810500376349e-08
3.425,0.019500507867137046,77.50000038123086,0,90,3.0,2,7.860430144122352e-09
3.43,0.03679496976339974,77.50000020802328,0,90,3.0,2,4.289139801632287e-09
3.435,0.06340728953298436,77.5000001123246,0,90,3.0,2,2.315971121638587e-09
3.44,0.09979255396093453,77.50000006001736,0,90,3.0,2,1.237471266351124e-09
3.445,0.14343835518453557,77.50000003173349,0,90,3.0,2,6.542988098631541e-10
3.45,0.18829581417209276,77.50000001660344,0,90,3.0,2,3.4233890407458886e-10
3.455,0.2257481735193119,77.50000000859642,0,90,3.0,2,1.772456912054697e-10
3.46,0.24718154073554727,77.50000000440428,0,90,3.0,2,9.080999869596425e-11
3.465,0.24718154074102772,77.50000000223291,0,90,3.0,2,4.603936018217619e-11
3.47,0.22574817354072055,77.50000000112023,0,90,3.0,2,2.3097473532879562e-11
3.475,0.18829581422840957,77.50000000055614,0,90,3.0,2,1.1466841222256297e-11
3.48,0.14343835532456656,77.5000000002732,0,90,3.0,2,5.633065606180588e-12
3.485,0.09979255431561854,77.50000000013281,0,90,3.0,2,2.738446353985112e-12
3.49,0.06340729067170194,77.50000000006389,0,90,3.0,2,1.3173608824649115e-12
3.495,0.03679497683410042,77.50000000003041,0,90,3.0,2,6.270356513511812e-13
3.5,0.019500578284482293,77.50000000001432,0,90,3.0,2,2.953513722252293e-13
3.505,0.009439396781978427,77.50000000000668,0,90,3.0,2,1.3771343744628745e-13
3.51,0.004178588733610924,77.50000000000308,0,90,3.0,2,6.358258707626464e-14
3.515,0.0017299316936037381,77.5000000000014,0,90,3.0,2,2.9007724057835016e-14
3.52,0.0008997325756988589,77.50000000000064,0,90,3.0,2,1.3185329117197736e-14
3.525,0.001634769674224814,77.50000000000028,0,90,3.0,2,5.860146274310104e-15
3.53,0.00614904736476635,77.50000000000013,0,90,3.0,2,2.637065823439547e-15
3.535,0.02168080359963608,77.50000000000006,0,90,3.0,2,1.172029254862021e-15
3.54,0.06433400338904088,77.50000000000003,0,90,3.0,2,5.860146274310105e-16
3.545,0.1593410769217493,77.50000000000001,0,90,3.0,2,2.9300731371550523e-16
3.55,0.3291989194808569,77.5,0,90,3.0,2,0.0
3.555,0.5672906802982638,77.5,0,90,3.0,2,0.0
3.56,0.815339152120446,77.5,0,90,3.0,2,0.0
3.565,0.9768711246313155,77.50000285328441,1,90,3.0,2,5.883060647572643e-08
3.57,0.9726380909165361,77.50000562140409,0,90,3.0,2,1.1590523887282392e-07
3.575,0.7921091683291741,77.50001183073464,0,90,3.0,2,2.4393267289710397e-07
3.58,0.49139090102639077,77.50002762917026,0,90,3.0,2,5.696736136471992e-07
3.585,0.15739335672107918,77.50007245443882,0,90,3.0,2,1.4939059550923367e-06
3.59,-0.11102342218909485,77.50020725996767,0,90,3.0,2,4.273401395187075e-06
3.595,-0.2314207883647528,77.50061582704151,0,90,3.0,2,1.269746477348854e-05
3.6,-0.2029124434754801,77.50182248868452,0,90,3.0,2,3.757708627885804e-05
3.605,-0.11151350554305876,77.5052310715901,0,90,3.0,2,0.00010785714618768954
3.61,-0.039430666652076896,77.51435172175279,0,90,3.0,2,0.0002959117887172917
3.615,-0.006087703519843621,77.53735285072946,0,90,3.0,3,0.0007701618707105621
3.62,0.005350271385530551,77.5918691803079,0,90,3.0,3,0.0018942099032555814
3.625,0.010381647827441833,77.71309481986977,0,90,3.0,3,0.004393707626180756
3.63,0.015115203303506243,77.96566482587883,0,90,3.0,3,0.009601336616058397
3.635,0.021170964062928475,78.45812550344493,0,90,3.0,3,0.01975516501948315
3.64,0.029082821134029553,79.35558674678168,0,90,3.0,3,0.03825952055219964
3.645,0.03923107061708144,80.88198151748664,0,90,3.0,3,0.06973157768013682
3.65,0.051969043308817596,83.30025257051231,0,90,3.0,3,0.11959283650540853
3.655,0.06760532616283861,86.86014114836432,0,90,3.0,3,0.19299260099720247
3.66,0.08636519236693461,91.71228864363101,0,90,3.0,3,0.29303687925012395
3.665,0.10834733138818661,97.80423612993579,0,90,3.0,3,0.4186440439162018
3.67,0.1334809643017884,104.79307462662686,0,90,3.0,3,0.5627438067345745
3.675,0.16148868344343945,112.02004978372179,0,90,3.0,3,0.7117536037880781
3.68,0.191860907532018,118.58316466468419,0,90,3.0,3,0.8470755600965812
3.685,0.22384764873847726,123.51148828718976,0,90,3.0,3,0.9486904801482425
3.69,0.25647215537198226,126.0,0,90,3.0,3,1.0
3.695,0.2885689161419028,125.62830221298329,0,90,3.0,3,0.9923361281027482
3.7,0.31884566517832524,122.48203243932362,0,90,3.0,3,0.9274645863778066
3.705,0.3459657668955683,117.12925074937131,0,90,3.0,3,0.8170979535952847
3.71,0.3686441789190902,110.46116941721593,0,90,3.0,3,0.6796117405611531
3.715,0.3857476379544367,103.45897551850818,0,90,3.0,3,0.5352366086290347
3.72,0.3963882865005728,96.97065636772538,0,90,3.0,3,0.4014568323242347
3.725,0.4,91.56589466519785,0,90,3.0,3,0.29001844670511023
3.73,0.39638828650057273,87.49604796974954,0,90,3.0,3,0.206104081850506
3.735,0.38574763795443656,84.74329427423734,0,90,3.0,3,0.14934627369561532
3.74,0.36864417891908974,83.11746244254847,0,90,3.0,3,0.11582396788759737
3.745,0.345965766895568,82.3568848664176,0,90,3.0,3,0.10014195600861034
3.75,0.3188456651783249,82.20419486948393,0,90,3.0,3,0.09699370864915315
3.755,0.28856891614190205,82.4474226772088,0,90,3.0,3,0.102008714993996
3.76,0.2564721553719815,82.93146838815557,0,90,3.0,3,0.11198903893104258
3.765,0.22384764873847685,83.55144100802794,0,90,3.0,3,0.12477197954696775
3.77,0.19186090753201765,84.23890517799641,0,90,3.0,3,0.13894649851539
3.775,0.16148868344343878,84.94831218827366,0,90,3.0,3,0.15357344718090024
3.78,0.1334809643017881,85.64686744660881,0,90,3.0,3,0.16797664838368678
3.785,0.10834733138818531,86.30832747591782,0,90,3.0,3,0.18161499950346022
3.79,0.08636519236690572,86.90992131114385,0,90,3.0,3,0.19401899610605872
3.795,0.06760532616242629,87.43130093518502,0,90,3.0,3,0.20476909144711383
3.8,0.05196904332202373,87.85460739278714,0,90,3.0,3,0.21349705964509577
3.805,0.03923107185803287,88.16503318602679,0,90,3.0,3,0.21989759146446988
3.81,0.02908287038705761,88.35150634707973,0,90,3.0,3,0.2237423989088605
3.815,0.02117220077308346,88.40728293523891,0,90,3.0,3,0.22489243165441053
3.82,0.0151361834125735,88.33033092317498,0,90,3.0,3,0.22330579223041203
3.825,0.010626454858290009,88.12344658788109,0,90,3.0,3,0.21904013583259982
3.83,0.007326255555493652,87.79408397232552,0,90,3.0,3,0.2122491540685675
3.835,0.004960179211183015,87.35390857822988,0,90,3.0,3,0.20317337274700778
3.84,0.0032978759379303545,86.81811153597118,0,90,3.0,3,0.19212601105095226
3.845,0.002153242296767213,86.20454017631614,0,90,3.0,3,0.17947505518177614
3.85,0.001380616732225004,85.5327142396845,0,90,3.0,3,0.1656229740141133
3.855,0.0008693106590991584,84.82280306012088,0,90,3.0,3,0.15098563010558508
3.86,0.000537524815942247,84.09463776038064,0,90,3.0,3,0.13597191258516775
3.865,0.0003263951340288585,83.36682439710084,0,90,3.0,3,0.1209654514866153
3.87,0.00019463030985187395,82.65601043153745,0,90,3.0,3,0.10630949343376192
3.875,0.00011397219555062695,81.97633972309383,0,90,3.0,3,0.09229566439368721
3.88,6.55403863487943e-05,81.33911255053565,0,90,3.0,3,0.07915695980485868
3.885,3.701184389455385e-05,80.75264902476607,0,90,3.0,3,0.0670649283456922
3.89,2.0525516217290957e-05,80.22233844465784,0,90,3.0,3,0.05613068958057395
3.895,1.1178128483661116e-05,79.75084496649728,0,90,3.0,3,0.04640917456695429
3.9,5.978135409912517e-06,79.33843213578254,0,90,3.0,3,0.03790581723262969
3.905,3.1396702713238487e-06,78.9833655092204,0,90,3.0,3,0.030584855860214546
3.91,1.6192875458531019e-06,78.682353399043,0,90,3.0,3,0.02437842059882464
3.915,8.201353897972012e-07,78.43098993416538,0,90,3.0,3,0.019195668745677973
3.92,4.0791415086824765e-07,78.22417115200214,0,90,3.0,3,0.014931363958807063
3.925,1.9923866938774793e-07,78.05646263625866,0,90,3.0,3,0.011473456417704288
3.93,9.556527981051257e-08,77.92240529264143,0,90,3.0,3,0.008709387477142862
3.935,4.501406988770349e-08,77.81675337219069,0,90,3.0,3,0.006530997364756479
3.94,0.0,77.73464521201578,0,90,3.0,3,0.004838045608572738
3.945,0.0,77.6717120211314,0,90,3.0,3,0.0035404540439463563
3.95,0.0,77.62413328746686,0,90,3.0,3,0.002559449226120855
3.955,0.0,77.58864910755129,0,90,3.0,3,0.0018278166505420771
3.96,0.0,77.56254016636984,0,90,3.0,3,0.0012894879663885074
3.965,0.0,77.54358552186387,0,90,3.0,3,0.0008986705538943297
3.97,0.0,77.53000709975734,0,90,3.0,3,0.0006187030877802349
3.975,0.0,77.52040818335705,0,90,3.0,3,0.00042078728571233844
3.98,0.0,77.51371144502332,0,90,3.0,3,0.00028271020666635973
3.985,0.0,77.50910040372447,0,90,3.0,3,0.00018763719019534853
3.99,0.0,77.50596673357165,0,90,3.0,3,0.00012302543446709286
3.995,0.0,77.5038646590576,0,90,3.0,3,7.968369190923545e-05
4.0,0.0,77.50247277317126,0,90,3.0,3,5.098501384047511e-05
4.005,0.0,77.50156298902219,0,90,3.0,3,3.222657777711771e-05
4.01,0.0,77.50097594676535,0,90,3.0,3,2.0122613718576384e-05
4.015,0.0,77.50060199777202,0,90,3.0,3,1.2412325196347533e-05
4.02,0.0,77.50036682775895,0,90,3.0,3,7.563458947475906e-06
4.025,0.0,77.50022081473722,0,90,3.0,3,4.552881179766775e-06
4.03,0.0,77.50013130838836,0,90,3.0,3,2.707389450754996e-06
4.035,0.0,77.50007713570277,0,90,3.0,3,1.5904268611824797e-06
4.04,0.0,77.50004476277108,0,90,3.0,3,9.229437336633748e-07
4.045,0.0,77.5000256612047,0,90,3.0,3,5.290970041749967e-07
4.05,0.0,77.50001453234408,0,90,3.0,3,2.996359604512503e-07
4.055,0.001684486749771458,77.50000813004326,0,90,3.0,3,1.6762975784547157e-07
4.06,0.004172395771277602,77.50000449312597,0,90,3.0,3,9.264177259462213e-08
4.065,0.009438687428818865,77.50000245303015,0,90,3.0,3,5.057794121207688e-08
4.07,0.019500507867137046,77.50000132298747,0,90,3.0,3,2.7278092215731037e-08
4.075,0.03679496976339974,77.50000070486692,0,90,3.0,3,1.4533338564677289e-08
4.08,0.06340728953298436,77.50000037098563,0,90,3.0,3,7.64918827934304e-09
4.085,0.09979255396093453,77.50000019288817,0,90,3.0,3,3.97707558524004e-09
4.09,0.14343835518453557,77.5000000990724,0,90,3.0,3,2.042729788299016e-09
4.095,0.18829581417209276,77.50000005026877,0,90,3.0,3,1.0364694211715425e-09
4.1,0.2257481735193119,77.50000002519663,0,90,3.0,3,5.195180826198451e-10
4.105,0.24718154073554727,77.50000001247628,0,90,3.0,3,2.572428410033907e-10
4.11,0.24718154074102772,77.50000000610277,0,90,3.0,3,1.2583023283124142e-10
4.115,0.22574817354072055,77.50000000294894,0,90,3.0,3,6.080282669104563e-11
4.12,0.18829581422840957,77.50000000140768,0,90,3.0,3,2.90244254747168e-11
4.125,0.14343835532456656,77.5000000006638,0,90,3.0,3,1.3686664630964965e-11
4.13,0.09979255431561854,77.50000000030923,0,90,3.0,3,6.375839146449394e-12
4.135,0.06340729067170194,77.50000000014231,0,90,3.0,3,2.9341752395470693e-12
4.14,0.03679497683410042,77.50000000006469,0,90,3.0,3,1.3337692920329797e-12
4.145,0.019500578284482293,77.50000000002905,0,90,3.0,3,5.989069492344927e-13
4.15,0.009439396781978427,77.50000000001289,0,90,3.0,3,2.6575763353996326e-13
4.155,0.004178588733610924,77.50000000000564,0,90,3.0,3,1.1632390354505557e-13
4.16,0.0017299316936037381,77.50000000000244,0,90,3.0,3,5.03972579590669e-14
4.165,0.0008997325756988589,77.50000000000105,0,90,3.0,3,2.1682541214947386e-14
4.17,0.001634769674224814,77.50000000000044,0,90,3.0,3,9.083226725180661e-15
4.175,0.00614904736476635,77.50000000000018,0,90,3.0,3,3.809095078301568e-15
4.18,0.02168080359963608,77.50000000000007,0,90,3.0,3,1.465036568577526e-15
4.185,0.06433400338904088,77.50000000000003,0,90,3.0,3,5.860146274310105e-16
4.19,0.1593410769217493,77.50000000000001,0,90,3.0,3,2.9300731371550523e-16
4.195,0.3291989194808569,77.5,0,90,3.0,3,0.0
4.2,0.5672906802982638,77.5,0,90,3.0,3,0.0
4.205,0.815339152120446,77.5,0,90,3.0,3,0.0
4.21,0.9768711246313155,77.50000284322633,1,90,3.0,3,5.862322322426144e-08
4.215,0.9726380909165361,77.50000534910116,0,90,3.0,3,1.102907455352232e-07
4.22,0.7921091683291741,77.50001063505204,0,90,3.0,3,2.1927942341171353e-07
4.225,0.49139090102639077,77.50002307583767,0,90,3.0,3,4.757904675148218e-07
4.23,0.15739335672107918,77.5000554713907,0,90,3.0,3,1.143740014331155e-06
4.235,-0.11102342218909485,77.50014526993121,0,90,3.0,3,2.9952563136014092e-06
4.24,-0.2314207883647528,77.5003988898635,0,90,3.0,3,8.224533268130659e-06
4.245,-0.2029124434754801,77.5011054659756,0,90,3.0,3,2.279311289893738e-05
4.25,-0.11151350554305876,77.50300976888175,0,90,3.0,3,6.205709034543127e-05
4.255,-0.039430666652076896,77.50792185780857,0,90,3.0,3,0.00016333727440347813
4.26,-0.006087703519843621,77.51997904089026,0,90,3.0,3,0.0004119389874281015
4.265,0.005350271385530551,77.54805187102536,0,90,3.0,3,0.000990760227327109
4.27,0.010381647827441833,77.60993273918042,0,90,3.0,3,0.0022666544160911822
4.275,0.015115203303506243,77.73890414692885,0,90,3.0,3,0.0049258586995638304
4.28,0.021170964062928475,77.99279598451152,0,90,3.0,3,0.01016074194869107
4.285,0.029082821134029553,78.46442565053172,0,90,3.0,3,0.01988506495941697
4.29,0.03923107061708144,79.29027244272471,0,90,3.0,3,0.03691283387061265
4.295,0.051969043308817596,80.65176405432197,0,90,3.0,3,0.06498482586230872
4.3,0.06760532616283861,82.76179436299392,0,90,3.0,3,0.10849060542255515
4.305,0.08636519236693461,85.82984126010565,0,90,3.0,3,0.1717493043320753
4.31,0.10834733138818661,90.00401066771741,0,90,3.0,3,0.257814652942627
4.315,0.1334809643017884,95.29777724070067,0,90,3.0,3,0.3669644791897045
4.32,0.16148868344343945,101.52070486511198,0,90,3.0,3,0.4952722652600408
4.325,0.191860907532018,108.24076061437154,0,90,3.0,3,0.633830115760238
4.33,0.22384764873847726,114.80477932285345,0,90,3.0,3,0.7691707076877
4.335,0.25647215537198226,120.42962228136281,0,90,3.0,3,0.8851468511621198
4.34,0.2885689161419028,124.35209848293255,0,90,3.0,3,0.9660226491326298
4.345,0.31884566517832524,126.0,0,90,3.0,3,1.0
4.35,0.3459657668955683,125.13199699060715,0,90,3.0,3,0.982103030734168
4.355,0.3686441789190902,121.89956504594475,0,90,3.0,3,0.9154549494009228
4.36,0.3857476379544367,116.80934959217932,0,90,3.0,3,0.8105020534469962
4.365,0.3963882865005728,110.59911497723489,0,90,3.0,3,0.6824559789120596
4.37,0.4,104.06935062625563,0,90,3.0,3,0.5478216623970232
4.375,0.39638828650057273,97.92347769263611,0,90,3.0,3,0.421102632837858
4.38,0.38574763795443656,92.65949215512845,0,90,3.0,3,0.3125668485593494
4.385,0.36864417891908974,88.53181629485155,0,90,3.0,3,0.22746012979075364
4.39,0.345965766895568,85.57626122980984,0,90,3.0,3,0.16652085009917206
4.395,0.3188456651783249,83.67383914290984,0,90,3.0,3,0.12729565243113075
4.4,0.28856891614190205,82.62499201165721,0,90,3.0,3,0.1056699383846848
4.405,0.2564721553719815,82.2123239726345,0,90,3.0,3,0.09716131902339162
4.41,0.22384764873847685,82.24122011682826,0,90,3.0,3,0.09775711581089194
4.415,0.19186090753201765,82.5580522820505,0,90,3.0,3,0.10428973777423704
4.42,0.16148868344343878,83.05182219454407,0,90,3.0,3,0.11447056071224893
4.425,0.1334809643017881,83.64676889072895,0,90,3.0,3,0.12673750290162783
4.43,0.10834733138818531,84.29215130262087,0,90,3.0,3,0.1400443567550694
4.435,0.08636519236690572,84.95297587109219,0,90,3.0,3,0.15366960558952975
4.44,0.06760532616242629,85.6032141410097,0,90,3.0,3,0.16707658022700414
4.445,0.05196904332202373,86.22161625213593,0,90,3.0,3,0.17982713921929755
4.45,0.03923107185803287,86.78956826301784,0,90,3.0,3,0.19153748995913075
4.455,0.02908287038705761,87.29030500025087,0,90,3.0,3,0.20186195876805912
4.46,0.02117220077308346,87.70890109634271,0,90,3.0,3,0.21049280611015905
4.465,0.0151361834125735,88.03263653005703,0,90,3.0,3,0.21716776350633057
4.47,0.010626454858290009,88.25148247455117,0,90,3.0,3,0.22168005102167357
4.475,0.007326255555493652,88.35855638009744,0,90,3.0,3,0.22388776041438022
4.48,0.004960179211183015,88.35045923154104,0,90,3.0,3,0.22372080889775336
4.485,0.0032978759379303545,88.22744713680183,0,90,3.0,3,0.2211844770474604
4.49,0.002153242296767213,87.99341542663203,0,90,3.0,3,0.21635908096148507
4.495,0.001380616732225004,87.65569305578572,0,90,3.0,3,0.20939573310898388
4.5,0.0008693106590991584,87.22466123620943,0,90,3.0,3,0.20050847909710162
4.505,0.000537524815942247,86.71322360224083,0,90,3.0,3,0.189963373242079
4.51,0.0003263951340288585,86.13616550482689,0,90,3.0,3,0.17806526814076065
4.515,0.00019463030985187395,85.50944672085147,0,90,3.0,3,0.1651432313577623
4.52,0.00011397219555062695,84.84947457720351,0,90,3.0,3,0.15153555829285587
4.525,6.55403863487943e-05,84.17240320268115,0,90,3.0,3,0.1375753237666217
4.53,3.701184389455385e-05,83.49349969202193,0,90,3.0,3,0.12357731323756552
4.535,2.0525516217290957e-05,82.8266100918151,0,90,3.0,3,0.10982701220237316
4.54,1.1178128483661116e-05,82.18374823881719,0,90,3.0,3,0.09657212863540593
4.545,5.978135409912517e-06,81.57481966179543,0,90,3.0,3,0.08401690024320475
4.55,3.1396702713238487e-06,81.00748205938964,0,90,3.0,3,0.07231921771937412
4.555,1.6192875458531019e-06,80.48713423047259,0,90,3.0,3,0.061590396504589515
4.56,8.201353897972012e-07,80.01701749313209,0,90,3.0,3,0.051897267899630665
4.565,4.0791415086824765e-07,79.59840805263835,0,90,3.0,3,0.04326614541522367
4.57,1.9923866938774793e-07,79.23087565482302,0,90,3.0,3,0.03568815783140255
4.575,9.556527981051257e-08,78.91258311223406,0,90,3.0,3,0.029125424994516702
4.58,4.501406988770349e-08,78.64060262096777,0,90,3.0,3,0.023517579813768435
4.585,0.0,78.41122774696173,0,90,3.0,3,0.018788200968283056
4.59,0.0,78.22026402057521,0,90,3.0,3,0.01485080454794257
4.595,0.0,78.06328569392375,0,90,3.0,3,0.0116141380190463
4.6,0.0,77.93585088962875,0,90,3.0,3,0.00898661628100522
4.605,0.0,77.83367169477451,0,90,3.0,3,0.006879828758237296
4.61,0.0,77.75273943637394,0,90,3.0,3,0.005211122399462747
4.615,0.0,77.68940824197168,0,90,3.0,3,0.0039053245767356024
4.62,0.0,77.64044198158881,0,90,3.0,3,0.0028957109605939712
4.625,0.0,77.60303083963844,0,90,3.0,3,0.00212434720903991
4.63,0.0,77.57478418147271,0,90,3.0,3,0.0015419418860352196
4.635,0.0,77.55370620498225,0,90,3.0,3,0.001107344432623672
4.64,0.0,77.53816026664151,0,90,3.0,3,0.0007868096214744733
4.645,0.0,77.5268269037557,0,90,3.0,3,0.0005531320362000976
4.65,0.0,77.51865958225872,0,90,3.0,3,0.00038473365481898506
4.655,0.0,77.51284119666562,0,90,3.0,3,0.00026476694155915014
4.66,0.0,77.50874341903805,0,90,3.0,3,0.00018027668119700757
4.665,0.0,77.505890189993,0,90,3.0,3,0.00012144721635044119
4.67,0.0,77.50392599307456,0,90,3.0,3,8.09483108156721e-05
4.675,0.0,77.50258905913398,0,90,3.0,3,5.338266255632296e-05
4.68,0.0,77.5016892993909,0,90,3.0,3,3.483091527636903e-05
4.685,0.0,77.50109054476202,0,90,3.0,3,2.2485459010757733e-05
4.69,0.0,77.50069655045753,0,90,3.0,3,1.436186510378067e-05
4.695,0.0,77.50044018362493,0,90,3.0,3,9.075951029515017e-06
4.7,0.0,77.50027522469445,0,90,3.0,3,5.674735968003793e-06
4.705,0.0,77.50017026019599,0,90,3.0,3,3.510519504872493e-06
4.71,0.0,77.50010421040284,0,90,3.0,3,2.1486680997647275e-06
4.715,0.0,77.50006310753771,0,90,3.0,3,1.3011863445954827e-06
4.72,0.0,77.5000378114743,0,90,3.0,3,7.796180268049977e-07
4.725,0.0,77.50002241497207,0,90,3.0,3,4.6216437247672616e-07
4.73,0.0,77.5000131469499,0,90,3.0,3,2.710711318914693e-07
4.735,0.0,77.50000762928833,0,90,3.0,3,1.57304914093458e-07
4.74,0.0,77.50000438041506,0,90,3.0,3,9.031783636216751e-08
4.745,0.001684486749771458,77.50000248839153,0,90,3.0,3,5.1307041859058467e-08
4.75,0.004172395771277602,77.50000139860276,0,90,3.0,3,2.8837170360667496e-08
4.755,0.009438687428818865,77.50000077775401,0,90,3.0,3,1.6036165165526644e-08
4.76,0.019500507867137046,77.50000042791977,0,90,3.0,3,8.823088092895821e-09
4.765,0.03679496976339974,77.50000023294568,0,90,3.0,3,4.803003722119365e-09
4.77,0.06340728953298436,77.50000012546401,0,90,3.0,3,2.586886855929198e-09
4.775,0.09979255396093453,77.50000006685839,0,90,3.0,3,1.3785235221371999e-09
4.78,0.14343835518453557,77.50000003525047,0,90,3.0,3,7.268137248980359e-10
4.785,0.18829581417209276,77.50000001838849,0,90,3.0,3,3.791441387650209e-10
4.79,0.2257481735193119,77.50000000949072,0,90,3.0,3,1.9568493446490017e-10
4.795,0.24718154073554727,77.50000000484647,0,90,3.0,3,9.99272142695359e-11
4.8,0.24718154074102772,77.50000000244863,0,90,3.0,3,5.048721120437756e-11
4.805,0.22574817354072055,77.50000000122404,0,90,3.0,3,2.5237891959571327e-11
4.81,0.18829581422840957,77.50000000060538,0,90,3.0,3,1.2482111564280523e-11
4.815,0.14343835532456656,77.50000000029624,0,90,3.0,3,6.108030461713422e-12
4.82,0.09979255431561854,77.50000000014343,0,90,3.0,4,2.9573228173305944e-12
4.825,0.06340729067170194,77.50000000006871,0,90,3.0,4,1.4166903618144677e-12
4.83,0.03679497683410042,77.50000000003256,0,90,3.0,4,6.712797557222225e-13
4.835,0.019500578284482293,77.50000000001526,0,90,3.0,4,3.146898549304526e-13
4.84,0.009439396781978427,77.50000000000708,0,90,3.0,4,1.4591764223032162e-13
4.845,0.004178588733610924,77.50000000000325,0,90,3.0,4,6.70986748408507e-14
4.85,0.0017299316936037381,77.50000000000148,0,90,3.0,4,3.047276062641254e-14
4.855,0.0008997325756988589,77.50000000000067,0,90,3.0,4,1.3771343744628746e-14
4.86,0.001634769674224814,77.5000000000003,0,90,3.0,4,6.15315358802561e-15
4.865,0.00614904736476635,77.50000000000013,0,90,3.0,4,2.637065823439547e-15
4.87,0.02168080359963608,77.50000000000006,0,90,3.0,4,1.172029254862021e-15
4.875,0.06433400338904088,77.50000000000003,0,90,3.0,4,5.860146274310105e-16
4.88,0.1593410769217493,77.50000000000001,0,90,3.0,4,2.9300731371550523e-16
4.885,0.3291989194808569,77.5,0,90,3.0,4,0.0
4.89,0.5672906802982638,77.5,0,90,3.0,4,0.0
4.895,0.815339152120446,77.5,0,90,3.0,4,0.0
4.9,0.9768711246313155,77.50000285893489,1,90,3.0,4,5.894711116478405e-08
4.905,0.9726380909165361,77.50000618812223,0,90,3.0,4,1.275901490302691e-07
4.91,0.7921091683291741,77.50001468035043,0,90,3.0,4,3.026876377767509e-07
4.915,0.49139090102639077,77.50004011217966,0,90,3.0,4,8.270552507500602e-07
4.92,0.15739335672107918,77.50012586528338,0,90,3.0,4,2.595160482057049e-06
4.925,-0.11102342218909485,77.50042726793068,0,90,3.0,4,8.809648055157877e-06
4.93,-0.2314207883647528,77.50146692328671,0,90,3.0,4,3.0245840963164848e-05
4.935,-0.2029124434754801,77.50487105184348,0,90,3.0,4,0.00010043405862845866
4.94,-0.11151350554305876,77.51528218449549,0,90,3.0,4,0.00031509658753587657
4.945,-0.039430666652076896,77.54479593010373,0,90,3.0,4,0.0009236274248192063
4.95,-0.006087703519843621,77.62204053299997,0,90,3.0,4,0.00251629964948402
4.955,0.005350271385530551,77.80824652760434,0,90,3.0,4,0.006355598507305966
4.96,0.010381647827441833,78.22092533119431,0,90,3.0,4,0.014864439818439355
4.965,0.015115203303506243,79.06031377637058,0,90,3.0,4,0.032171418069496444
4.97,0.021170964062928475,80.6240864071174,0,90,3.0,4,0.06441415272407017
4.975,0.029082821134029553,83.2856052670689,0,90,3.0,4,0.11929083024884335
4.98,0.03923107061708144,87.40944979650192,0,90,3.0,4,0.20431855250519418
4.985,0.051969043308817596,93.19661535878168,0,90,3.0,4,0.3236415537893131
4.99,0.06760532616283861,100.49390932475231,0,90,3.0,4,0.47410122319076925
4.995,0.08636519236693461,108.65132916743002,0,90,3.0,4,0.6422954467511345
5.0,0.10834733138818661,116.53176722628177,0,90,3.0,4,0.8047787056965314
5.005,0.1334809643017884,122.73557070070211,0,90,3.0,4,0.9326921793959199
5.01,0.16148868344343945,126.0,0,90,3.0,4,1.0
5.015,0.191860907532018,125.62298582495731,0,90,3.0,4,0.9922265118547899
5.02,0.22384764873847726,121.71803980938984,0,90,3.0,4,0.9117121610183472
5.025,0.25647215537198226,115.1748489499153,0,90,3.0,4,0.7768010092766041
5.03,0.2885689161419028,107.3452185843005,0,90,3.0,4,0.6153653316350618
5.035,0.31884566517832524,99.60678992267415,0,90,3.0,4,0.45581010149843615
5.04,0.3459657668955683,92.99679555401843,0,90,3.0,4,0.31952155781481306
5.045,0.3686441789190902,88.04208125889988,0,90,3.0,4,0.21736250018350275
5.05,0.3857476379544367,84.79591935806049,0,90,3.0,4,0.15043132697031933
5.055,0.3963882865005728,83.00191711258685,0,90,3.0,4,0.11344158995024438
5.06,0.4,82.28100953608437,0,90,3.0,4,0.09857751620792514
5.065,0.39638828650057273,82.2691592434131,0,90,3.0,4,0.09833318027655875
5.07,0.38574763795443656,82.6836701097863,0,90,3.0,4,0.10687979607806816
5.075,0.36864417891908974,83.33287140328397,0,90,3.0,4,0.12026538975843246
5.08,0.345965766895568,84.09661735200604,0,90,3.0,4,0.13601272890734092
5.085,0.3188456651783249,84.90017530817117,0,90,3.0,4,0.15258093418909632
5.09,0.28856891614190205,85.69329084161134,0,90,3.0,4,0.1689338317858009
5.095,0.2564721553719815,86.43743999716447,0,90,3.0,4,0.18427711334359742
5.1,0.22384764873847685,87.09984541959422,0,90,3.0,4,0.19793495710503542
5.105,0.19186090753201765,87.65172216748766,0,90,3.0,4,0.20931385912345696
5.11,0.16148868344343878,88.06865320462217,0,90,3.0,4,0.21791037535303434
5.115,0.1334809643017881,88.33175555080422,0,90,3.0,4,0.22333516599596326
5.12,0.10834733138818531,88.4288907394673,0,90,3.0,4,0.22533795339107848
5.125,0.08636519236690572,88.35553086478332,0,90,3.0,4,0.22382537865532615
5.13,0.06760532616242629,88.1150913912956,0,90,3.0,4,0.21886786373805375
5.135,0.05196904332202373,87.71866320849443,0,90,3.0,4,0.2106940867730811
5.14,0.03923107185803287,87.18416339903555,0,90,3.0,4,0.19967347214506298
5.145,0.02908287038705761,86.53499269797297,0,90,3.0,4,0.18628850923655602
5.15,0.02117220077308346,85.79833909740718,0,90,3.0,4,0.17109977520427175
5.155,0.0151361834125735,85.0032984901782,0,90,3.0,4,0.15470718536449887
5.16,0.010626454858290009,84.1789923168614,0,90,3.0,4,0.13771118179095662
5.165,0.007326255555493652,83.35284925367858,0,90,3.0,4,0.12067730419955845
5.17,0.004960179211183015,82.54918644393858,0,90,3.0,4,0.10410693698842434
5.175,0.0032978759379303545,81.78818142130838,0,90,3.0,4,0.08841611177955423
5.18,0.002153242296767213,81.08527579059167,0,90,3.0,4,0.07392321217714776
5.185,0.001380616732225004,80.45100306514775,0,90,3.0,4,0.06084542402366484
5.19,0.0008693106590991584,79.89119187830183,0,90,3.0,4,0.04930292532581083
5.195,0.000537524815942247,79.40746627281584,0,90,3.0,4,0.0393292015013575
5.2,0.0003263951340288585,78.99794884579315,0,90,3.0,4,0.03088554321222983
5.205,0.00019463030985187395,78.65806989536343,0,90,3.0,4,0.02387772980130774
5.21,0.00011397219555062695,78.38139429627614,0,90,3.0,4,0.018173078273734877
5.215,6.55403863487943e-05,78.16039438770699,0,90,3.0,4,0.013616379127979106
5.22,3.701184389455385e-05,77.98711800925507,0,90,3.0,4,0.010043670293918974
5.225,2.0525516217290957e-05,77.85372248948764,0,90,3.0,4,0.0072932472059306684
5.23,1.1178128483661116e-05,77.75286506567673,0,90,3.0,4,0.005213712694365561
5.235,5.978135409912517e-06,77.67795601393767,0,90,3.0,4,0.003669196163663384
5.24,3.1396702713238487e-06,77.62329179601988,0,90,3.0,4,0.0025420988870079324
5.245,1.6192875458531019e-06,77.5840917447069,0,90,3.0,4,0.0017338504063277539
5.25,8.201353897972012e-07,77.55646381545465,0,90,3.0,4,0.0011642023805082191
5.255,4.0791415086824765e-07,77.53732370552795,0,90,3.0,4,0.0007695609387206838
5.26,1.9923866938774793e-07,77.52428829121516,0,90,3.0,4,0.0005007895095908698
5.265,0.001684486749771458,77.5155599014792,0,90,3.0,4,0.00032082271091119944
5.27,0.004172395771277602,77.5098132846989,0,90,3.0,4,0.00020233576698748862
5.275,0.009438687428818865,77.5060928379677,0,90,3.0,4,0.0001256255251072049
5.28,0.019500507867137046,77.50372411028097,0,90,3.0,4,7.678577898907617e-05
5.285,0.03679496976339974,77.50224090327806,0,90,3.0,4,4.62041913002962e-05
5.29,0.06340728953298436,77.5013274597602,0,90,3.0,4,2.737030433412112e-05
5.295,0.09979255396093453,77.50077413605054,0,90,3.0,4,1.59615680523253e-05
5.3,0.14343835518453557,77.50044443770291,0,90,3.0,4,9.163663977530923e-06
5.305,0.18829581417209276,77.50025118989846,0,90,3.0,4,5.179173164198389e-06
5.31,0.2257481735193119,77.50013976264815,0,90,3.0,4,2.8817040854907656e-06
5.315,0.24718154073554727,77.50007655573768,0,90,3.0,4,1.578468818104401e-06
5.32,0.24718154074102772,77.50004128212503,0,90,3.0,4,8.511778355686025e-07
5.325,0.22574817354072055,77.50002191512834,0,90,3.0,4,4.518583163536681e-07
5.33,0.18829581422840957,77.50001145311617,0,90,3.0,4,2.361467252121281e-07
5.335,0.14343835532456656,77.50000589251896,0,90,3.0,4,1.2149523621298342e-07
5.34,0.09979255431561854,77.50000298453024,0,90,3.0,4,6.153670599430661e-08
5.345,0.06340729067170194,77.50000148815667,0,90,3.0,4,3.0683642678210616e-08
5.35,0.03679497683410042,77.50000073049794,0,90,3.0,4,1.506181329486279e-08
5.355,0.019500578284482293,77.50000035301001,0,90,3.0,4,7.278556882063396e-09
5.36,0.009439396781978427,77.50000016793945,0,90,3.0,4,3.4626690152079617e-09
5.365,0.004178588733610924,77.50000007865314,0,90,3.0,4,1.6217143183894223e-09
5.37,0.0017299316936037381,77.50000003626411,0,90,3.0,4,7.477136435780492e-10
5.375,0.0008997325756988589,77.50000001646023,0,90,3.0,4,3.393862693742777e-10
5.38,0.001634769674224814,77.50000000735515,0,90,3.0,4,1.516526743816752e-10
5.385,0.00614904736476635,77.50000000323554,0,90,3.0,4,6.671219819405994e-11
5.39,0.02168080359963608,77.50000000140119,0,90,3.0,4,2.8890521132348817e-11
5.395,0.06433400338904088,77.50000000059738,0,90,3.0,4,1.2317148446658694e-11
5.4,0.1593410769217493,77.50000000025072,0,90,3.0,4,5.1695280358826585e-12
5.405,0.3291989194808569,77.5000000001036,0,90,3.0,4,2.136023316986033e-12
5.41,0.5672906802982638,77.50000000004214,0,90,3.0,4,8.687666851664731e-13
5.415,0.815339152120446,77.50000000001687,0,90,3.0,4,3.477996813803047e-13
5.42,0.9768711246313155,77.50000000000665,0,90,3.0,4,1.3712742281885644e-13
5.425,0.9726380909165361,77.50000000000259,0,90,3.0,4,5.332733109622195e-14
5.43,0.7921091683291741,77.50000000000098,0,90,3.0,4,2.0217504646369862e-14
5.435,0.49139090102639077,77.50000000000037,0,90,3.0,4,7.618190156603136e-15
5.44,0.15739335672107918,77.50000000000014,0,90,3.0,4,2.930073137155052e-15
5.445,-0.11102342218909485,77.50000000000004,0,90,3.0,4,8.790219411465157e-16
5.45,-0.2314207883647528,77.50000000000001,0,90,3.0,4,2.9300731371550523e-16
5.455,-0.2029124434754801,77.5,0,90,3.0,4,0.0
5.46,-0.11151350554305876,77.5,0,90,3.0,4,0.0
5.465,-0.039430666652076896,77.5,0,90,3.0,4,0.0
5.47,-0.006087703519843621,77.50000285893489,1,90,3.0,4,5.894711116478405e-08
5.475,0.005350271385530551,77.50000618812223,0,90,3.0,4,1.275901490302691e-07
5.48,0.010381647827441833,77.50001468035043,0,90,3.0,4,3.026876377767509e-07
5.485,0.015115203303506243,77.50004011217966,0,90,3.0,4,8.270552507500602e-07
5.49,0.021170964062928475,77.50012586528338,0,90,3.0,4,2.595160482057049e-06
5.495,0.029082821134029553,77.50042726793068,0,90,3.0,4,8.809648055157877e-06
5.5,0.03923107061708144,77.50146692328671,0,90,3.0,4,3.0245840963164848e-05
5.505,0.051969043308817596,77.50487105184348,0,90,3.0,4,0.00010043405862845866
5.51,0.06760532616283861,77.51528218449549,0,90,3.0,4,0.00031509658753587657
5.515,0.08636519236693461,77.54479593010373,0,90,3.0,4,0.0009236274248192063
5.52,0.10834733138818661,77.62204053299997,0,90,3.0,4,0.00251629964948402
5.525,0.1334809643017884,77.80824652760434,0,90,3.0,4,0.006355598507305966
5.53,0.16148868344343945,78.22092533119431,0,90,3.0,4,0.014864439818439355
5.535,0.191860907532018,79.06031377637058,0,90,3.0,4,0.032171418069496444
5.54,0.22384764873847726,80.6240864071174,0,90,3.0,4,0.06441415272407017
5.545,0.25647215537198226,83.2856052670689,0,90,3.0,4,0.11929083024884335
5.55,0.2885689161419028,87.40944979650192,0,90,3.0,4,0.20431855250519418
5.555,0.31884566517832524,93.19661535878168,0,90,3.0,4,0.3236415537893131
5.56,0.3459657668955683,100.49390932475231,0,90,3.0,4,0.47410122319076925
5.565,0.3686441789190902,108.65132916743002,0,90,3.0,4,0.6422954467511345
5.57,0.3857476379544367,116.53176722628177,0,90,3.0,4,0.8047787056965314
5.575,0.3963882865005728,122.73557070070211,0,90,3.0,4,0.9326921793959199
5.58,0.4,126.0,0,90,3.0,4,1.0
5.585,0.39638828650057273,125.62298582495731,0,90,3.0,4,0.9922265118547899
5.59,0.38574763795443656,121.71803980938984,0,90,3.0,4,0.9117121610183472
5.595,0.36864417891908974,115.1748489499153,0,90,3.0,4,0.7768010092766041
5.6,0.345965766895568,107.3452185843005,0,90,3.0,4,0.6153653316350618
5.605,0.3188456651783249,99.60678992267415,0,90,3.0,4,0.45581010149843615
5.61,0.28856891614190205,92.99679555401843,0,90,3.0,4,0.31952155781481306
5.615,0.2564721553719815,88.04208125889988,0,90,3.0,4,0.21736250018350275
5.62,0.22384764873847685,84.79591935806049,0,90,3.0,4,0.15043132697031933
5.625,0.19186090753201765,83.00191711258685,0,90,3.0,4,0.11344158995024438
5.63,0.16148868344343878,82.28100953608437,0,90,3.0,4,0.09857751620792514
5.635,0.1334809643017881,82.2691592434131,0,90,3.0,4,0.09833318027655875
5.64,0.10834733138818531,82.6836701097863,0,90,3.0,4,0.10687979607806816
5.645,0.08636519236690572,83.33287140328397,0,90,3.0,4,0.12026538975843246
5.65,0.06760532616242629,84.09661735200604,0,90,3.0,4,0.13601272890734092
5.655,0.05196904332202373,84.90017530817117,0,90,3.0,4,0.15258093418909632
5.66,0.03923107185803287,85.69329084161134,0,90,3.0,4,0.1689338317858009
5.665,0.02908287038705761,86.43743999716447,0,90,3.0,4,0.18427711334359742
5.67,0.02117220077308346,87.09984541959422,0,90,3.0,4,0.19793495710503542
5.675,0.0151361834125735,87.65172216748766,0,90,3.0,4,0.20931385912345696
5.68,0.010626454858290009,88.06865320462217,0,90,3.0,4,0.21791037535303434
5.685,0.007326255555493652,88.33175555080422,0,90,3.0,4,0.22333516599596326
5.69,0.004960179211183015,88.4288907394673,0,90,3.0,4,0.22533795339107848
5.695,0.0032978759379303545,88.35553086478332,0,90,3.0,4,0.22382537865532615
5.7,0.002153242296767213,88.1150913912956,0,90,3.0,4,0.21886786373805375
5.705,0.001380616732225004,87.71866320849443,0,90,3.0,4,0.2106940867730811
5.71,0.0008693106590991584,87.18416339903555,0,90,3.0,4,0.19967347214506298
5.715,0.000537524815942247,86.53499269797297,0,90,3.0,4,0.18628850923655602
5.72,0.0003263951340288585,85.79833909740718,0,90,3.0,4,0.17109977520427175
5.725,0.00019463030985187395,85.0032984901782,0,90,3.0,4,0.15470718536449887
5.73,0.00011397219555062695,84.1789923168614,0,90,3.0,4,0.13771118179095662
5.735,6.55403863487943e-05,83.35284925367858,0,90,3.0,4,0.12067730419955845
5.74,3.701184389455385e-05,82.54918644393858,0,90,3.0,4,0.10410693698842434
5.745,2.0525516217290957e-05,81.78818142130838,0,90,3.0,4,0.08841611177955423
5.75,1.1178128483661116e-05,81.08527579059167,0,90,3.0,4,0.07392321217714776
5.755,5.978135409912517e-06,80.45100306514775,0,90,3.0,4,0.06084542402366484
5.76,3.1396702713238487e-06,79.89119187830183,0,90,3.0,4,0.04930292532581083
5.765,1.6192875458531019e-06,79.40746627281584,0,90,3.0,4,0.0393292015013575
5.77,8.201353897972012e-07,78.99794884579315,0,90,3.0,4,0.03088554321222983
5.775,4.0791415086824765e-07,78.65806989536343,0,90,3.0,4,0.02387772980130774
5.78,1.9923866938774793e-07,78.38139429627614,0,90,3.0,4,0.018173078273734877
5.785,9.556527981051257e-08,78.16039438770699,0,90,3.0,4,0.013616379127979106
5.79,4.501406988770349e-08,77.98711800925507,0,90,3.0,4,0.010043670293918974
5.795,0.0,77.85372248948764,0,90,3.0,4,0.0072932472059306684
5.8,0.0,77.75286506567673,0,90,3.0,4,0.005213712694365561
5.805,0.0,77.67795601393767,0,90,3.0,4,0.003669196163663384
5.81,0.0,77.62329179601988,0,90,3.0,4,0.0025420988870079324
5.815,0.0,77.5840917447069,0,90,3.0,4,0.0017338504063277539
5.82,0.0,77.55646381545465,0,90,3.0,4,0.0011642023805082191
5.825,0.0,77.53732370552795,0,90,3.0,4,0.0007695609387206838
5.83,0.0,77.52428829121516,0,90,3.0,4,0.0005007895095908698
5.835,0.0,77.5155599014792,0,90,3.0,4,0.00032082271091119944
5.84,0.0,77.5098132846989,0,90,3.0,4,0.00020233576698748862
5.845,0.0,77.5060928379677,0,90,3.0,4,0.0001256255251072049
5.85,0.0,77.50372411028097,0,90,3.0,4,7.678577898907617e-05
5.855,0.0,77.50224090327806,0,90,3.0,4,4.62041913002962e-05
5.86,0.0,77.5013274597602,0,90,3.0,4,2.737030433412112e-05
5.865,0.0,77.50077413605054,0,90,3.0,4,1.59615680523253e-05
5.87,0.0,77.50044443770291,0,90,3.0,4,9.163663977530923e-06
5.875,0.0,77.50025118989846,0,90,3.0,4,5.179173164198389e-06
5.88,0.0,77.50013976264815,0,90,3.0,4,2.8817040854907656e-06
5.885,0.001684486749771458,77.50007655573768,0,90,3.0,4,1.578468818104401e-06
5.89,0.004172395771277602,77.50004128212503,0,90,3.0,4,8.511778355686025e-07
5.895,0.009438687428818865,77.50002191512834,0,90,3.0,4,4.518583163536681e-07
5.9,0.019500507867137046,77.50001145311617,0,90,3.0,4,2.361467252121281e-07
5.905,0.03679496976339974,77.50000589251896,0,90,3.0,4,1.2149523621298342e-07
5.91,0.06340728953298436,77.50000298453024,0,90,3.0,4,6.153670599430661e-08
5.915,0.09979255396093453,77.50000148815667,0,90,3.0,4,3.0683642678210616e-08
5.92,0.14343835518453557,77.50000073049794,0,90,3.0,4,1.506181329486279e-08
5.925,0.18829581417209276,77.50000035301001,0,90,3.0,4,7.278556882063396e-09
5.93,0.2257481735193119,77.50000016793945,0,90,3.0,4,3.4626690152079617e-09
5.935,0.24718154073554727,77.50000007865314,0,90,3.0,4,1.6217143183894223e-09
5.94,0.24718154074102772,77.50000003626411,0,90,3.0,4,7.477136435780492e-10
5.945,0.22574817354072055,77.50000001646023,0,90,3.0,4,3.393862693742777e-10
5.95,0.18829581422840957,77.50000000735515,0,90,3.0,4,1.516526743816752e-10
5.955,0.14343835532456656,77.50000000323554,0,90,3.0,4,6.671219819405994e-11
5.96,0.09979255431561854,77.50000000140119,0,90,3.0,4,2.8890521132348817e-11
5.965,0.06340729067170194,77.50000000059738,0,90,3.0,4,1.2317148446658694e-11
5.97,0.03679497683410042,77.50000000025072,0,90,3.0,4,5.1695280358826585e-12
5.975,0.019500578284482293,77.5000000001036,0,90,3.0,4,2.136023316986033e-12
5.98,0.009439396781978427,77.50000000004214,0,90,3.0,4,8.687666851664731e-13
5.985,0.004178588733610924,77.50000000001687,0,90,3.0,4,3.477996813803047e-13
5.99,0.0017299316936037381,77.50000000000665,0,90,3.0,4,1.3712742281885644e-13
5.995,0.0008997325756988589,77.50000000000259,0,90,3.0,4,5.332733109622195e-14
6.0,0.001634769674224814,77.50000000000098,0,90,3.0,4,2.0217504646369862e-14
6.005,0.00614904736476635,77.50000000000037,0,90,3.0,4,7.618190156603136e-15
6.01,0.02168080359963608,77.50000000000014,0,90,3.0,4,2.930073137155052e-15
6.015,0.06433400338904088,77.50000000000004,0,90,3.0,4,8.790219411465157e-16
6.02,0.1593410769217493,77.50000000000001,0,90,3.0,4,2.9300731371550523e-16
6.025,0.3291989194808569,77.5,0,90,3.0,5,0.0
6.03,0.5672906802982638,77.5,0,90,3.0,5,0.0
6.035,0.815339152120446,77.5,0,90,3.0,5,0.0
6.04,0.9768711246313155,77.50000284150002,1,90,3.0,5,5.858762928180591e-08
6.045,0.9726380909165361,77.5000055087254,0,90,3.0,5,1.1358196688794948e-07
6.05,0.7921091683291741,77.50001136395807,0,90,3.0,5,2.3430841373428661e-07
6.055,0.49139090102639077,77.50002585890292,0,90,3.0,5,5.331732559967612e-07
6.06,0.15739335672107918,77.50006577270929,0,90,3.0,5,1.356138335905626e-06
6.065,-0.11102342218909485,77.50018247875063,0,90,3.0,5,3.76244846661487e-06
6.07,-0.2314207883647528,77.50052776496497,0,90,3.0,5,1.0881751855078582e-05
6.075,-0.2029124434754801,77.50152756139154,0,90,3.0,5,3.1496111165786474e-05
6.08,-0.11151350554305876,77.50430755613382,0,90,3.0,5,8.88155903881271e-05
6.085,-0.039430666652076896,77.5116563600092,0,90,3.0,5,0.00024033731977727622
6.09,-0.006087703519843621,77.53002739545968,0,90,3.0,5,0.0006191215558697577
6.095,0.005350271385530551,77.57333096905042,0,90,3.0,5,0.0015119787433075698
6.1,0.010381647827441833,77.66940490223725,0,90,3.0,5,0.0034928845822112743
6.105,0.015115203303506243,77.86976747664984,0,90,3.0,5,0.007624071683501874
6.11,0.021170964062928475,78.26211431813414,0,90,3.0,5,0.01571369728111625
6.115,0.029082821134029553,78.98267513398078,0,90,3.0,5,0.03057062131919128
6.12,0.03923107061708144,80.22218766058688,0,90,3.0,5,0.05612758063065738
6.125,0.051969043308817596,82.21612057642412,0,90,3.0,5,0.09723959951389932
6.13,0.06760532616283861,85.20932922752098,0,90,3.0,5,0.15895524180455634
6.135,0.08636519236693461,89.39039798617173,0,90,3.0,5,0.24516284507570588
6.14,0.10834733138818661,94.8028006534978,0,90,3.0,5,0.35675877636077935
6.145,0.1334809643017884,101.25612781731577,0,90,3.0,5,0.48981706839826333
6.15,0.16148868344343945,108.27370857382006,0,90,3.0,5,0.6345094551303105
6.155,0.191860907532018,115.11341104223824,0,90,3.0,5,0.775534248293572
6.16,0.22384764873847726,120.88000833622657,0,90,3.0,5,0.8944331615716817
6.165,0.25647215537198226,124.71329532894552,0,90,3.0,5,0.9734700067823818
6.17,0.2885689161419028,126.0,0,90,3.0,5,1.0
6.175,0.31884566517832524,124.53834900968857,0,90,3.0,5,0.9698628661791459
6.18,0.3459657668955683,120.59493192202842,0,90,3.0,5,0.8885552973614108
6.185,0.3686441789190902,114.83222413300682,0,90,3.0,5,0.7697365800619963
6.19,0.3857476379544367,108.13422420586735,0,90,3.0,5,0.6316334887807702
6.195,0.3963882865005728,101.3936098555063,0,90,3.0,5,0.492651749598068
6.2,0.4,95.33064507931,0,90,3.0,5,0.3676421665837114
6.205,0.39638828650057273,90.39185276201252,0,90,3.0,5,0.2658113971548973
6.21,0.38574763795443656,86.73955542986523,0,90,3.0,5,0.19050629752299453
6.215,0.36864417891908974,84.31059562557269,0,90,3.0,5,0.14042465207366367
6.22,0.345965766895568,82.9065602268215,0,90,3.0,5,0.11147546859425768
6.225,0.3188456651783249,82.28033336831763,0,90,3.0,5,0.09856357460448717
6.23,0.28856891614190205,82.19778113694667,0,90,3.0,5,0.09686146674116852
6.235,0.2564721553719815,82.46927305071628,0,90,3.0,5,0.1024592381590986
6.24,0.22384764873847685,82.95682150774277,0,90,3.0,5,0.11251178366479946
6.245,0.19186090753201765,83.56687754099825,0,90,3.0,5,0.12509025857728348
6.25,0.16148868344343878,84.23787322707521,0,90,3.0,5,0.1389252211768085
6.255,0.1334809643017881,84.92832444149448,0,90,3.0,5,0.15316132869060786
6.26,0.10834733138818531,85.60801881012263,0,90,3.0,5,0.16717564556953876
6.265,0.08636519236690572,86.25260772478875,0,90,3.0,5,0.18046613865543806
6.27,0.06760532616242629,86.84089403560439,0,90,3.0,5,0.19259575331143078
6.275,0.05196904332202373,87.35388295636871,0,90,3.0,5,0.20317284446121045
6.28,0.03923107185803287,87.77481720348132,0,90,3.0,5,0.21185190110270763
6.285,0.02908287038705761,88.08966243795557,0,90,3.0,5,0.21834355542176428
6.29,0.02117220077308346,88.28771551986046,0,90,3.0,5,0.22242712412083412
6.295,0.0151361834125735,88.36214631799686,0,90,3.0,5,0.22396177975251258
6.3,0.010626454858290009,88.31036736727964,0,90,3.0,5,0.22289417252122967
6.305,0.007326255555493652,88.13417633763018,0,90,3.0,5,0.21926136778618927
6.31,0.004960179211183015,87.83965035915766,0,90,3.0,5,0.213188667199127
6.315,0.0032978759379303545,87.43679744267308,0,90,3.0,5,0.20488242149841407
6.32,0.002153242296767213,86.9389917989111,0,90,3.0,5,0.1946183876064145
6.325,0.001380616732225004,86.36223716698538,0,90,3.0,5,0.18272653952547177
6.33,0.0008693106590991584,85.72431461211428,0,90,3.0,5,0.16957349715699555
6.335,0.000537524815942247,85.04387789533241,0,90,3.0,5,0.15554387413056525
6.34,0.0003263951340288585,84.33956014461978,0,90,3.0,5,0.14102185865195427
6.345,0.00019463030985187395,83.62915046826862,0,90,3.0,5,0.1263742364591468
6.35,0.00011397219555062695,82.92888923969679,0,90,3.0,5,0.11193586061230489
6.355,6.55403863487943e-05,82.25291740154772,0,90,3.0,5,0.09799829693912823
6.36,3.701184389455385e-05,81.61289990625842,0,90,3.0,5,0.08480205992285401
6.365,2.0525516217290957e-05,81.01782800176962,0,90,3.0,5,0.07253253611896114
6.37,1.1178128483661116e-05,80.47399100328275,0,90,3.0,5,0.0613194021295412
6.375,5.978135409912517e-06,79.9850966673004,0,90,3.0,5,0.05123910654227622
6.38,3.1396702713238487e-06,79.55251108450634,0,90,3.0,5,0.04231981617538835
6.385,1.6192875458531019e-06,79.17558445710158,0,90,3.0,5,0.034548133136115024
6.39,8.201353897972012e-07,78.85202811529082,0,90,3.0,5,0.027876868356511774
6.395,4.0791415086824765e-07,78.57831019218708,0,90,3.0,5,0.022233199838908767
6.4,1.9923866938774793e-07,78.35004180586505,0,90,3.0,5,0.01752663517247519
6.405,9.556527981051257e-08,78.16233155760507,0,90,3.0,5,0.013656320775362298
6.41,4.501406988770349e-08,78.01009280593172,0,90,3.0,5,0.01051737744189113
6.415,0.0,77.88829476616297,0,90,3.0,5,0.008006077652844772
6.42,0.0,77.79215442099877,0,90,3.0,5,0.006023802494820002
6.425,0.0,77.71727110655786,0,90,3.0,5,0.004479816630058962
6.43,0.0,77.65970925268655,0,90,3.0,5,0.003292974282196985
6.435,0.0,77.61603707332719,0,90,3.0,5,0.0023925169758183882
6.44,0.0,77.58333012691409,0,90,3.0,5,0.0017181469466823053
6.445,0.0,77.55914879585012,0,90,3.0,5,0.0012195628010334112
6.45,0.0,77.54149811404007,0,90,3.0,5,0.0008556312173209687
6.455,0.0,77.52877725728622,0,90,3.0,5,0.0005933455110561316
6.46,0.0,77.51972463735181,0,90,3.0,5,0.0004066935536456509
6.465,0.0,77.51336310074132,0,90,3.0,5,0.00027552785033640716
6.47,0.0,77.50894837231351,0,90,3.0,5,0.0001845025219280774
6.475,0.0,77.50592269592266,0,90,3.0,5,0.00012211744170440163
6.48,0.0,77.50387465835057,0,90,3.0,5,7.988986289831832e-05
6.485,0.0,77.50250545138663,0,90,3.0,5,5.1658791476807595e-05
6.49,0.0,77.50160131633649,0,90,3.0,5,3.301683168021236e-05
6.495,0.0,77.50101159546982,0,90,3.0,5,2.0857638552975802e-05
6.5,0.0,77.5006316481158,0,90,3.0,5,1.3023672490711779e-05
6.505,0.0,77.50038983616128,0,90,3.0,5,8.037858995371654e-06
6.51,0.0,77.50023780863849,0,90,3.0,5,4.903270896659603e-06
6.515,0.0,77.50014338764066,0,90,3.0,5,2.9564461992214493e-06
6.52,0.0,77.50008545439401,0,90,3.0,5,1.7619462682629541e-06
6.525,0.0,77.5000503379664,0,90,3.0,5,1.0378962144255338e-06
6.53,0.0,77.50002930863025,0,90,3.0,5,6.04301654562995e-07
6.535,0.0,77.50001686684932,0,90,3.0,5,3.47770089106656e-07
6.54,0.0,77.50000959424924,0,90,3.0,5,1.9781957185729233e-07
6.545,0.001684486749771458,77.50000539419466,0,90,3.0,5,1.1122050843190777e-07
6.55,0.004172395771277602,77.50000299764929,0,90,3.0,5,6.180720184911667e-08
6.555,0.009438687428818865,77.50000164654504,0,90,3.0,5,3.394938235689233e-08
6.56,0.019500507867137046,77.50000089393305,0,90,3.0,5,1.8431609246878916e-08
6.565,0.03679496976339974,77.50000047970579,0,90,3.0,5,9.890841025930826e-09
6.57,0.06340728953298436,77.5000002544389,0,90,3.0,5,5.246162926755695e-09
6.575,0.09979255396093453,77.50000013339228,0,90,3.0,5,2.750356222265706e-09
6.58,0.14343835518453557,77.50000006912201,0,90,3.0,5,1.4251960711243151e-09
6.585,0.18829581417209276,77.50000003540305,0,90,3.0,5,7.299597444253993e-10
6.59,0.2257481735193119,77.5000000179227,0,90,3.0,5,3.695402380433678e-10
6.595,0.24718154073554727,77.5000000089682,0,90,3.0,5,1.8491134854689477e-10
6.6,0.24718154074102772,77.50000000443552,0,90,3.0,5,9.145402877151092e-11
6.605,0.22574817354072055,77.50000000216832,0,90,3.0,5,4.4707641941339216e-11
6.61,0.18829581422840957,77.50000000104771,0,90,3.0,5,2.160225721098934e-11
6.615,0.14343835532456656,77.50000000050038,0,90,3.0,5,1.0317080523236655e-11
6.62,0.09979255431561854,77.5000000002362,0,90,3.0,5,4.870074561265413e-12
6.625,0.06340729067170194,77.5000000001102,0,90,3.0,5,2.272271717863743e-12
6.63,0.03679497683410042,77.50000000005083,0,90,3.0,5,1.0480871611603622e-12
6.635,0.019500578284482293,77.50000000002316,0,90,3.0,5,4.776019213562735e-13
6.64,0.009439396781978427,77.50000000001044,0,90,3.0,5,2.1536037558089634e-13
6.645,0.004178588733610924,77.50000000000465,0,90,3.0,5,9.581339158497021e-14
6.65,0.0017299316936037381,77.50000000000205,0,90,3.0,5,4.2193053175032755e-14
6.655,0.0008997325756988589,77.5000000000009,0,90,3.0,5,1.845946076407683e-14
6.66,0.001634769674224814,77.50000000000038,0,90,3.0,5,7.911197470318642e-15
6.665,0.00614904736476635,77.50000000000016,0,90,3.0,5,3.2230804508705575e-15
6.67,0.02168080359963608,77.50000000000007,0,90,3.0,5,1.465036568577526e-15
6.675,0.06433400338904088,77.50000000000003,0,90,3.0,5,5.860146274310105e-16
6.68,0.1593410769217493,77.50000000000001,0,90,3.0,5,2.9300731371550523e-16
6.685,0.3291989194808569,77.5,0,90,3.0,5,0.0
6.69,0.5672906802982638,77.5,0,90,3.0,5,0.0
6.695,0.815339152120446,77.5,0,90,3.0,5,0.0
6.7,0.9768711246313155,77.50000285066528,1,90,3.0,5,5.8776603762772095e-08
6.705,0.9726380909165361,77.50000533774794,0,90,3.0,5,1.1005665847620811e-07
6.71,0.7921091683291741,77.50001055134113,0,90,3.0,5,2.1755342544631426e-07
6.715,0.49139090102639077,77.50002272509559,0,90,3.0,5,4.685586719629616e-07
6.72,0.15739335672107918,77.50005414678377,0,90,3.0,5,1.1164285312949602e-06
6.725,-0.11102342218909485,77.500140505292,0,90,3.0,5,2.8970163297926024e-06
6.73,-0.2314207883647528,77.50038258369432,0,90,3.0,5,7.888323594182947e-06
6.735,-0.2029124434754801,77.5010527695429,0,90,3.0,5,2.1706588513294712e-05
6.74,-0.11151350554305876,77.50284972513398,0,90,3.0,5,5.875721925740811e-05
6.745,-0.039430666652076896,77.50746597756105,0,90,3.0,5,0.00015393768167121978
6.75,-0.006087703519843621,77.51876169890194,0,90,3.0,5,0.0003868391526173268
6.755,0.005350271385530551,77.54500396355465,0,90,3.0,5,0.000927916774322657
6.76,0.010381647827441833,77.60277510805538,0,90,3.0,5,0.0021190743928944885
6.765,0.015115203303506243,77.72313394409493,0,90,3.0,5,0.004600699878245889
6.77,0.021170964062928475,77.96019364845812,0,90,3.0,5,0.009488528834187958
6.775,0.029082821134029553,78.40119339193035,0,90,3.0,5,0.018581307050110282
6.78,0.03923107061708144,79.17526941030879,0,90,3.0,5,0.034541637325954354
6.785,0.051969043308817596,80.45579048450003,0,90,3.0,5,0.06094413370103151
6.79,0.06760532616283861,82.44931195947832,0,90,3.0,5,0.10204766926759427
6.795,0.08636519236693461,85.36455622127653,0,90,3.0,5,0.16215579837683566
6.8,0.10834733138818661,89.35900055276574,0,90,3.0,5,0.24451547531475742
6.805,0.1334809643017884,94.46913761169944,0,90,3.0,5,0.3498791260144214
6.81,0.16148868344343945,100.54136540845477,0,90,3.0,5,0.47507969914339726
6.815,0.191860907532018,107.18914743882308,0,90,3.0,5,0.612147369872641
6.82,0.22384764873847726,113.8027021799891,0,90,3.0,5,0.7485093232987443
6.825,0.25647215537198226,119.62609966806052,0,90,3.0,5,0.868579374599186
6.83,0.2885689161419028,123.89459021136328,0,90,3.0,5,0.9565894888940882
6.835,0.31884566517832524,126.0,0,90,3.0,5,1.0
6.84,0.3459657668955683,125.63555232071732,0,90,3.0,5,0.992485614860151
6.845,0.3686441789190902,122.8728829839707,0,90,3.0,5,0.9355233604942412
6.85,0.3857476379544367,118.14488894980822,0,90,3.0,5,0.8380389474187262
6.855,0.3963882865005728,112.14032116465883,0,90,3.0,5,0.7142334260754398
6.86,0.4,105.64571806451514,0,90,3.0,5,0.5803240838044358
6.865,0.39638828650057273,99.38474665898676,0,90,3.0,5,0.4512318898760156
6.87,0.38574763795443656,93.89946334087666,0,90,3.0,5,0.3381332647603436
6.875,0.36864417891908974,89.49722210145336,0,90,3.0,5,0.24736540415367753
6.88,0.345965766895568,86.26179009897115,0,90,3.0,5,0.18065546595816798
6.885,0.3188456651783249,84.10837075711324,0,90,3.0,5,0.1362550671569739
6.89,0.28856891614190205,82.85525798893129,0,90,3.0,5,0.11041769049342856
6.895,0.2564721553719815,82.28893368935184,0,90,3.0,5,0.09874090081137807
6.9,0.22384764873847685,82.20954302821511,0,90,3.0,5,0.09710397996319811
6.905,0.19186090753201765,82.45412614899202,0,90,3.0,5,0.1021469309070519
6.91,0.16148868344343878,82.9020248457851,0,90,3.0,5,0.11138195558319808
6.915,0.1334809643017881,83.46956389310165,0,90,3.0,5,0.1230837916103433
6.92,0.10834733138818531,84.1004855952502,0,90,3.0,5,0.13609248650000424
6.925,0.08636519236690572,84.75645137662403,0,90,3.0,5,0.14961755415719646
6.93,0.06760532616242629,85.40966434514888,0,90,3.0,5,0.16308586278657491
6.935,0.05196904332202373,86.0380544133898,0,90,3.0,5,0.17604235903896498
6.94,0.03923107185803287,86.62263152761466,0,90,3.0,5,0.18809549541473522
6.945,0.02908287038705761,87.14635512742458,0,90,3.0,5,0.1988939201530842
6.95,0.02117220077308346,87.59392038235315,0,90,3.0,5,0.20812206973924013
6.955,0.0151361834125735,87.95201971947535,0,90,3.0,5,0.21550556122629577
6.96,0.010626454858290009,88.20979239540345,0,90,3.0,5,0.22082046176089595
6.965,0.007326255555493652,88.35928803931012,0,90,3.0,5,0.2239028461713426
6.97,0.004960179211183015,88.3958424677883,0,90,3.0,5,0.22465654572759378
6.975,0.0032978759379303545,88.31830826653777,0,90,3.0,5,0.22305790240284062
6.98,0.002153242296767213,88.12911092076266,0,90,3.0,5,0.21915692620129187
6.985,0.001380616732225004,87.83412164429782,0,90,3.0,5,0.21307467307830563
6.99,0.0008693106590991584,87.44235443924178,0,90,3.0,5,0.20499699874725325
6.995,0.000537524815942247,86.96550861191454,0,90,3.0,5,0.19516512601885658
7.0,0.0003263951340288585,86.41738895346812,0,90,3.0,5,0.18386368976222928
7.005,0.00019463030985187395,85.81324358973214,0,90,3.0,5,0.171407084324374
7.01,0.00011397219555062695,85.16906367666229,0,90,3.0,5,0.15812502426107813
7.015,6.55403863487943e-05,84.5008894969962,0,90,3.0,5,0.14434823705146793
7.02,3.701184389455385e-05,83.82416428298873,0,90,3.0,5,0.1303951398554378
7.025,2.0525516217290957e-05,83.15317077049401,0,90,3.0,5,0.11656022207204154
7.03,1.1178128483661116e-05,82.50057687127921,0,90,3.0,5,0.10310467775833418
7.035,5.978135409912517e-06,81.8771068894783,0,90,3.0,5,0.09024962658718141
7.04,3.1396702713238487e-06,81.29134441020258,0,90,3.0,5,0.07817204969489863
7.045,1.6192875458531019e-06,80.74966329577829,0,90,3.0,5,0.06700336692326372
7.05,8.201353897972012e-07,80.25627492189922,0,90,3.0,5,0.05683041076080865
7.055,4.0791415086824765e-07,79.81337343151264,0,90,3.0,5,0.04769842126830195
7.06,1.9923866938774793e-07,79.42135668043277,0,90,3.0,5,0.03961560165840754
7.065,9.556527981051257e-08,79.07909874103451,0,90,3.0,5,0.032558736928546675
7.07,4.501406988770349e-08,78.78425013843707,0,90,3.0,5,0.026479384297671618
7.075,0.0,78.5335440627456,0,90,3.0,5,0.021310186860734128
7.08,0.0,78.32309016640502,0,90,3.0,5,0.016970931266082963
7.085,0.0,78.14864170879353,0,90,3.0,5,0.013374055851413066
7.09,0.0,78.00582625821215,0,90,3.0,5,0.010429407385817584
7.095,0.0,77.89033447553675,0,90,3.0,5,0.008048133516221589
7.1,0.0,77.79806535061086,0,90,3.0,5,0.006145677332182583
7.105,0.0,77.72522941908457,0,90,3.0,5,0.0046439055481354696
7.11,0.0,77.66841384122971,0,90,3.0,5,0.0034724503346331417
7.115,0.0,77.62461476063879,0,90,3.0,5,0.0025693765080163334
7.12,0.0,77.59124314265756,0,90,3.0,5,0.001881301910465172
7.125,0.0,77.5661104364004,0,90,3.0,5,0.0013631017814514075
7.13,0.0,77.54740005593854,0,90,3.0,5,0.0009773207410008
7.135,0.0,77.53362998903987,0,90,3.0,5,0.0006934018358735332
7.14,0.0,77.52361095963337,0,90,3.0,5,0.00048682390996646063
7.145,0.0,77.51640361595736,0,90,3.0,5,0.00033821888571872985
7.15,0.0,77.51127728584574,0,90,3.0,5,0.00023252135764404482
7.155,0.0,77.50767200055635,0,90,3.0,5,0.0001581855784815344
7.16,0.0,77.50516477853803,0,90,3.0,5,0.00010649027913466187
7.165,0.0,77.503440597138,0,90,3.0,5,7.094014717516253e-05
7.17,0.0,77.5022680623265,0,90,3.0,5,4.676417168027292e-05
7.175,0.0,77.50147950074185,0,90,3.0,5,3.0505169935078867e-05
7.18,0.0,77.50095502431975,0,90,3.0,5,1.9691223087647813e-05
7.185,0.0,77.50061003213925,0,90,3.0,5,1.2577982252566668e-05
7.19,0.0,77.50038559380044,0,90,3.0,5,7.95038763803906e-06
7.195,0.0,77.50024118284321,0,90,3.0,5,4.9728421280745995e-06
7.2,0.0,77.50014928006648,0,90,3.0,5,3.0779395150644987e-06
7.205,0.0,77.50009143158961,0,90,3.0,5,1.8851874146323622e-06
7.21,0.0,77.50005541530939,0,90,3.0,5,1.1425836987655202e-06
7.215,0.0,77.50003323550604,0,90,3.0,5,6.852681657310126e-07
7.22,0.0,77.50001972485731,0,90,3.0,5,4.06698088869403e-07
7.225,0.0,77.50001158415837,0,90,3.0,5,2.3884862622891006e-07
7.23,0.0,77.50000673215557,0,90,3.0,6,1.388073313198229e-07
7.235,0.0,77.5000038715319,0,90,3.0,6,7.982540004489884e-08
7.24,0.001684486749771458,77.50000220318306,0,90,3.0,6,4.542645480852894e-08
7.245,0.004172395771277602,77.5000012406731,0,90,3.0,6,2.5580888665065207e-08
7.25,0.009438687428818865,77.50000069135831,0,90,3.0,6,1.4254810500376349e-08
7.255,0.019500507867137046,77.50000038123086,0,90,3.0,6,7.860430144122352e-09
7.26,0.03679496976339974,77.50000020802328,0,90,3.0,6,4.289139801632287e-09
7.265,0.06340728953298436,77.5000001123246,0,90,3.0,6,2.315971121638587e-09
7.27,0.09979255396093453,77.50000006001736,0,90,3.0,6,1.237471266351124e-09
7.275,0.14343835518453557,77.50000003173349,0,90,3.0,6,6.542988098631541e-10
7.28,0.18829581417209276,77.50000001660344,0,90,3.0,6,3.4233890407458886e-10
7.285,0.2257481735193119,77.50000000859642,0,90,3.0,6,1.772456912054697e-10
7.29,0.24718154073554727,77.50000000440428,0,90,3.0,6,9.080999869596425e-11
7.295,0.24718154074102772,77.50000000223291,0,90,3.0,6,4.603936018217619e-11
7.3,0.22574817354072055,77.50000000112023,0,90,3.0,6,2.3097473532879562e-11
7.305,0.18829581422840957,77.50000000055614,0,90,3.0,6,1.1466841222256297e-11
7.31,0.14343835532456656,77.5000000002732,0,90,3.0,6,5.633065606180588e-12
7.315,0.09979255431561854,77.50000000013281,0,90,3.0,6,2.738446353985112e-12
7.32,0.06340729067170194,77.50000000006389,0,90,3.0,6,1.3173608824649115e-12
7.325,0.03679497683410042,77.50000000003041,0,90,3.0,6,6.270356513511812e-13
7.33,0.019500578284482293,77.50000000001432,0,90,3.0,6,2.953513722252293e-13
7.335,0.009439396781978427,77.50000000000668,0,90,3.0,6,1.3771343744628745e-13
7.34,0.004178588733610924,77.50000000000308,0,90,3.0,6,6.358258707626464e-14
7.345,0.0017299316936037381,77.5000000000014,0,90,3.0,6,2.9007724057835016e-14
7.35,0.0008997325756988589,77.50000000000064,0,90,3.0,6,1.3185329117197736e-14
7.355,0.001634769674224814,77.50000000000028,0,90,3.0,6,5.860146274310104e-15
7.36,0.00614904736476635,77.50000000000013,0,90,3.0,6,2.637065823439547e-15
7.365,0.02168080359963608,77.50000000000006,0,90,3.0,6,1.172029254862021e-15
7.37,0.06433400338904088,77.50000000000003,0,90,3.0,6,5.860146274310105e-16
7.375,0.1593410769217493,77.50000000000001,0,90,3.0,6,2.9300731371550523e-16
7.38,0.3291989194808569,77.5,0,90,3.0,6,0.0
7.385,0.5672906802982638,77.5,0,90,3.0,6,0.0
7.39,0.815339152120446,77.5,0,90,3.0,6,0.0
7.395,0.9768711246313155,77.50000284150002,1,90,3.0,6,5.858762928180591e-08
7.4,0.9726380909165361,77.5000055087254,0,90,3.0,6,1.1358196688794948e-07
7.405,0.7921091683291741,77.50001136395807,0,90,3.0,6,2.3430841373428661e-07
7.41,0.49139090102639077,77.50002585890292,0,90,3.0,6,5.331732559967612e-07
7.415,0.15739335672107918,77.50006577270929,0,90,3.0,6,1.356138335905626e-06
7.42,-0.11102342218909485,77.50018247875063,0,90,3.0,6,3.76244846661487e-06
7.425,-0.2314207883647528,77.50052776496497,0,90,3.0,6,1.0881751855078582e-05
7.43,-0.2029124434754801,77.50152756139154,0,90,3.0,6,3.1496111165786474e-05
7.435,-0.11151350554305876,77.50430755613382,0,90,3.0,6,8.88155903881271e-05
7.44,-0.039430666652076896,77.5116563600092,0,90,3.0,6,0.00024033731977727622
7.445,-0.006087703519843621,77.53002739545968,0,90,3.0,6,0.0006191215558697577
7.45,0.005350271385530551,77.57333096905042,0,90,3.0,6,0.0015119787433075698
7.455,0.010381647827441833,77.66940490223725,0,90,3.0,6,0.0034928845822112743
7.46,0.015115203303506243,77.86976747664984,0,90,3.0,6,0.007624071683501874
7.465,0.021170964062928475,78.26211431813414,0,90,3.0,6,0.01571369728111625
7.47,0.029082821134029553,78.98267513398078,0,90,3.0,6,0.03057062131919128
7.475,0.03923107061708144,80.22218766058688,0,90,3.0,6,0.05612758063065738
7.48,0.051969043308817596,82.21612057642412,0,90,3.0,6,0.09723959951389932
7.485,0.06760532616283861,85.20932922752098,0,90,3.0,6,0.15895524180455634
7.49,0.08636519236693461,89.39039798617173,0,90,3.0,6,0.24516284507570588
7.495,0.10834733138818661,94.8028006534978,0,90,3.0,6,0.35675877636077935
7.5,0.1334809643017884,101.25612781731577,0,90,3.0,6,0.48981706839826333
7.505,0.16148868344343945,108.27370857382006,0,90,3.0,6,0.6345094551303105
7.51,0.191860907532018,115.11341104223824,0,90,3.0,6,0.775534248293572
7.515,0.22384764873847726,120.88000833622657,0,90,3.0,6,0.8944331615716817
7.52,0.25647215537198226,124.71329532894552,0,90,3.0,6,0.9734700067823818
7.525,0.2885689161419028,126.0,0,90,3.0,6,1.0
7.53,0.31884566517832524,124.53834900968857,0,90,3.0,6,0.9698628661791459
7.535,0.3459657668955683,120.59493192202842,0,90,3.0,6,0.8885552973614108
7.54,0.3686441789190902,114.83222413300682,0,90,3.0,6,0.7697365800619963
7.545,0.3857476379544367,108.13422420586735,0,90,3.0,6,0.6316334887807702
7.55,0.3963882865005728,101.3936098555063,0,90,3.0,6,0.492651749598068
7.555,0.4,95.33064507931,0,90,3.0,6,0.3676421665837114
7.56,0.39638828650057273,90.39185276201252,0,90,3.0,6,0.2658113971548973
7.565,0.38574763795443656,86.73955542986523,0,90,3.0,6,0.19050629752299453
7.57,0.36864417891908974,84.31059562557269,0,90,3.0,6,0.14042465207366367
7.575,0.345965766895568,82.9065602268215,0,90,3.0,6,0.11147546859425768
7.58,0.3188456651783249,82.28033336831763,0,90,3.0,6,0.09856357460448717
7.585,0.28856891614190205,82.19778113694667,0,90,3.0,6,0.09686146674116852
7.59,0.2564721553719815,82.46927305071628,0,90,3.0,6,0.1024592381590986
7.595,0.22384764873847685,82.95682150774277,0,90,3.0,6,0.11251178366479946
7.6,0.19186090753201765,83.56687754099825,0,90,3.0,6,0.12509025857728348
7.605,0.16148868344343878,84.23787322707521,0,90,3.0,6,0.1389252211768085
7.61,0.1334809643017881,84.92832444149448,0,90,3.0,6,0.15316132869060786
7.615,0.10834733138818531,85.60801881012263,0,90,3.0,6,0.16717564556953876
7.62,0.08636519236690572,86.25260772478875,0,90,3.0,6,0.18046613865543806
7.625,0.06760532616242629,86.84089403560439,0,90,3.0,6,0.19259575331143078
7.63,0.05196904332202373,87.35388295636871,0,90,3.0,6,0.20317284446121045
7.635,0.03923107185803287,87.77481720348132,0,90,3.0,6,0.21185190110270763
7.64,0.02908287038705761,88.08966243795557,0,90,3.0,6,0.21834355542176428
7.645,0.02117220077308346,88.28771551986046,0,90,3.0,6,0.22242712412083412
7.65,0.0151361834125735,88.36214631799686,0,90,3.0,6,0.22396177975251258
7.655,0.010626454858290009,88.31036736727964,0,90,3.0,6,0.22289417252122967
7.66,0.007326255555493652,88.13417633763018,0,90,3.0,6,0.21926136778618927
7.665,0.004960179211183015,87.83965035915766,0,90,3.0,6,0.213188667199127
7.67,0.0032978759379303545,87.43679744267308,0,90,3.0,6,0.20488242149841407
7.675,0.002153242296767213,86.9389917989111,0,90,3.0,6,0.1946183876064145
7.68,0.001380616732225004,86.36223716698538,0,90,3.0,6,0.18272653952547177
7.685,0.0008693106590991584,85.72431461211428,0,90,3.0,6,0.16957349715699555
7.69,0.000537524815942247,85.04387789533241,0,90,3.0,6,0.15554387413056525
7.695,0.0003263951340288585,84.33956014461978,0,90,3.0,6,0.14102185865195427
7.7,0.00019463030985187395,83.62915046826862,0,90,3.0,6,0.1263742364591468
7.705,0.00011397219555062695,82.92888923969679,0,90,3.0,6,0.11193586061230489
7.71,6.55403863487943e-05,82.25291740154772,0,90,3.0,6,0.09799829693912823
7.715,3.701184389455385e-05,81.61289990625842,0,90,3.0,6,0.08480205992285401
7.72,2.0525516217290957e-05,81.01782800176962,0,90,3.0,6,0.07253253611896114
7.725,1.1178128483661116e-05,80.47399100328275,0,90,3.0,6,0.0613194021295412
7.73,5.978135409912517e-06,79.9850966673004,0,90,3.0,6,0.05123910654227622
7.735,3.1396702713238487e-06,79.55251108450634,0,90,3.0,6,0.04231981617538835
7.74,1.6192875458531019e-06,79.17558445710158,0,90,3.0,6,0.034548133136115024
7.745,8.201353897972012e-07,78.85202811529082,0,90,3.0,6,0.027876868356511774
7.75,4.0791415086824765e-07,78.57831019218708,0,90,3.0,6,0.022233199838908767
7.755,1.9923866938774793e-07,78.35004180586505,0,90,3.0,6,0.01752663517247519
7.76,9.556527981051257e-08,78.16233155760507,0,90,3.0,6,0.013656320775362298
7.765,4.501406988770349e-08,78.01009280593172,0,90,3.0,6,0.01051737744189113
7.77,0.0,77.88829476616297,0,90,3.0,6,0.008006077652844772
7.775,0.0,77.79215442099877,0,90,3.0,6,0.006023802494820002
7.78,0.0,77.71727110655786,0,90,3.0,6,0.004479816630058962
7.785,0.0,77.65970925268655,0,90,3.0,6,0.003292974282196985
7.79,0.0,77.61603707332719,0,90,3.0,6,0.0023925169758183882
7.795,0.0,77.58333012691409,0,90,3.0,6,0.0017181469466823053
7.8,0.0,77.55914879585012,0,90,3.0,6,0.0012195628010334112
7.805,0.0,77.54149811404007,0,90,3.0,6,0.0008556312173209687
7.81,0.0,77.52877725728622,0,90,3.0,6,0.0005933455110561316
7.815,0.0,77.51972463735181,0,90,3.0,6,0.0004066935536456509
7.82,0.0,77.51336310074132,0,90,3.0,6,0.00027552785033640716
7.825,0.0,77.50894837231351,0,90,3.0,6,0.0001845025219280774
7.83,0.0,77.50592269592266,0,90,3.0,6,0.00012211744170440163
7.835,0.0,77.50387465835057,0,90,3.0,6,7.988986289831832e-05
7.84,0.0,77.50250545138663,0,90,3.0,6,5.1658791476807595e-05
7.845,0.0,77.50160131633649,0,90,3.0,6,3.301683168021236e-05
7.85,0.0,77.50101159546982,0,90,3.0,6,2.0857638552975802e-05
7.855,0.0,77.5006316481158,0,90,3.0,6,1.3023672490711779e-05
7.86,0.0,77.50038983616128,0,90,3.0,6,8.037858995371654e-06
7.865,0.0,77.50023780863849,0,90,3.0,6,4.903270896659603e-06
7.87,0.0,77.50014338764066,0,90,3.0,6,2.9564461992214493e-06
7.875,0.0,77.50008545439401,0,90,3.0,6,1.7619462682629541e-06
7.88,0.0,77.5000503379664,0,90,3.0,6,1.0378962144255338e-06
7.885,0.0,77.50002930863025,0,90,3.0,6,6.04301654562995e-07
7.89,0.0,77.50001686684932,0,90,3.0,6,3.47770089106656e-07
7.895,0.0,77.50000959424924,0,90,3.0,6,1.9781957185729233e-07
7.9,0.001684486749771458,77.50000539419466,0,90,3.0,6,1.1122050843190777e-07
7.905,0.004172395771277602,77.50000299764929,0,90,3.0,6,6.180720184911667e-08
7.91,0.009438687428818865,77.50000164654504,0,90,3.0,6,3.394938235689233e-08
7.915,0.019500507867137046,77.50000089393305,0,90,3.0,6,1.8431609246878916e-08
7.92,0.03679496976339974,77.50000047970579,0,90,3.0,6,9.890841025930826e-09
7.925,0.06340728953298436,77.5000002544389,0,90,3.0,6,5.246162926755695e-09
7.93,0.09979255396093453,77.50000013339228,0,90,3.0,6,2.750356222265706e-09
7.935,0.14343835518453557,77.50000006912201,0,90,3.0,6,1.4251960711243151e-09
7.94,0.18829581417209276,77.50000003540305,0,90,3.0,6,7.299597444253993e-10
7.945,0.2257481735193119,77.5000000179227,0,90,3.0,6,3.695402380433678e-10
7.95,0.24718154073554727,77.5000000089682,0,90,3.0,6,1.8491134854689477e-10
7.955,0.24718154074102772,77.50000000443552,0,90,3.0,6,9.145402877151092e-11
7.96,0.22574817354072055,77.50000000216832,0,90,3.0,6,4.4707641941339216e-11
7.965,0.18829581422840957,77.50000000104771,0,90,3.0,6,2.160225721098934e-11
7.97,0.14343835532456656,77.50000000050038,0,90,3.0,6,1.0317080523236655e-11
7.975,0.09979255431561854,77.5000000002362,0,90,3.0,6,4.870074561265413e-12
7.98,0.06340729067170194,77.5000000001102,0,90,3.0,6,2.272271717863743e-12
7.985,0.03679497683410042,77.50000000005083,0,90,3.0,6,1.0480871611603622e-12
7.99,0.019500578284482293,77.50000000002316,0,90,3.0,6,4.776019213562735e-13
7.995,0.009439396781978427,77.50000000001044,0,90,3.0,6,2.1536037558089634e-13
8.0,0.004178588733610924,77.50000000000465,0,90,3.0,6,9.581339158497021e-14
8.005,0.0017299316936037381,77.50000000000205,0,90,3.0,6,4.2193053175032755e-14
8.01,0.0008997325756988589,77.5000000000009,0,90,3.0,6,1.845946076407683e-14
8.015,0.001634769674224814,77.50000000000038,0,90,3.0,6,7.911197470318642e-15
8.02,0.00614904736476635,77.50000000000016,0,90,3.0,6,3.2230804508705575e-15
8.025,0.02168080359963608,77.50000000000007,0,90,3.0,6,1.465036568577526e-15
8.03,0.06433400338904088,77.50000000000003,0,90,3.0,6,5.860146274310105e-16
8.035,0.1593410769217493,77.50000000000001,0,90,3.0,6,2.9300731371550523e-16
8.04,0.3291989194808569,77.5,0,90,3.0,6,0.0
8.045,0.5672906802982638,77.5,0,90,3.0,6,0.0
8.05,0.815339152120446,77.5,0,90,3.0,6,0.0
8.055,0.9768711246313155,77.5000028551147,1,90,3.0,6,5.8868344352696425e-08
8.06,0.9726380909165361,77.50000509675978,0,90,3.0,6,1.0508783048797191e-07
8.065,0.7921091683291741,77.50000951136758,0,90,3.0,6,1.961106717476703e-07
8.07,0.49139090102639077,77.50001903897957,0,90,3.0,6,3.9255627986264145e-07
8.075,0.15739335672107918,77.50004154149926,0,90,3.0,6,8.565257578843603e-07
8.08,-0.11102342218909485,77.50009820262278,0,90,3.0,6,2.024796345984814e-06
8.085,-0.2314207883647528,77.5002450493498,0,90,3.0,6,5.0525639134081864e-06
8.09,-0.2029124434754801,77.50062532647016,0,90,3.0,6,1.2893329281587753e-05
8.095,-0.11151350554305876,77.50159006558083,0,90,3.0,6,3.278485733666148e-05
8.1,-0.039430666652076896,77.50395976386687,0,90,3.0,6,8.164461581183092e-05
8.105,-0.006087703519843621,77.509558029154,0,90,3.0,6,0.00019707276606171494
8.11,0.005350271385530551,77.52223006700713,0,90,3.0,6,0.0004583518970542093
8.115,0.010381647827441833,77.54965236886618,0,90,3.0,6,0.001023760182807768
8.12,0.015115203303506243,77.60630411554565,0,90,3.0,6,0.0021918374339310216
8.125,0.021170964062928475,77.71792412237131,0,90,3.0,6,0.004493280873635358
8.13,0.029082821134029553,77.92749908235004,0,90,3.0,6,0.008814414069072966
8.135,0.03923107061708144,78.30219445411461,0,90,3.0,6,0.016540091837414693
8.14,0.051969043308817596,78.9396010556152,0,90,3.0,6,0.029682495992065964
8.145,0.06760532616283861,79.97037813308847,0,90,3.0,6,0.05093563161007163
8.15,0.08636519236693461,81.55328051691828,0,90,3.0,6,0.08357279416326346
8.155,0.10834733138818661,83.85841525262556,0,90,3.0,6,0.13110134541496005
8.16,0.1334809643017884,87.03621626592275,0,90,3.0,6,0.19662301579222158
8.165,0.16148868344343945,91.17352049317606,0,90,3.0,6,0.2819282575912589
8.17,0.191860907532018,96.24382795723774,0,90,3.0,6,0.3864706795306751
8.175,0.22384764873847726,102.06464559783686,0,90,3.0,6,0.506487538099729
8.18,0.25647215537198226,108.27808647577884,0,90,3.0,6,0.6345997211500791
8.185,0.2885689161419028,114.36898440675728,0,90,3.0,6,0.7601852455001501
8.19,0.31884566517832524,119.726540843299,0,90,3.0,6,0.8706503266659589
8.195,0.3459657668955683,123.74247552860498,0,90,3.0,6,0.953453103682577
8.2,0.3686441789190902,125.92507722305399,0,90,3.0,6,0.99845520047534
8.205,0.3857476379544367,126.0,0,90,3.0,6,1.0
8.21,0.3963882865005728,123.96944364845882,0,90,3.0,6,0.9581328587311098
8.215,0.4,120.11225240741231,0,90,3.0,6,0.8786031424208725
8.22,0.39638828650057273,114.92489118114372,0,90,3.0,6,0.7716472408483241
8.225,0.38574763795443656,109.02069777638775,0,90,3.0,6,0.6499112943585102
8.23,0.36864417891908974,103.0157423158548,0,90,3.0,6,0.5260977797083463
8.235,0.345965766895568,97.43046142826427,0,90,3.0,6,0.41093734903637663
8.24,0.3188456651783249,92.62771663477741,0,90,3.0,6,0.31191168319128687
8.245,0.28856891614190205,88.79436262350897,0,90,3.0,6,0.23287345615482422
8.25,0.2564721553719815,85.9603564630008,0,90,3.0,6,0.1744403394433156
8.255,0.22384764873847685,84.04117422451625,0,90,3.0,6,0.1348695716395104
8.26,0.19186090753201765,82.88736818594299,0,90,3.0,6,0.11107975641119566
8.265,0.16148868344343878,82.32835607123288,0,90,3.0,6,0.09955373342748196
8.27,0.1334809643017881,82.20334847453948,0,90,3.0,6,0.09697625720699962
8.275,0.10834733138818531,82.37802533117728,0,90,3.0,6,0.100577841879944
8.28,0.08636519236690572,82.74947601817391,0,90,3.0,6,0.10823661893142078
8.285,0.06760532616242629,83.24356815260268,0,90,3.0,6,0.11842408562067375
8.29,0.05196904332202373,83.8087710734139,0,90,3.0,6,0.1300777540910081
8.295,0.03923107185803287,84.40936541562792,0,90,3.0,6,0.14246114259026632
8.3,0.02908287038705761,85.01967300626876,0,90,3.0,6,0.15504480425296413
8.305,0.02117220077308346,85.61989625769553,0,90,3.0,6,0.1674205413957841
8.31,0.0151361834125735,86.1935145858505,0,90,3.0,6,0.1792477234195978
8.315,0.010626454858290009,86.72590057808648,0,90,3.0,6,0.19022475418735013
8.32,0.007326255555493652,87.20376630633332,0,90,3.0,6,0.20007765580068704
8.325,0.004960179211183015,87.61511013467465,0,90,3.0,6,0.20855897184896188
8.33,0.0032978759379303545,87.94942531867703,0,90,3.0,6,0.2154520684263305
8.335,0.002153242296767213,88.19801300303018,0,90,3.0,6,0.220577587691344
8.34,0.001380616732225004,88.3543013569685,0,90,3.0,6,0.22380002797873208
8.345,0.0008693106590991584,88.41411121591545,0,90,3.0,6,0.2250332209467104
8.35,0.000537524815942247,88.37583294666375,0,90,3.0,6,0.2242439782817268
8.355,0.0003263951340288585,88.24049522363691,0,90,3.0,6,0.22145350976570954
8.36,0.00019463030985187395,88.01171798894731,0,90,3.0,6,0.2167364533803569
8.365,0.00011397219555062695,87.69555119971342,0,90,3.0,6,0.21021755050955507
8.37,6.55403863487943e-05,87.3002088822698,0,90,3.0,6,0.2020661625210268
8.375,3.701184389455385e-05,86.8357146365197,0,90,3.0,6,0.19248896157772571
8.38,2.0525516217290957e-05,86.31347988015781,0,90,3.0,6,0.18172123464242915
8.385,1.1178128483661116e-05,85.74583955071263,0,90,3.0,6,0.17001731032397177
8.39,5.978135409912517e-06,85.14557153020662,0,90,3.0,6,0.15764065010735306
8.395,3.1396702713238487e-06,84.5254256988194,0,90,3.0,6,0.1448541381199877
8.4,1.6192875458531019e-06,83.89768639140668,0,90,3.0,6,0.13191105961663258
8.405,8.201353897972012e-07,83.27378839713461,0,90,3.0,6,0.11904718344607441
8.41,4.0791415086824765e-07,82.66400189107254,0,90,3.0,6,0.10647426579531019
8.415,1.9923866938774793e-07,82.0771962680399,0,90,3.0,6,0.0943751807843278
8.42,9.556527981051257e-08,81.5206872343762,0,90,3.0,6,0.08290076771909685
8.425,4.501406988770349e-08,81.00016614843322,0,90,3.0,6,0.07216837419449945
8.43,0.0,80.51970586708367,0,90,3.0,6,0.06226197664090046
8.435,0.0,80.08183354198295,0,90,3.0,7,0.05323368127799887
8.44,0.0,79.68765809484466,0,90,3.0,7,0.04510635247102401
8.445,0.0,79.33703855163972,0,90,3.0,7,0.037877083538963345
8.45,0.0,79.02877899242638,0,90,3.0,7,0.03152121633868829
8.455,0.0,78.76083644990005,0,90,3.0,7,0.025996627832990813
8.46,0.0,78.53052947528113,0,90,3.0,7,0.021248030418167585
8.465,0.0,78.33473705710682,0,90,3.0,7,0.01721107334240868
8.47,0.0,78.17007988803523,0,90,3.0,7,0.013816080165674894
8.475,0.0,78.03307840011358,0,90,3.0,7,0.010991307218836724
8.48,0.0,77.92028433344609,0,90,3.0,7,0.008665656359713213
8.485,0.0,77.82838471233613,0,90,3.0,7,0.006770818811054251
8.49,0.0,77.75427887027756,0,90,3.0,7,0.00524286330469195
8.495,0.0,77.69513053223781,0,90,3.0,7,0.004023309943047667
8.5,0.0,77.64839791473344,0,90,3.0,7,0.0030597508192461167
8.505,0.0,77.6118453623572,0,90,3.0,7,0.0023060899455092966
8.51,0.0,77.58354025118703,0,90,3.0,7,0.001722479405918172
8.515,0.0,77.56183881887893,0,90,3.0,7,0.001275027193379905
8.52,0.0,77.54536429944484,0,90,3.0,7,0.0009353463803060113
8.525,0.0,77.53298031842075,0,90,3.0,7,0.0006800065653763894
8.53,0.0,77.52376200558362,0,90,3.0,7,0.0004899382594560885
8.535,0.0,77.51696676154249,0,90,3.0,7,0.00034983013489672837
8.54,0.0,77.51200611315076,0,90,3.0,7,0.0002475487247579622
8.545,0.0,77.50841963997159,0,90,3.0,7,0.00017360082415653852
8.55,0.0,77.50585156756235,0,90,3.0,7,0.00012065087757413184
8.555,0.0,77.50403031081224,0,90,3.0,7,8.309919200495145e-05
8.56,0.0,77.50275101189904,0,90,3.0,7,5.672189482549218e-05
8.565,0.0,77.5018609470294,0,90,3.0,7,3.837004184328949e-05
8.57,0.0,77.50124756495694,0,90,3.0,7,2.5722988802907323e-05
8.575,0.0,77.50082885762389,0,90,3.0,7,1.708984791519273e-05
8.58,0.0,77.5005457381559,0,90,3.0,7,1.1252333111481666e-05
8.585,0.0,77.50035610355962,0,90,3.0,7,7.342341435564917e-06
8.59,0.0,77.50023027984271,0,90,3.0,7,4.74803799404034e-06
8.595,0.0,77.50014757851864,0,90,3.0,7,3.0428560543460313e-06
8.6,0.0,77.50009372986307,0,90,3.0,7,1.9325744962358285e-06
8.605,0.0,77.50005899570995,0,90,3.0,7,1.2164063907066427e-06
8.61,0.0,77.50003680022672,0,90,3.0,7,7.587675613133788e-07
8.615,0.0,77.50002274930694,0,90,3.0,7,4.690578749694996e-07
8.62,0.0,77.50001393713347,0,90,3.0,7,2.8736357678295914e-07
8.625,0.0,77.50000846187025,0,90,3.0,7,1.7447155157954972e-07
8.63,0.0,77.50000509151324,0,90,3.0,7,1.0497965453180665e-07
8.635,0.0,77.50000303609255,0,90,3.0,7,6.25998464062091e-08
8.64,0.0,77.50000179419958,0,90,3.0,7,3.6993805700327245e-08
8.645,0.0,77.50000105078558,0,90,3.0,7,2.1665682160130826e-08
8.65,0.001684486749771458,77.50000060988096,0,90,3.0,7,1.2574865080488361e-08
8.655,0.004172395771277602,77.50000035080329,0,90,3.0,7,7.233057534360398e-09
8.66,0.009438687428818865,77.5000001999723,0,90,3.0,7,4.123140317141847e-09
8.665,0.019500507867137046,77.50000011297014,0,90,3.0,7,2.3292812718714276e-09
8.67,0.03679496976339974,77.50000006324775,0,90,3.0,7,1.3040773958976192e-09
8.675,0.06340728953298436,77.50000003509248,0,90,3.0,7,7.235563625914606e-10
8.68,0.09979255396093453,77.50000001929615,0,90,3.0,7,3.978588088993439e-10
8.685,0.14343835518453557,77.50000001051514,0,90,3.0,7,2.168069526887098e-10
8.69,0.18829581417209276,77.50000000567867,0,90,3.0,7,1.1708601556802962e-10
8.695,0.2257481735193119,77.50000000303925,0,90,3.0,7,6.266488816970767e-11
8.7,0.24718154073554727,77.50000000161204,0,90,3.0,7,3.3237870645945765e-11
8.705,0.24718154074102772,77.50000000084736,0,90,3.0,7,1.7471440102228146e-11
8.71,0.22574817354072055,77.50000000044142,0,90,3.0,7,9.101393178631024e-12
8.715,0.18829581422840957,77.50000000022789,0,90,3.0,7,4.698665282741842e-12
8.72,0.14343835532456656,77.5000000001166,0,90,3.0,7,2.4041250090357205e-12
8.725,0.09979255431561854,77.50000000005912,0,90,3.0,7,1.2189104250565017e-12
8.73,0.06340729067170194,77.5000000000297,0,90,3.0,7,6.12385285665406e-13
8.735,0.03679497683410042,77.5000000000148,0,90,3.0,7,3.050206135778409e-13
8.74,0.019500578284482293,77.5000000000073,0,90,3.0,7,1.5060575924976968e-13
