Time,ECG,Pressure,R_Peaks,mean_hr,hrv_scale,Phase_Bin,Normalized_Pressure
0.0,0.001684486749771458,77.5,0,90,3.0,0,0.0
0.005,0.004172395771277602,77.5,0,90,3.0,0,0.0
0.01,0.009438687428818865,77.5,0,90,3.0,0,0.0
0.015,0.019500507867137046,77.5,0,90,3.0,0,0.0
0.02,0.03679496976339974,77.5,0,90,3.0,0,0.0
0.025,0.06340728953298436,77.5,0,90,3.0,0,0.0
0.03,0.09979255396093453,77.5,0,90,3.0,0,0.0
0.035,0.14343835518453557,77.5,0,90,3.0,0,0.0
0.04,0.18829581417209276,77.5,0,90,3.0,0,0.0
0.045,0.2257481735193119,77.5,0,90,3.0,0,0.0
0.05,0.24718154073554727,77.5,0,90,3.0,0,0.0
0.055,0.24718154074102772,77.5,0,90,3.0,0,0.0
0.06,0.22574817354072055,77.5,0,90,3.0,0,0.0
0.065,0.18829581422840957,77.5,0,90,3.0,0,0.0
0.07,0.14343835532456656,77.5,0,90,3.0,0,0.0
0.075,0.09979255431561854,77.5,0,90,3.0,0,0.0
0.08,0.06340729067170194,77.5,0,90,3.0,0,0.0
0.085,0.03679497683410042,77.5,0,90,3.0,0,0.0
0.09,0.019500578284482293,77.5,0,90,3.0,0,0.0
0.095,0.009439396781978427,77.5,0,90,3.0,0,0.0
0.1,0.004178588733610924,77.5,0,90,3.0,0,0.0
0.105,0.0017299316936037381,77.5,0,90,3.0,0,0.0
0.11,0.0008997325756988589,77.5,0,90,3.0,0,0.0
0.115,0.001634769674224814,77.5,0,90,3.0,0,0.0
0.12,0.00614904736476635,77.5,0,90,3.0,0,0.0
0.125,0.02168080359963608,77.5,0,90,3.0,0,0.0
0.13,0.06433400338904088,77.5,0,90,3.0,0,0.0
0.135,0.1593410769217493,77.5,0,90,3.0,0,0.0
0.14,0.3291989194808569,77.5,0,90,3.0,0,0.0
0.145,0.5672906802982638,77.5,0,90,3.0,0,0.0
0.15,0.815339152120446,77.5,0,90,3.0,0,0.0
0.155,0.9768711246313155,77.5,0,90,3.0,0,0.0
0.16,0.9726380909165361,77.5,0,90,3.0,0,0.0
0.165,0.7921091683291741,77.5,0,90,3.0,0,0.0
0.17,0.49139090102639077,77.5,0,90,3.0,0,0.0
0.175,0.15739335672107918,77.5,0,90,3.0,0,0.0
0.18,-0.11102342218909485,77.5,0,90,3.0,0,0.0
0.185,-0.2314207883647528,77.5,0,90,3.0,0,0.0
0.19,-0.2029124434754801,77.5,0,90,3.0,0,0.0
0.195,-0.11151350554305876,77.5,0,90,3.0,0,0.0
0.2,-0.039430666652076896,77.5,0,90,3.0,0,0.0
0.205,-0.006087703519843621,77.5,0,90,3.0,0,0.0
0.21,0.005350271385530551,77.5,0,90,3.0,0,0.0
0.215,0.010381647827441833,77.5,0,90,3.0,0,0.0
0.22,0.015115203303506243,77.5,0,90,3.0,0,0.0
0.225,0.021170964062928475,77.5,0,90,3.0,0,0.0
0.23,0.029082821134029553,77.5,0,90,3.0,0,0.0
0.235,0.03923107061708144,77.5,0,90,3.0,0,0.0
0.24,0.051969043308817596,77.5,0,90,3.0,0,0.0
0.245,0.06760532616283861,77.5,0,90,3.0,0,0.0
0.25,0.08636519236693461,77.5,0,90,3.0,0,0.0
0.255,0.10834733138818661,77.5,0,90,3.0,0,0.0
0.26,0.1334809643017884,77.5,0,90,3.0,0,0.0
0.265,0.16148868344343945,77.5,0,90,3.0,0,0.0
0.27,0.191860907532018,77.5,0,90,3.0,0,0.0
0.275,0.22384764873847726,77.5,0,90,3.0,0,0.0
0.28,0.25647215537198226,77.5,0,90,3.0,0,0.0
0.285,0.2885689161419028,77.5,0,90,3.0,0,0.0
0.29,0.31884566517832524,77.5,0,90,3.0,0,0.0
0.295,0.3459657668955683,77.5,0,90,3.0,0,0.0
0.3,0.3686441789190902,77.5,0,90,3.0,0,0.0
0.305,0.3857476379544367,77.5,0,90,3.0,0,0.0
0.31,0.3963882865005728,77.5,0,90,3.0,0,0.0
0.315,0.4,77.5,0,90,3.0,0,0.0
0.32,0.39638828650057273,77.5,0,90,3.0,0,0.0
0.325,0.38574763795443656,77.5,0,90,3.0,0,0.0
0.33,0.36864417891908974,77.5,0,90,3.0,0,0.0
0.335,0.345965766895568,77.5,0,90,3.0,0,0.0
0.34,0.3188456651783249,77.5,0,90,3.0,0,0.0
0.345,0.28856891614190205,77.5,0,90,3.0,0,0.0
0.35,0.2564721553719815,77.5,0,90,3.0,0,0.0
0.355,0.22384764873847685,77.5,0,90,3.0,0,0.0
0.36,0.19186090753201765,77.5,0,90,3.0,0,0.0
0.365,0.16148868344343878,77.5,0,90,3.0,0,0.0
0.37,0.1334809643017881,77.5,0,90,3.0,0,0.0
0.375,0.10834733138818531,77.5,0,90,3.0,0,0.0
0.38,0.08636519236690572,77.5,0,90,3.0,0,0.0
0.385,0.06760532616242629,77.5,0,90,3.0,0,0.0
0.39,0.05196904332202373,77.5,0,90,3.0,0,0.0
0.395,0.03923107185803287,77.5,0,90,3.0,0,0.0
0.4,0.02908287038705761,77.5,0,90,3.0,0,0.0
0.405,0.02117220077308346,77.5,0,90,3.0,0,0.0
0.41,0.0151361834125735,77.5,0,90,3.0,0,0.0
0.415,0.010626454858290009,77.5,0,90,3.0,0,0.0
0.42,0.007326255555493652,77.5,0,90,3.0,0,0.0
0.425,0.004960179211183015,77.5,0,90,3.0,0,0.0
0.43,0.0032978759379303545,77.5,0,90,3.0,0,0.0
0.435,0.002153242296767213,77.5,0,90,3.0,0,0.0
0.44,0.001380616732225004,77.5,0,90,3.0,0,0.0
0.445,0.0008693106590991584,77.5,0,90,3.0,0,0.0
0.45,0.000537524815942247,77.5,0,90,3.0,0,0.0
0.455,0.0003263951340288585,77.5,0,90,3.0,0,0.0
0.46,0.00019463030985187395,77.5,0,90,3.0,0,0.0
0.465,0.00011397219555062695,77.5,0,90,3.0,0,0.0
0.47,6.55403863487943e-05,77.5,0,90,3.0,0,0.0
0.475,3.701184389455385e-05,77.5,0,90,3.0,0,0.0
0.48,2.0525516217290957e-05,77.5,0,90,3.0,0,0.0
0.485,1.1178128483661116e-05,77.5,0,90,3.0,0,0.0
0.49,5.978135409912517e-06,77.5,0,90,3.0,0,0.0
0.495,3.1396702713238487e-06,77.5,0,90,3.0,0,0.0
0.5,1.6192875458531019e-06,77.5,0,90,3.0,0,0.0
0.505,8.201353897972012e-07,77.5,0,90,3.0,0,0.0
0.51,4.0791415086824765e-07,77.5,0,90,3.0,0,0.0
0.515,1.9923866938774793e-07,77.5,0,90,3.0,0,0.0
0.52,9.556527981051257e-08,77.5,0,90,3.0,0,0.0
0.525,4.501406988770349e-08,77.5,0,90,3.0,0,0.0
0.53,0.0,77.5,0,90,3.0,0,0.0
0.535,0.0,77.5,0,90,3.0,0,0.0
0.54,0.0,77.5,0,90,3.0,0,0.0
0.545,0.0,77.5,0,90,3.0,0,0.0
0.55,0.0,77.5,0,90,3.0,0,0.0
0.555,0.0,77.5,0,90,3.0,0,0.0
0.56,0.0,77.5,0,90,3.0,0,0.0
0.565,0.0,77.5,0,90,3.0,0,0.0
0.57,0.001684486749771458,77.5,0,90,3.0,0,0.0
0.575,0.004172395771277602,77.5,0,90,3.0,0,0.0
0.58,0.009438687428818865,77.5,0,90,3.0,0,0.0
0.585,0.019500507867137046,77.5,0,90,3.0,0,0.0
0.59,0.03679496976339974,77.5,0,90,3.0,0,0.0
0.595,0.06340728953298436,77.5,0,90,3.0,0,0.0
0.6,0.09979255396093453,77.5,0,90,3.0,0,0.0
0.605,0.14343835518453557,77.5,0,90,3.0,0,0.0
0.61,0.18829581417209276,77.5,0,90,3.0,0,0.0
0.615,0.2257481735193119,77.5,0,90,3.0,0,0.0
0.62,0.24718154073554727,77.5,0,90,3.0,0,0.0
0.625,0.24718154074102772,77.5,0,90,3.0,0,0.0
0.63,0.22574817354072055,77.5,0,90,3.0,0,0.0
0.635,0.18829581422840957,77.5,0,90,3.0,0,0.0
0.64,0.14343835532456656,77.5,0,90,3.0,0,0.0
0.645,0.09979255431561854,77.5,0,90,3.0,0,0.0
0.65,0.06340729067170194,77.5,0,90,3.0,0,0.0
0.655,0.03679497683410042,77.5,0,90,3.0,0,0.0
0.66,0.019500578284482293,77.5,0,90,3.0,0,0.0
0.665,0.009439396781978427,77.5,0,90,3.0,0,0.0
0.67,0.004178588733610924,77.5,0,90,3.0,0,0.0
0.675,0.0017299316936037381,77.5,0,90,3.0,0,0.0
0.68,0.0008997325756988589,77.5,0,90,3.0,0,0.0
0.685,0.001634769674224814,77.5,0,90,3.0,0,0.0
0.69,0.00614904736476635,77.5,0,90,3.0,0,0.0
0.695,0.02168080359963608,77.5,0,90,3.0,0,0.0
0.7,0.06433400338904088,77.5,0,90,3.0,0,0.0
0.705,0.1593410769217493,77.5,0,90,3.0,0,0.0
0.71,0.3291989194808569,77.5,0,90,3.0,0,0.0
0.715,0.5672906802982638,77.5,0,90,3.0,0,0.0
0.72,0.815339152120446,77.5,0,90,3.0,0,0.0
0.725,0.9768711246313155,77.50000285066528,1,90,3.0,0,5.8776603762772095e-08
0.73,0.9726380909165361,77.50000533774794,0,90,3.0,0,1.1005665847620811e-07
0.735,0.7921091683291741,77.50001055134113,0,90,3.0,0,2.1755342544631426e-07
0.74,0.49139090102639077,77.50002272509559,0,90,3.0,0,4.685586719629616e-07
0.745,0.15739335672107918,77.50005414678377,0,90,3.0,0,1.1164285312949602e-06
0.75,-0.11102342218909485,77.500140505292,0,90,3.0,0,2.8970163297926024e-06
0.755,-0.2314207883647528,77.50038258369432,0,90,3.0,0,7.888323594182947e-06
0.76,-0.2029124434754801,77.5010527695429,0,90,3.0,0,2.1706588513294712e-05
0.765,-0.11151350554305876,77.50284972513398,0,90,3.0,0,5.875721925740811e-05
0.77,-0.039430666652076896,77.50746597756105,0,90,3.0,0,0.00015393768167121978
0.775,-0.006087703519843621,77.51876169890194,0,90,3.0,0,0.0003868391526173268
0.78,0.005350271385530551,77.54500396355465,0,90,3.0,0,0.000927916774322657
0.785,0.010381647827441833,77.60277510805538,0,90,3.0,0,0.0021190743928944885
0.79,0.015115203303506243,77.72313394409493,0,90,3.0,0,0.004600699878245889
0.795,0.021170964062928475,77.96019364845812,0,90,3.0,0,0.009488528834187958
0.8,0.029082821134029553,78.40119339193035,0,90,3.0,0,0.018581307050110282
0.805,0.03923107061708144,79.17526941030879,0,90,3.0,0,0.034541637325954354
0.81,0.051969043308817596,80.45579048450003,0,90,3.0,0,0.06094413370103151
0.815,0.06760532616283861,82.44931195947832,0,90,3.0,0,0.10204766926759427
0.82,0.08636519236693461,85.36455622127653,0,90,3.0,0,0.16215579837683566
0.825,0.10834733138818661,89.35900055276574,0,90,3.0,0,0.24451547531475742
0.83,0.1334809643017884,94.46913761169944,0,90,3.0,0,0.3498791260144214
0.835,0.16148868344343945,100.54136540845477,0,90,3.0,0,0.47507969914339726
0.84,0.191860907532018,107.18914743882308,0,90,3.0,0,0.612147369872641
0.845,0.22384764873847726,113.8027021799891,0,90,3.0,0,0.7485093232987443
0.85,0.25647215537198226,119.62609966806052,0,90,3.0,0,0.868579374599186
0.855,0.2885689161419028,123.89459021136328,0,90,3.0,0,0.9565894888940882
0.86,0.31884566517832524,126.0,0,90,3.0,0,1.0
0.865,0.3459657668955683,125.63555232071732,0,90,3.0,0,0.992485614860151
0.87,0.3686441789190902,122.8728829839707,0,90,3.0,0,0.9355233604942412
0.875,0.3857476379544367,118.14488894980822,0,90,3.0,0,0.8380389474187262
0.88,0.3963882865005728,112.14032116465883,0,90,3.0,0,0.7142334260754398
0.885,0.4,105.64571806451514,0,90,3.0,0,0.5803240838044358
0.89,0.39638828650057273,99.38474665898676,0,90,3.0,0,0.4512318898760156
0.895,0.38574763795443656,93.89946334087666,0,90,3.0,0,0.3381332647603436
0.9,0.36864417891908974,89.49722210145336,0,90,3.0,0,0.24736540415367753
0.905,0.345965766895568,86.26179009897115,0,90,3.0,0,0.18065546595816798
0.91,0.3188456651783249,84.10837075711324,0,90,3.0,0,0.1362550671569739
0.915,0.28856891614190205,82.85525798893129,0,90,3.0,0,0.11041769049342856
0.92,0.2564721553719815,82.28893368935184,0,90,3.0,0,0.09874090081137807
0.925,0.22384764873847685,82.20954302821511,0,90,3.0,0,0.09710397996319811
0.93,0.19186090753201765,82.45412614899202,0,90,3.0,0,0.1021469309070519
0.935,0.16148868344343878,82.9020248457851,0,90,3.0,0,0.11138195558319808
0.94,0.1334809643017881,83.46956389310165,0,90,3.0,0,0.1230837916103433
0.945,0.10834733138818531,84.1004855952502,0,90,3.0,0,0.13609248650000424
0.95,0.08636519236690572,84.75645137662403,0,90,3.0,0,0.14961755415719646
0.955,0.06760532616242629,85.40966434514888,0,90,3.0,0,0.16308586278657491
0.96,0.05196904332202373,86.0380544133898,0,90,3.0,0,0.17604235903896498
0.965,0.03923107185803287,86.62263152761466,0,90,3.0,0,0.18809549541473522
0.97,0.02908287038705761,87.14635512742458,0,90,3.0,0,0.1988939201530842
0.975,0.02117220077308346,87.59392038235315,0,90,3.0,0,0.20812206973924013
0.98,0.0151361834125735,87.95201971947535,0,90,3.0,0,0.21550556122629577
0.985,0.010626454858290009,88.20979239540345,0,90,3.0,0,0.22082046176089595
0.99,0.007326255555493652,88.35928803931012,0,90,3.0,0,0.2239028461713426
0.995,0.004960179211183015,88.3958424677883,0,90,3.0,0,0.22465654572759378
1.0,0.0032978759379303545,88.31830826653777,0,90,3.0,0,0.22305790240284062
1.005,0.002153242296767213,88.12911092076266,0,90,3.0,0,0.21915692620129187
1.01,0.001380616732225004,87.83412164429782,0,90,3.0,0,0.21307467307830563
1.015,0.0008693106590991584,87.44235443924178,0,90,3.0,0,0.20499699874725325
1.02,0.000537524815942247,86.96550861191454,0,90,3.0,0,0.19516512601885658
1.025,0.0003263951340288585,86.41738895346812,0,90,3.0,0,0.18386368976222928
1.03,0.00019463030985187395,85.81324358973214,0,90,3.0,0,0.171407084324374
1.035,0.00011397219555062695,85.16906367666229,0,90,3.0,0,0.15812502426107813
1.04,6.55403863487943e-05,84.5008894969962,0,90,3.0,0,0.14434823705146793
1.045,3.701184389455385e-05,83.82416428298873,0,90,3.0,0,0.1303951398554378
1.05,2.0525516217290957e-05,83.15317077049401,0,90,3.0,0,0.11656022207204154
1.055,1.1178128483661116e-05,82.50057687127921,0,90,3.0,0,0.10310467775833418
1.06,5.978135409912517e-06,81.8771068894783,0,90,3.0,0,0.09024962658718141
1.065,3.1396702713238487e-06,81.29134441020258,0,90,3.0,0,0.07817204969489863
1.07,1.6192875458531019e-06,80.74966329577829,0,90,3.0,0,0.06700336692326372
1.075,8.201353897972012e-07,80.25627492189922,0,90,3.0,0,0.05683041076080865
1.08,4.0791415086824765e-07,79.81337343151264,0,90,3.0,0,0.04769842126830195
1.085,1.9923866938774793e-07,79.42135668043277,0,90,3.0,0,0.03961560165840754
1.09,9.556527981051257e-08,79.07909874103451,0,90,3.0,0,0.032558736928546675
1.095,4.501406988770349e-08,78.78425013843707,0,90,3.0,0,0.026479384297671618
1.1,0.0,78.5335440627456,0,90,3.0,0,0.021310186860734128
1.105,0.0,78.32309016640502,0,90,3.0,0,0.016970931266082963
1.11,0.0,78.14864170879353,0,90,3.0,0,0.013374055851413066
1.115,0.0,78.00582625821215,0,90,3.0,0,0.010429407385817584
1.12,0.0,77.89033447553675,0,90,3.0,0,0.008048133516221589
1.125,0.0,77.79806535061086,0,90,3.0,0,0.006145677332182583
1.13,0.0,77.72522941908457,0,90,3.0,0,0.0046439055481354696
1.135,0.0,77.66841384122971,0,90,3.0,0,0.0034724503346331417
1.14,0.0,77.62461476063879,0,90,3.0,0,0.0025693765080163334
1.145,0.0,77.59124314265756,0,90,3.0,0,0.001881301910465172
1.15,0.0,77.5661104364004,0,90,3.0,0,0.0013631017814514075
1.155,0.0,77.54740005593854,0,90,3.0,0,0.0009773207410008
1.16,0.0,77.53362998903987,0,90,3.0,0,0.0006934018358735332
1.165,0.0,77.52361095963337,0,90,3.0,0,0.00048682390996646063
1.17,0.0,77.51640361595736,0,90,3.0,0,0.00033821888571872985
1.175,0.0,77.51127728584574,0,90,3.0,0,0.00023252135764404482
1.18,0.0,77.50767200055635,0,90,3.0,0,0.0001581855784815344
1.185,0.0,77.50516477853803,0,90,3.0,0,0.00010649027913466187
1.19,0.0,77.503440597138,0,90,3.0,0,7.094014717516253e-05
1.195,0.0,77.5022680623265,0,90,3.0,0,4.676417168027292e-05
1.2,0.0,77.50147950074185,0,90,3.0,0,3.0505169935078867e-05
1.205,0.0,77.50095502431975,0,90,3.0,1,1.9691223087647813e-05
1.21,0.0,77.50061003213925,0,90,3.0,1,1.2577982252566668e-05
1.215,0.0,77.50038559380044,0,90,3.0,1,7.95038763803906e-06
1.22,0.0,77.50024118284321,0,90,3.0,1,4.9728421280745995e-06
1.225,0.0,77.50014928006648,0,90,3.0,1,3.0779395150644987e-06
1.23,0.0,77.50009143158961,0,90,3.0,1,1.8851874146323622e-06
1.235,0.0,77.50005541530939,0,90,3.0,1,1.1425836987655202e-06
1.24,0.0,77.50003323550604,0,90,3.0,1,6.852681657310126e-07
1.245,0.0,77.50001972485731,0,90,3.0,1,4.06698088869403e-07
1.25,0.0,77.50001158415837,0,90,3.0,1,2.3884862622891006e-07
1.255,0.0,77.50000673215557,0,90,3.0,1,1.388073313198229e-07
1.26,0.0,77.5000038715319,0,90,3.0,1,7.982540004489884e-08
1.265,0.001684486749771458,77.50000220318306,0,90,3.0,1,4.542645480852894e-08
1.27,0.004172395771277602,77.5000012406731,0,90,3.0,1,2.5580888665065207e-08
1.275,0.009438687428818865,77.50000069135831,0,90,3.0,1,1.4254810500376349e-08
1.28,0.019500507867137046,77.50000038123086,0,90,3.0,1,7.860430144122352e-09
1.285,0.03679496976339974,77.50000020802328,0,90,3.0,1,4.289139801632287e-09
1.29,0.06340728953298436,77.5000001123246,0,90,3.0,1,2.315971121638587e-09
1.295,0.09979255396093453,77.50000006001736,0,90,3.0,1,1.237471266351124e-09
1.3,0.14343835518453557,77.50000003173349,0,90,3.0,1,6.542988098631541e-10
1.305,0.18829581417209276,77.50000001660344,0,90,3.0,1,3.4233890407458886e-10
1.31,0.2257481735193119,77.50000000859642,0,90,3.0,1,1.772456912054697e-10
1.315,0.24718154073554727,77.50000000440428,0,90,3.0,1,9.080999869596425e-11
1.32,0.24718154074102772,77.50000000223291,0,90,3.0,1,4.603936018217619e-11
1.325,0.22574817354072055,77.50000000112023,0,90,3.0,1,2.3097473532879562e-11
1.33,0.18829581422840957,77.50000000055614,0,90,3.0,1,1.1466841222256297e-11
1.335,0.14343835532456656,77.5000000002732,0,90,3.0,1,5.633065606180588e-12
1.34,0.09979255431561854,77.50000000013281,0,90,3.0,1,2.738446353985112e-12
1.345,0.06340729067170194,77.50000000006389,0,90,3.0,1,1.3173608824649115e-12
1.35,0.03679497683410042,77.50000000003041,0,90,3.0,1,6.270356513511812e-13
1.355,0.019500578284482293,77.50000000001432,0,90,3.0,1,2.953513722252293e-13
1.36,0.009439396781978427,77.50000000000668,0,90,3.0,1,1.3771343744628745e-13
1.365,0.004178588733610924,77.50000000000308,0,90,3.0,1,6.358258707626464e-14
1.37,0.0017299316936037381,77.5000000000014,0,90,3.0,1,2.9007724057835016e-14
1.375,0.0008997325756988589,77.50000000000064,0,90,3.0,1,1.3185329117197736e-14
1.38,0.001634769674224814,77.50000000000028,0,90,3.0,1,5.860146274310104e-15
1.385,0.00614904736476635,77.50000000000013,0,90,3.0,1,2.637065823439547e-15
1.39,0.02168080359963608,77.50000000000006,0,90,3.0,1,1.172029254862021e-15
1.395,0.06433400338904088,77.50000000000003,0,90,3.0,1,5.860146274310105e-16
1.4,0.1593410769217493,77.50000000000001,0,90,3.0,1,2.9300731371550523e-16
1.405,0.3291989194808569,77.5,0,90,3.0,1,0.0
1.41,0.5672906802982638,77.5,0,90,3.0,1,0.0
1.415,0.815339152120446,77.5,0,90,3.0,1,0.0
1.42,0.9768711246313155,77.50000284170193,1,90,3.0,1,5.859179232971918e-08
1.425,0.9726380909165361,77.50000503285692,0,90,3.0,1,1.0377024574791932e-07
1.43,0.7921091683291741,77.50000930409628,0,90,3.0,1,1.9183703672105056e-07
1.435,0.49139090102639077,77.50001840464809,0,90,3.0,1,3.7947728016951796e-07
1.44,0.15739335672107918,77.50003958615409,0,90,3.0,1,8.162093626403297e-07
1.445,-0.11102342218909485,77.5000921414233,0,90,3.0,1,1.8998231607182197e-06
1.45,-0.2314207883647528,77.50022652678895,0,90,3.0,1,4.6706554422650425e-06
1.455,-0.2029124434754801,77.50057050667888,0,90,3.0,1,1.1763024306875786e-05
1.46,-0.11151350554305876,77.5014346633525,0,90,3.0,1,2.958068768037068e-05
1.465,-0.039430666652076896,77.5035402483488,0,90,3.0,1,7.299481131543328e-05
1.47,-0.006087703519843621,77.5084824168074,0,90,3.0,1,0.00017489519190508197
1.475,0.005350271385530551,77.51961353181807,0,90,3.0,1,0.00040440271789827993
1.48,0.010381647827441833,77.54361522582357,0,90,3.0,1,0.0008992830066715927
1.485,0.015115203303506243,77.59309207295647,0,90,3.0,1,0.0019194241846694053
1.49,0.021170964062928475,77.69049761660041,0,90,3.0,1,0.003927785909286813
1.495,0.029082821134029553,77.8734934172902,0,90,3.0,1,0.0077008952018599135
1.5,0.03923107061708144,78.20133133287578,0,90,3.0,1,0.014460439853108902
1.505,0.051969043308817596,78.76097869260391,0,90,3.0,1,0.02599956067224564
1.51,0.06760532616283861,79.67056732260144,0,90,3.0,1,0.044753965414462735
1.515,0.08636519236693461,81.07668200469112,0,90,3.0,1,0.07374602071528087
1.52,0.10834733138818661,83.14162477864075,0,90,3.0,1,0.1163221603843453
1.525,0.1334809643017884,86.01784071349742,0,90,3.0,1,0.1756255817215963
1.53,0.16148868344343945,89.80969422797408,0,90,3.0,1,0.25380812841183664
1.535,0.191860907532018,94.52758547167707,0,90,3.0,1,0.35108423652942417
1.54,0.22384764873847726,100.04479939843002,0,90,3.0,1,0.46484122470989725
1.545,0.25647215537198226,106.07132404484602,0,90,3.0,1,0.589099464842186
1.55,0.2885689161419028,112.15872126191934,0,90,3.0,1,0.7146128095241101
1.555,0.31884566517832524,117.74445800121651,0,90,3.0,1,0.8297826392003405
1.56,0.3459657668955683,122.23346230346327,0,90,3.0,1,0.922339428937387
1.565,0.3686441789190902,125.10210180274234,0,90,3.0,1,0.9814866351080894
1.57,0.3857476379544367,126.0,0,90,3.0,1,1.0
1.575,0.3963882865005728,124.82253010733184,0,90,3.0,1,0.9757222702542648
1.58,0.4,121.73341154269684,0,90,3.0,1,0.9120291039731308
1.585,0.39638828650057273,117.13081994280068,0,90,3.0,1,0.8171303080989832
1.59,0.38574763795443656,111.56683901662487,0,90,3.0,1,0.7024090518891726
1.595,0.36864417891908974,105.64288097089806,0,90,3.0,1,0.580265587028826
1.6,0.345965766895568,99.90843683080504,0,90,3.0,1,0.4620296253774236
1.605,0.3188456651783249,94.78620717559241,0,90,3.0,1,0.3564166427957198
1.61,0.28856891614190205,90.53591316349355,0,90,3.0,1,0.26878171471120715
1.615,0.2564721553719815,87.25656497713105,0,90,3.0,1,0.20116628818826904
1.62,0.22384764873847685,84.91716751525064,0,90,3.0,1,0.15293128897424
1.625,0.19186090753201765,83.40133290066056,0,90,3.0,1,0.12167696702392913
1.63,0.16148868344343878,82.55210677419915,0,90,3.0,1,0.10416714998348754
1.635,0.1334809643017881,82.20768344907756,0,90,3.0,1,0.09706563812531059
1.64,0.10834733138818531,82.22411640343044,0,90,3.0,1,0.0974044619264009
1.645,0.08636519236690572,82.48562548468695,0,90,3.0,1,0.10279640174612266
1.65,0.06760532616242629,82.90569019111014,0,90,3.0,1,0.11145752971361111
1.655,0.05196904332202373,83.42281838807591,0,90,3.0,1,0.12211996676445176
1.66,0.03923107185803287,83.99429823516142,0,90,3.0,1,0.1339030563950809
1.665,0.02908287038705761,84.59011548964331,0,90,3.0,1,0.14618794824006826
1.67,0.02117220077308346,85.18811147604099,0,90,3.0,1,0.15851776239259768
1.675,0.0151361834125735,85.77065412755941,0,90,3.0,1,0.1705289510836992
1.68,0.010626454858290009,86.32264810961959,0,90,3.0,1,0.1819102703014349
1.685,0.007326255555493652,86.830542901149,0,90,3.0,1,0.19238232785874232
1.69,0.004960179211183015,87.28199626292012,0,90,3.0,1,0.20169064459629107
1.695,0.0032978759379303545,87.66591973310685,0,90,3.0,1,0.20960659243519272
1.7,0.002153242296767213,87.97271414579524,0,90,3.0,1,0.21593225042876776
1.705,0.001380616732225004,88.19457042241281,0,90,3.0,1,0.2205066066476868
1.71,0.0008693106590991584,88.32575807551892,0,90,3.0,1,0.2232115067117303
1.715,0.000537524815942247,88.36285431258266,0,90,3.0,1,0.22397637757902383
1.72,0.0003263951340288585,88.30488598470359,0,90,3.0,1,0.22278115432378534
1.725,0.00019463030985187395,88.15336966408535,0,90,3.0,1,0.21965710647598652
1.73,0.00011397219555062695,87.91224489901583,0,90,3.0,1,0.21468546183537798
1.735,6.55403863487943e-05,87.58770372647423,0,90,3.0,1,0.20799389126750992
1.74,3.701184389455385e-05,87.18792637142545,0,90,3.0,1,0.19975105920464842
1.745,2.0525516217290957e-05,86.72273875212919,0,90,3.0,1,0.1901595618995709
1.75,1.1178128483661116e-05,86.20321175685625,0,90,3.0,1,0.17944766508981955
1.755,5.978135409912517e-06,85.64122505394732,0,90,3.0,1,0.16786031039066646
1.76,3.1396702713238487e-06,85.04901931930311,0,90,3.0,1,0.15564988287222914
1.765,1.6192875458531019e-06,84.4387602126974,0,90,3.0,1,0.14306722088035884
1.77,8.201353897972012e-07,83.82213533947811,0,90,3.0,1,0.1303533059686208
1.775,4.0791415086824765e-07,83.2100020492971,0,90,3.0,1,0.1177320010164351
1.78,1.9923866938774793e-07,82.61209959132367,0,90,3.0,1,0.10540411528502412
1.785,9.556527981051257e-08,82.03683426260197,0,90,3.0,1,0.09354297448663858
1.79,4.501406988770349e-08,81.49114116317358,0,90,3.0,1,0.08229157037471299
1.795,0.0,80.98042139400573,0,90,3.0,1,0.07176126585578826
1.8,0.0,80.50854933008819,0,90,3.0,1,0.06203194495027189
1.805,0.0,80.07794121862382,0,90,3.0,1,0.05315342718812001
1.81,0.0,79.68967394383145,0,90,3.0,1,0.04514791636765879
1.815,0.0,79.343641421038,0,90,3.0,1,0.038013225176041256
1.82,0.0,79.03873569877285,0,90,3.0,1,0.031726509253048533
1.825,0.0,78.7730403484588,0,90,3.0,1,0.026248254607398075
1.83,0.0,78.54402494176766,0,90,3.0,1,0.021526287459127005
1.835,0.0,78.34873115785241,0,90,3.0,1,0.017499611502111604
1.84,0.0,78.18394311820627,0,90,3.0,1,0.014101919963015928
1.845,0.0,78.04633671698512,0,90,3.0,1,0.011264674577012863
1.85,0.0,77.9326048255094,0,90,3.0,1,0.008919687123905172
1.855,0.0,77.83955716327065,0,90,3.0,1,0.007001178624137214
1.86,0.0,77.76419524710677,0,90,3.0,1,0.005447324682613807
1.865,0.0,77.70376409986814,0,90,3.0,1,0.004201321646765737
1.87,0.0,77.6557833026171,0,90,3.0,1,0.003212026858084441
1.875,0.0,77.61806052479223,0,90,3.0,1,0.002434237624582006
1.88,0.0,77.58869090336411,0,90,3.0,1,0.0018286784198785638
1.885,0.0,77.56604561884642,0,90,3.0,1,0.0013617653370395194
1.89,0.0,77.54875279463894,0,90,3.0,1,0.001005212260596772
1.895,0.0,77.53567348873486,0,90,3.0,1,0.0007355358502032573
1.9,0.0,77.52587511080905,0,90,3.0,1,0.0005335074393619296
1.905,0.0,77.51860413229706,0,90,3.0,1,0.0003835903566403445
1.91,0.0,77.51325950118392,0,90,3.0,1,0.0002733917769881293
1.915,0.0,77.50936775491698,0,90,3.0,1,0.00019314958591710763
1.92,0.0,77.50656046193507,0,90,3.0,1,0.00013526725639312456
1.925,0.0,77.50455432360889,0,90,3.0,1,9.390357956466144e-05
1.93,0.0,77.50313403555388,0,90,3.0,1,6.461928977081388e-05
1.935,0.0,77.50213783664955,0,90,3.0,1,4.4079106176341905e-05
1.94,0.0,77.50144555853898,0,90,3.0,1,2.98053307005244e-05
1.945,0.0,77.50096891887269,0,90,3.0,1,1.99777087151894e-05
1.95,0.0,77.50064376848633,0,90,3.0,1,1.3273577037674016e-05
1.955,0.0,77.50042399679897,0,90,3.0,1,8.742202040657129e-06
1.96,0.0,77.50027681269826,0,90,3.0,1,5.7074783146430326e-06
1.965,0.0,77.50017914306727,0,90,3.0,1,3.6936714901251614e-06
1.97,0.0,77.50011492236888,0,90,3.0,1,2.369533378966771e-06
1.975,0.0,77.50007308019532,0,90,3.0,1,1.5068081509492838e-06
1.98,0.0,77.50004606651895,0,90,3.0,1,9.498251329463079e-07
1.985,0.0,77.50002878469674,0,90,3.0,1,5.934989018179604e-07
1.99,0.0,77.50001782906168,0,90,3.0,1,3.6760951909095593e-07
1.995,0.0,77.50001094676722,0,90,3.0,1,2.2570654059610703e-07
2.0,0.0,77.50000666244819,0,90,3.0,1,1.3737006569143203e-07
2.005,0.0,77.50000401950314,0,90,3.0,1,8.287635334932723e-08
2.01,0.0,77.50000240381736,0,90,3.0,1,4.9563244578372907e-08
2.015,0.0,77.50000142502056,0,90,3.0,1,2.9381867147769542e-08
2.02,0.0,77.50000083739691,0,90,3.0,1,1.7265915689161365e-08
2.025,0.001684486749771458,77.50000048778917,0,90,3.0,1,1.0057508567096539e-08
2.03,0.004172395771277602,77.50000028165891,0,90,3.0,1,5.807400269724294e-09
2.035,0.009438687428818865,77.500000161215,0,90,3.0,1,3.324020591423608e-09
2.04,0.019500507867137046,77.50000009146984,0,90,3.0,1,1.8859761495928676e-09
2.045,0.03679496976339974,77.50000005144474,0,90,3.0,1,1.060716362396128e-09
2.05,0.06340728953298436,77.50000002868101,0,90,3.0,1,5.913611318843773e-10
2.055,0.09979255396093453,77.50000001585035,0,90,3.0,1,3.2681127449154937e-10
2.06,0.14343835518453557,77.50000000868307,0,90,3.0,1,1.7903244980450685e-10
2.065,0.18829581417209276,77.50000000471519,0,90,3.0,1,9.722041270543207e-11
2.07,0.2257481735193119,77.50000000253813,0,90,3.0,1,5.2332571266157815e-11
2.075,0.24718154073554727,77.50000000135432,0,90,3.0,1,2.792418301171508e-11
2.08,0.24718154074102772,77.50000000071634,0,90,3.0,1,1.4769912669771188e-11
2.085,0.22574817354072055,77.50000000037558,0,90,3.0,1,7.743890294187087e-12
2.09,0.18829581422840957,77.5000000001952,0,90,3.0,1,4.02474846119618e-12
2.095,0.14343835532456656,77.50000000010057,0,90,3.0,1,2.0736127591646305e-12
2.1,0.09979255431561854,77.50000000005136,0,90,3.0,1,1.058928431767836e-12
2.105,0.06340729067170194,77.50000000002599,0,90,3.0,1,5.359103767856591e-13
2.11,0.03679497683410042,77.50000000001305,0,90,3.0,1,2.689807139908338e-13
2.115,0.019500578284482293,77.5000000000065,0,90,3.0,1,1.339043423679859e-13
2.12,0.009439396781978427,77.5000000000032,0,90,3.0,1,6.592664558598868e-14
2.125,0.004178588733610924,77.50000000000156,0,90,3.0,1,3.2230804508705575e-14
2.13,0.0017299316936037381,77.50000000000075,0,90,3.0,1,1.5529387626921776e-14
2.135,0.0008997325756988589,77.50000000000037,0,90,3.0,1,7.618190156603136e-15
2.14,0.001634769674224814,77.50000000000017,0,90,3.0,1,3.516087764586063e-15
2.145,0.00614904736476635,77.50000000000009,0,90,3.0,1,1.7580438822930315e-15
2.15,0.02168080359963608,77.50000000000004,0,90,3.0,1,8.790219411465157e-16
2.155,0.06433400338904088,77.50000000000001,0,90,3.0,1,2.9300731371550523e-16
2.16,0.1593410769217493,77.50000000000001,0,90,3.0,1,2.9300731371550523e-16
2.165,0.3291989194808569,77.5,0,90,3.0,1,0.0
2.17,0.5672906802982638,77.5,0,90,3.0,1,0.0
2.175,0.815339152120446,77.5,0,90,3.0,1,0.0
2.18,0.9768711246313155,77.50000285066528,1,90,3.0,1,5.8776603762772095e-08
2.185,0.9726380909165361,77.50000533774794,0,90,3.0,1,1.1005665847620811e-07
2.19,0.7921091683291741,77.50001055134113,0,90,3.0,1,2.1755342544631426e-07
2.195,0.49139090102639077,77.50002272509559,0,90,3.0,1,4.685586719629616e-07
2.2,0.15739335672107918,77.50005414678377,0,90,3.0,1,1.1164285312949602e-06
2.205,-0.11102342218909485,77.500140505292,0,90,3.0,1,2.8970163297926024e-06
2.21,-0.2314207883647528,77.50038258369432,0,90,3.0,1,7.888323594182947e-06
2.215,-0.2029124434754801,77.5010527695429,0,90,3.0,1,2.1706588513294712e-05
2.22,-0.11151350554305876,77.50284972513398,0,90,3.0,1,5.875721925740811e-05
2.225,-0.039430666652076896,77.50746597756105,0,90,3.0,1,0.00015393768167121978
2.23,-0.006087703519843621,77.51876169890194,0,90,3.0,1,0.0003868391526173268
2.235,0.005350271385530551,77.54500396355465,0,90,3.0,1,0.000927916774322657
2.24,0.010381647827441833,77.60277510805538,0,90,3.0,1,0.0021190743928944885
2.245,0.015115203303506243,77.72313394409493,0,90,3.0,1,0.004600699878245889
2.25,0.021170964062928475,77.96019364845812,0,90,3.0,1,0.009488528834187958
2.255,0.029082821134029553,78.40119339193035,0,90,3.0,1,0.018581307050110282
2.26,0.03923107061708144,79.17526941030879,0,90,3.0,1,0.034541637325954354
2.265,0.051969043308817596,80.45579048450003,0,90,3.0,1,0.06094413370103151
2.27,0.06760532616283861,82.44931195947832,0,90,3.0,1,0.10204766926759427
2.275,0.08636519236693461,85.36455622127653,0,90,3.0,1,0.16215579837683566
2.28,0.10834733138818661,89.35900055276574,0,90,3.0,1,0.24451547531475742
2.285,0.1334809643017884,94.46913761169944,0,90,3.0,1,0.3498791260144214
2.29,0.16148868344343945,100.54136540845477,0,90,3.0,1,0.47507969914339726
2.295,0.191860907532018,107.18914743882308,0,90,3.0,1,0.612147369872641
2.3,0.22384764873847726,113.8027021799891,0,90,3.0,1,0.7485093232987443
2.305,0.25647215537198226,119.62609966806052,0,90,3.0,1,0.868579374599186
2.31,0.2885689161419028,123.89459021136328,0,90,3.0,1,0.9565894888940882
2.315,0.31884566517832524,126.0,0,90,3.0,1,1.0
2.32,0.3459657668955683,125.63555232071732,0,90,3.0,1,0.992485614860151
2.325,0.3686441789190902,122.8728829839707,0,90,3.0,1,0.9355233604942412
2.33,0.3857476379544367,118.14488894980822,0,90,3.0,1,0.8380389474187262
2.335,0.3963882865005728,112.14032116465883,0,90,3.0,1,0.7142334260754398
2.34,0.4,105.64571806451514,0,90,3.0,1,0.5803240838044358
2.345,0.39638828650057273,99.38474665898676,0,90,3.0,1,0.4512318898760156
2.35,0.38574763795443656,93.89946334087666,0,90,3.0,1,0.3381332647603436
2.355,0.36864417891908974,89.49722210145336,0,90,3.0,1,0.24736540415367753
2.36,0.345965766895568,86.26179009897115,0,90,3.0,1,0.18065546595816798
2.365,0.3188456651783249,84.10837075711324,0,90,3.0,1,0.1362550671569739
2.37,0.28856891614190205,82.85525798893129,0,90,3.0,1,0.11041769049342856
2.375,0.2564721553719815,82.28893368935184,0,90,3.0,1,0.09874090081137807
2.38,0.22384764873847685,82.20954302821511,0,90,3.0,1,0.09710397996319811
2.385,0.19186090753201765,82.45412614899202,0,90,3.0,1,0.1021469309070519
2.39,0.16148868344343878,82.9020248457851,0,90,3.0,1,0.11138195558319808
2.395,0.1334809643017881,83.46956389310165,0,90,3.0,1,0.1230837916103433
2.4,0.10834733138818531,84.1004855952502,0,90,3.0,1,0.13609248650000424
2.405,0.08636519236690572,84.75645137662403,0,90,3.0,1,0.14961755415719646
2.41,0.06760532616242629,85.40966434514888,0,90,3.0,2,0.16308586278657491
2.415,0.05196904332202373,86.0380544133898,0,90,3.0,2,0.17604235903896498
2.42,0.03923107185803287,86.62263152761466,0,90,3.0,2,0.18809549541473522
2.425,0.02908287038705761,87.14635512742458,0,90,3.0,2,0.1988939201530842
2.43,0.02117220077308346,87.59392038235315,0,90,3.0,2,0.20812206973924013
2.435,0.0151361834125735,87.95201971947535,0,90,3.0,2,0.21550556122629577
2.44,0.010626454858290009,88.20979239540345,0,90,3.0,2,0.22082046176089595
2.445,0.007326255555493652,88.35928803931012,0,90,3.0,2,0.2239028461713426
2.45,0.004960179211183015,88.3958424677883,0,90,3.0,2,0.22465654572759378
2.455,0.0032978759379303545,88.31830826653777,0,90,3.0,2,0.22305790240284062
2.46,0.002153242296767213,88.12911092076266,0,90,3.0,2,0.21915692620129187
2.465,0.001380616732225004,87.83412164429782,0,90,3.0,2,0.21307467307830563
2.47,0.0008693106590991584,87.44235443924178,0,90,3.0,2,0.20499699874725325
2.475,0.000537524815942247,86.96550861191454,0,90,3.0,2,0.19516512601885658
2.48,0.0003263951340288585,86.41738895346812,0,90,3.0,2,0.18386368976222928
2.485,0.00019463030985187395,85.81324358973214,0,90,3.0,2,0.171407084324374
2.49,0.00011397219555062695,85.16906367666229,0,90,3.0,2,0.15812502426107813
2.495,6.55403863487943e-05,84.5008894969962,0,90,3.0,2,0.14434823705146793
2.5,3.701184389455385e-05,83.82416428298873,0,90,3.0,2,0.1303951398554378
2.505,2.0525516217290957e-05,83.15317077049401,0,90,3.0,2,0.11656022207204154
2.51,1.1178128483661116e-05,82.50057687127921,0,90,3.0,2,0.10310467775833418
2.515,5.978135409912517e-06,81.8771068894783,0,90,3.0,2,0.09024962658718141
2.52,3.1396702713238487e-06,81.29134441020258,0,90,3.0,2,0.07817204969489863
2.525,1.6192875458531019e-06,80.74966329577829,0,90,3.0,2,0.06700336692326372
2.53,8.201353897972012e-07,80.25627492189922,0,90,3.0,2,0.05683041076080865
2.535,4.0791415086824765e-07,79.81337343151264,0,90,3.0,2,0.04769842126830195
2.54,1.9923866938774793e-07,79.42135668043277,0,90,3.0,2,0.03961560165840754
2.545,9.556527981051257e-08,79.07909874103451,0,90,3.0,2,0.032558736928546675
2.55,4.501406988770349e-08,78.78425013843707,0,90,3.0,2,0.026479384297671618
2.555,0.0,78.5335440627456,0,90,3.0,2,0.021310186860734128
2.56,0.0,78.32309016640502,0,90,3.0,2,0.016970931266082963
2.565,0.0,78.14864170879353,0,90,3.0,2,0.013374055851413066
2.57,0.0,78.00582625821215,0,90,3.0,2,0.010429407385817584
2.575,0.0,77.89033447553675,0,90,3.0,2,0.008048133516221589
2.58,0.0,77.79806535061086,0,90,3.0,2,0.006145677332182583
2.585,0.0,77.72522941908457,0,90,3.0,2,0.0046439055481354696
2.59,0.0,77.66841384122971,0,90,3.0,2,0.0034724503346331417
2.595,0.0,77.62461476063879,0,90,3.0,2,0.0025693765080163334
2.6,0.0,77.59124314265756,0,90,3.0,2,0.001881301910465172
2.605,0.0,77.5661104364004,0,90,3.0,2,0.0013631017814514075
2.61,0.0,77.54740005593854,0,90,3.0,2,0.0009773207410008
2.615,0.0,77.53362998903987,0,90,3.0,2,0.0006934018358735332
2.62,0.0,77.52361095963337,0,90,3.0,2,0.00048682390996646063
2.625,0.0,77.51640361595736,0,90,3.0,2,0.00033821888571872985
2.63,0.0,77.51127728584574,0,90,3.0,2,0.00023252135764404482
2.635,0.0,77.50767200055635,0,90,3.0,2,0.0001581855784815344
2.64,0.0,77.50516477853803,0,90,3.0,2,0.00010649027913466187
2.645,0.0,77.503440597138,0,90,3.0,2,7.094014717516253e-05
2.65,0.0,77.5022680623265,0,90,3.0,2,4.676417168027292e-05
2.655,0.0,77.50147950074185,0,90,3.0,2,3.0505169935078867e-05
2.66,0.0,77.50095502431975,0,90,3.0,2,1.9691223087647813e-05
2.665,0.0,77.50061003213925,0,90,3.0,2,1.2577982252566668e-05
2.67,0.0,77.50038559380044,0,90,3.0,2,7.95038763803906e-06
2.675,0.0,77.50024118284321,0,90,3.0,2,4.9728421280745995e-06
2.68,0.0,77.50014928006648,0,90,3.0,2,3.0779395150644987e-06
2.685,0.0,77.50009143158961,0,90,3.0,2,1.8851874146323622e-06
2.69,0.0,77.50005541530939,0,90,3.0,2,1.1425836987655202e-06
2.695,0.0,77.50003323550604,0,90,3.0,2,6.852681657310126e-07
2.7,0.0,77.50001972485731,0,90,3.0,2,4.06698088869403e-07
2.705,0.0,77.50001158415837,0,90,3.0,2,2.3884862622891006e-07
2.71,0.0,77.50000673215557,0,90,3.0,2,1.388073313198229e-07
2.715,0.0,77.5000038715319,0,90,3.0,2,7.982540004489884e-08
2.72,0.001684486749771458,77.50000220318306,0,90,3.0,2,4.542645480852894e-08
2.725,0.004172395771277602,77.5000012406731,0,90,3.0,2,2.5580888665065207e-08
2.73,0.009438687428818865,77.50000069135831,0,90,3.0,2,1.4254810500376349e-08
2.735,0.019500507867137046,77.50000038123086,0,90,3.0,2,7.860430144122352e-09
2.74,0.03679496976339974,77.50000020802328,0,90,3.0,2,4.289139801632287e-09
2.745,0.06340728953298436,77.5000001123246,0,90,3.0,2,2.315971121638587e-09
2.75,0.09979255396093453,77.50000006001736,0,90,3.0,2,1.237471266351124e-09
2.755,0.14343835518453557,77.50000003173349,0,90,3.0,2,6.542988098631541e-10
2.76,0.18829581417209276,77.50000001660344,0,90,3.0,2,3.4233890407458886e-10
2.765,0.2257481735193119,77.50000000859642,0,90,3.0,2,1.772456912054697e-10
2.77,0.24718154073554727,77.50000000440428,0,90,3.0,2,9.080999869596425e-11
2.775,0.24718154074102772,77.50000000223291,0,90,3.0,2,4.603936018217619e-11
2.78,0.22574817354072055,77.50000000112023,0,90,3.0,2,2.3097473532879562e-11
2.785,0.18829581422840957,77.50000000055614,0,90,3.0,2,1.1466841222256297e-11
2.79,0.14343835532456656,77.5000000002732,0,90,3.0,2,5.633065606180588e-12
2.795,0.09979255431561854,77.50000000013281,0,90,3.0,2,2.738446353985112e-12
2.8,0.06340729067170194,77.50000000006389,0,90,3.0,2,1.3173608824649115e-12
2.805,0.03679497683410042,77.50000000003041,0,90,3.0,2,6.270356513511812e-13
2.81,0.019500578284482293,77.50000000001432,0,90,3.0,2,2.953513722252293e-13
2.815,0.009439396781978427,77.50000000000668,0,90,3.0,2,1.3771343744628745e-13
2.82,0.004178588733610924,77.50000000000308,0,90,3.0,2,6.358258707626464e-14
2.825,0.0017299316936037381,77.5000000000014,0,90,3.0,2,2.9007724057835016e-14
2.83,0.0008997325756988589,77.50000000000064,0,90,3.0,2,1.3185329117197736e-14
2.835,0.001634769674224814,77.50000000000028,0,90,3.0,2,5.860146274310104e-15
2.84,0.00614904736476635,77.50000000000013,0,90,3.0,2,2.637065823439547e-15
2.845,0.02168080359963608,77.50000000000006,0,90,3.0,2,1.172029254862021e-15
2.85,0.06433400338904088,77.50000000000003,0,90,3.0,2,5.860146274310105e-16
2.855,0.1593410769217493,77.50000000000001,0,90,3.0,2,2.9300731371550523e-16
2.86,0.3291989194808569,77.5,0,90,3.0,2,0.0
2.865,0.5672906802982638,77.5,0,90,3.0,2,0.0
2.87,0.815339152120446,77.5,0,90,3.0,2,0.0
2.875,0.9768711246313155,77.50000284359693,1,90,3.0,2,5.8630864561995826e-08
2.88,0.9726380909165361,77.50000548419933,0,90,3.0,2,1.1307627494144193e-07
2.885,0.7921091683291741,77.50001124088986,0,90,3.0,2,2.317709249813767e-07
2.89,0.49139090102639077,77.50002536697961,0,90,3.0,2,5.230305075000024e-07
2.895,0.15739335672107918,77.50006389056809,0,90,3.0,2,1.3173313007395262e-06
2.9,-0.11102342218909485,77.50017550461766,0,90,3.0,2,3.6186519104816886e-06
2.905,-0.2314207883647528,77.50050312573545,0,90,3.0,2,1.037372650410024e-05
2.91,-0.2029124434754801,77.50144560488555,0,90,3.0,2,2.9806286299926985e-05
2.915,-0.11151350554305876,77.50405253381912,0,90,3.0,2,8.355739833237495e-05
2.92,-0.039430666652076896,77.51091584732082,0,90,3.0,2,0.0002250690169240588
2.925,-0.006087703519843621,77.52802210333864,0,90,3.0,2,0.0005777753265699489
2.93,0.005350271385530551,77.56826624200473,0,90,3.0,2,0.0014075513815407234
2.935,0.010381647827441833,77.65747108052543,0,90,3.0,2,0.003246826402586094
2.94,0.015115203303506243,77.84353029025743,0,90,3.0,2,0.007083098768194506
2.945,0.021170964062928475,78.208294728616,0,90,3.0,2,0.014604015023010236
2.95,0.029082821134029553,78.87971080766134,0,90,3.0,2,0.02844764551879051
2.955,0.03923107061708144,80.03860769687986,0,90,3.0,2,0.052342426739791025
2.96,0.051969043308817596,81.9114678020172,0,90,3.0,2,0.0909580990106639
2.965,0.06760532616283861,84.73967911802492,0,90,3.0,2,0.14927173439226646
2.97,0.08636519236693461,88.71983424376735,0,90,3.0,2,0.23133678853128561
2.975,0.10834733138818661,93.92009701837561,0,90,3.0,2,0.3385587014098065
2.98,0.1334809643017884,100.19265177353559,0,90,3.0,2,0.46788972728939354
2.985,0.16148868344343945,107.11553201194583,0,90,3.0,2,0.6106295260195017
2.99,0.191860907532018,113.99980843728613,0,90,3.0,2,0.7525733698409512
2.995,0.22384764873847726,119.98355460807562,0,90,3.0,2,0.8759495795479509
3.0,0.25647215537198226,124.2034706308707,0,90,3.0,2,0.9629581573375402
3.005,0.2885689161419028,126.0,0,90,3.0,2,1.0
3.01,0.31884566517832524,125.0896730388076,0,90,3.0,2,0.9812303719341774
3.015,0.3459657668955683,121.64309031720336,0,90,3.0,2,0.9101668106639867
3.02,0.3686441789190902,116.23941024525399,0,90,3.0,2,0.7987507267062679
3.025,0.3857476379544367,109.71438740562652,0,90,3.0,2,0.6642141733118871
3.03,0.3963882865005728,102.95711288915504,0,90,3.0,2,0.5248889255495884
3.035,0.4,96.72341910788755,0,90,3.0,2,0.39635915686366086
3.04,0.39638828650057273,91.51813811820595,0,90,3.0,2,0.28903377563311244
3.045,0.38574763795443656,87.5651096594767,0,90,3.0,2,0.2075280342160145
3.05,0.36864417891908974,84.85055753012354,0,90,3.0,2,0.15155788721904204
3.055,0.345965766895568,83.20599367449054,0,90,3.0,2,0.11764935411320707
3.06,0.3188456651783249,82.39522658019695,0,90,3.0,2,0.10093250680818448
3.065,0.28856891614190205,82.18134970860318,0,90,3.0,2,0.09652267440418925
3.07,0.2564721553719815,82.36490781207327,0,90,3.0,2,0.10030737756852103
3.075,0.22384764873847685,82.79649701173709,0,90,3.0,2,0.10920612395334202
3.08,0.19186090753201765,83.37281201706614,0,90,3.0,2,0.12108890756837398
3.085,0.16148868344343878,84.02539184144003,0,90,3.0,2,0.1345441616791758
3.09,0.1334809643017881,84.70859251846929,0,90,3.0,2,0.14863077357668636
3.095,0.10834733138818531,85.39005201648826,0,90,3.0,2,0.1626814848760465
3.1,0.08636519236690572,86.044472758779,0,90,3.0,2,0.17617469605729885
3.105,0.06760532616242629,86.65025529584166,0,90,3.0,2,0.1886650576462198
3.11,0.05196904332202373,87.18810890053072,0,90,3.0,2,0.19975482269135508
3.115,0.03923107185803287,87.64083038423249,0,90,3.0,2,0.2090892862728348
3.12,0.02908287038705761,87.99366494888493,0,90,3.0,2,0.21636422575020467
3.125,0.02117220077308346,88.23487689607546,0,90,3.0,2,0.2213376679603188
3.13,0.0151361834125735,88.35631072246048,0,90,3.0,2,0.2238414581950614
3.135,0.010626454858290009,88.35381801207184,0,90,3.0,2,0.22379006210457403
3.14,0.007326255555493652,88.22748246937488,0,90,3.0,2,0.22118520555412116
3.145,0.004960179211183015,87.98161207029037,0,90,3.0,2,0.21611571278949213
3.15,0.0032978759379303545,87.62449423525337,0,90,3.0,2,0.20875245845883228
3.155,0.002153242296767213,87.1679318019965,0,90,3.0,2,0.199338800041165
3.16,0.001380616732225004,86.62659553682514,0,90,3.0,2,0.18817722756340485
3.165,0.0008693106590991584,86.01724256371354,0,90,3.0,2,0.1756132487363616
3.17,0.000537524815942247,85.35785865287932,0,90,3.0,2,0.16201770418307868
3.175,0.0003263951340288585,84.66678530372789,0,90,3.0,2,0.1477687691490287
3.18,0.00019463030985187395,83.96189001381458,0,90,3.0,2,0.1332348456456615
3.185,0.00011397219555062695,83.25983064690726,0,90,3.0,2,0.11875939478159302
3.19,6.55403863487943e-05,82.57545348721757,0,90,3.0,2,0.10464852550964067
3.195,3.701184389455385e-05,81.92135081114074,0,90,3.0,2,0.09116187239465445
3.2,2.0525516217290957e-05,81.30758917718623,0,90,3.0,2,0.07850699334404598
3.205,1.1178128483661116e-05,80.74160562584288,0,90,3.0,2,0.06683722939882226
3.21,5.978135409912517e-06,80.22825686325584,0,90,3.0,2,0.05625271883001725
3.215,3.1396702713238487e-06,79.76999719568829,0,90,3.0,2,0.046804065890480216
3.22,1.6192875458531019e-06,79.36715499256925,0,90,3.0,2,0.03849804108390215
3.225,8.201353897972012e-07,79.01827487455601,0,90,3.0,2,0.03130463658878378
3.23,4.0791415086824765e-07,78.72049337182925,0,90,3.0,2,0.0251648117902938
3.235,1.9923866938774793e-07,78.46991891897598,0,90,3.0,2,0.01999832822630882
3.24,9.556527981051257e-08,78.26199201676988,0,90,3.0,2,0.015711175603502697
3.245,4.501406988770349e-08,78.09180740822781,0,90,3.0,2,0.01220221460263522
3.25,0.0,77.95438643595452,0,90,3.0,2,0.009368792493907593
3.255,0.0,77.8448937347729,0,90,3.0,2,0.007111211026245273
3.26,0.0,77.75879759554243,0,90,3.0,2,0.005336032897782116
3.265,0.0,77.69197742146481,0,90,3.0,2,0.003958297349789957
3.27,0.0,77.640784569316,0,90,3.0,2,0.0029027746250721038
3.275,0.0,77.60206455450907,0,90,3.0,2,0.0021044238043107246
3.28,0.0,77.5731492398329,0,90,3.0,2,0.0015082317491319794
3.285,0.0,77.55182743021956,0,90,3.0,2,0.0010686068086507364
3.29,0.0,77.53630149568863,0,90,3.0,2,0.0007484844471883127
3.295,0.0,77.52513647346169,0,90,3.0,2,0.0005182778033337254
3.3,0.0,77.51720676241366,0,90,3.0,2,0.0003547786064673088
3.305,0.0,77.511644181374,0,90,3.0,2,0.00024008621389681167
3.31,0.0,77.50778993342809,0,90,3.0,2,0.00016061718408424248
3.315,0.0,77.50515197226336,0,90,3.0,2,0.00010622623223428528
3.32,0.0,77.50336843577756,0,90,3.0,2,6.945228407339903e-05
3.325,0.0,77.50217719842811,0,90,3.0,2,4.489068923947381e-05
3.33,0.0,77.50139117811788,0,90,3.0,2,2.868408490484136e-05
3.335,0.0,77.50087878462313,0,90,3.0,2,1.8119270579912145e-05
3.34,0.0,77.50054877857231,0,90,3.0,2,1.1315022109465176e-05
3.345,0.0,77.50033878707026,0,90,3.0,2,6.985300417782878e-06
3.35,0.0,77.50020676236647,0,90,3.0,2,4.263141576790151e-06
3.355,0.0,77.50012474729766,0,90,3.0,2,2.5721092301349007e-06
3.36,0.0,77.50007440562757,0,90,3.0,2,1.5341366509712372e-06
3.365,0.0,77.5000438728055,0,90,3.0,2,9.045939279563829e-07
3.37,0.0,77.50002557407974,0,90,3.0,2,5.273006132535284e-07
3.375,0.0,77.50001473735715,0,90,3.0,2,3.038630339786548e-07
3.38,0.0,77.50000839564733,0,90,3.0,2,1.7310613046545994e-07
3.385,0.001684486749771458,77.50000472828614,0,90,3.0,2,9.74904359394451e-08
3.39,0.004172395771277602,77.50000263249952,0,90,3.0,2,5.4278340539238665e-08
3.395,0.009438687428818865,77.50000144893144,0,90,3.0,2,2.987487510067366e-08
3.4,0.019500507867137046,77.50000078839227,0,90,3.0,2,1.6255510733581387e-08
3.405,0.03679496976339974,77.50000042408398,0,90,3.0,2,8.743999558777732e-09
3.41,0.06340728953298436,77.50000022551548,0,90,3.0,2,4.649803676113958e-09
3.415,0.09979255396093453,77.5000001185539,0,90,3.0,2,2.4444102915911515e-09
3.42,0.14343835518453557,77.50000006161271,0,90,3.0,2,1.270365146410768e-09
3.425,0.18829581417209276,77.5000000316548,0,90,3.0,2,6.526764283671113e-10
3.43,0.2257481735193119,77.5000000160777,0,90,3.0,2,3.3149909850368374e-10
3.435,0.24718154073554727,77.50000000807279,0,90,3.0,2,1.664492507169945e-10
3.44,0.24718154074102772,77.50000000400718,0,90,3.0,2,8.262220232149817e-11
3.445,0.22574817354072055,77.50000000196638,0,90,3.0,2,4.054400801344189e-11
3.45,0.18829581422840957,77.50000000095392,0,90,3.0,2,1.9668408940467004e-11
3.455,0.14343835532456656,77.50000000045748,0,90,3.0,2,9.432491443129545e-12
3.46,0.09979255431561854,77.50000000021689,0,90,3.0,2,4.471877621926041e-12
3.465,0.06340729067170194,77.50000000010165,0,90,3.0,2,2.095881315007009e-12
3.47,0.03679497683410042,77.5000000000471,0,90,3.0,2,9.710262376531843e-13
3.475,0.019500578284482293,77.50000000002157,0,90,3.0,2,4.4478510222013693e-13
3.48,0.009439396781978427,77.50000000000976,0,90,3.0,2,2.0129602452255209e-13
3.485,0.004178588733610924,77.50000000000438,0,90,3.0,2,9.02462526243756e-14
3.49,0.0017299316936037381,77.50000000000193,0,90,3.0,2,3.984899466530871e-14
3.495,0.0008997325756988589,77.50000000000085,0,90,3.0,2,1.7580438822930315e-14
3.5,0.001634769674224814,77.50000000000037,0,90,3.0,2,7.618190156603136e-15
3.505,0.00614904736476635,77.50000000000016,0,90,3.0,2,3.2230804508705575e-15
3.51,0.02168080359963608,77.50000000000007,0,90,3.0,2,1.465036568577526e-15
3.515,0.06433400338904088,77.50000000000003,0,90,3.0,2,5.860146274310105e-16
3.52,0.1593410769217493,77.50000000000001,0,90,3.0,2,2.9300731371550523e-16
3.525,0.3291989194808569,77.5,0,90,3.0,2,0.0
3.53,0.5672906802982638,77.5,0,90,3.0,2,0.0
3.535,0.815339152120446,77.5,0,90,3.0,2,0.0
3.54,0.9768711246313155,77.50000284586159,1,90,3.0,2,5.8677558500516847e-08
3.545,0.9726380909165361,77.5000058771435,0,90,3.0,2,1.211782163638943e-07
3.55,0.7921091683291741,77.50001312492641,0,90,3.0,2,2.70617039411929e-07
3.555,0.49139090102639077,77.50003312177063,0,90,3.0,2,6.829231057222902e-07
3.56,0.15739335672107918,77.5000950173887,0,90,3.0,2,1.9591214165358773e-06
3.565,-0.11102342218909485,77.50029664213184,0,90,3.0,2,6.116332615326344e-06
3.57,-0.2314207883647528,77.50095018691317,0,90,3.0,2,1.9591482745824776e-05
3.575,-0.2029124434754801,77.50298788734874,0,90,3.0,2,6.160592471624066e-05
3.58,-0.11151350554305876,77.50899344295689,0,90,3.0,2,0.0001854318135441804
3.585,-0.039430666652076896,77.52558018028991,0,90,3.0,2,0.0005274263977300445
3.59,-0.006087703519843621,77.56832060951243,0,90,3.0,2,0.0014086723610809535
3.595,0.005350271385530551,77.67081240295971,0,90,3.0,2,0.003521905215664156
3.6,0.010381647827441833,77.89914273187748,0,90,3.0,2,0.008229747049020112
3.605,0.015115203303506243,78.37101968805803,0,90,3.0,2,0.0179591688259387
3.61,0.021170964062928475,79.2743219620393,0,90,3.0,2,0.03658395798019165
3.615,0.029082821134029553,80.87318328755507,0,90,3.0,3,0.06955017087742402
3.62,0.03923107061708144,83.4840347084959,0,90,3.0,3,0.12338215893805975
3.625,0.051969043308817596,87.4052161989753,0,90,3.0,3,0.20423126183454218
3.63,0.06760532616283861,92.79797719482352,0,90,3.0,3,0.31542221020254674
3.635,0.08636519236693461,99.54446405638612,0,90,3.0,3,0.45452503209043543
3.64,0.10834733138818661,107.13911793988598,0,90,3.0,3,0.611115833812082
3.645,0.1334809643017884,114.68319434295202,0,90,3.0,3,0.7666638008856087
3.65,0.16148868344343945,121.0286071131232,0,90,3.0,3,0.8974970538788288
3.655,0.191860907532018,125.05606361041474,0,90,3.0,3,0.9805373940291698
3.66,0.22384764873847726,126.0,0,90,3.0,3,1.0
3.665,0.25647215537198226,123.69218447622228,0,90,3.0,3,0.9524161747674696
3.67,0.2885689161419028,118.61841981945244,0,90,3.0,3,0.847802470504174
3.675,0.31884566517832524,111.76288043906783,0,90,3.0,3,0.7064511430735635
3.68,0.3459657668955683,104.30907561334334,0,90,3.0,3,0.5527644456359452
3.685,0.3686441789190902,97.32237373483679,0,90,3.0,3,0.40870873680075853
3.69,0.3857476379544367,91.52930221937348,0,90,3.0,3,0.2892639632860511
3.695,0.3963882865005728,87.24754941146844,0,90,3.0,3,0.2009804002364627
3.7,0.4,84.44866361769579,0,90,3.0,3,0.14327141479785124
3.705,0.39638828650057273,82.8907268689467,0,90,3.0,3,0.11114900760714846
3.71,0.38574763795443656,82.25407737271877,0,90,3.0,3,0.09802221387049007
3.715,0.36864417891908974,82.23774027159104,0,90,3.0,3,0.09768536642455745
3.72,0.345965766895568,82.60568848479885,0,90,3.0,3,0.10527192752162572
3.725,0.3188456651783249,83.19386752249686,0,90,3.0,3,0.11739933036075999
3.73,0.28856891614190205,83.89629740654941,0,90,3.0,3,0.13188242075359605
3.735,0.2564721553719815,84.64557378836538,0,90,3.0,3,0.147331418316812
3.74,0.22384764873847685,85.39633568541677,0,90,3.0,3,0.16281104506013966
3.745,0.19186090753201765,86.11442913867897,0,90,3.0,3,0.1776170956428654
3.75,0.16148868344343878,86.77121984433278,0,90,3.0,3,0.19115917204809849
3.755,0.1334809643017881,87.3414191722754,0,90,3.0,3,0.20291585922217306
3.76,0.10834733138818531,87.80288062565299,0,90,3.0,3,0.21243052836397916
3.765,0.08636519236690572,88.13728808638228,0,90,3.0,3,0.2193255275542739
3.77,0.06760532616242629,88.33108854836723,0,90,3.0,3,0.22332141336839656
3.775,0.05196904332202373,88.3763108939206,0,90,3.0,3,0.22425383286434233
3.78,0.03923107185803287,88.27108106749418,0,90,3.0,3,0.22208414572152949
3.785,0.02908287038705761,88.01974268743409,0,90,3.0,3,0.21690191108111523
3.79,0.02117220077308346,87.63255742288636,0,90,3.0,3,0.20891870975023433
3.795,0.0151361834125735,87.1250094082,0,90,3.0,3,0.19845380223092784
3.8,0.010626454858290009,86.51677814238163,0,90,3.0,3,0.18591295138931185
3.805,0.007326255555493652,85.83047446527023,0,90,3.0,3,0.1717623601086645
3.81,0.004960179211183015,85.09025249472462,0,90,3.0,3,0.1565000514376211
3.815,0.0032978759379303545,84.32041563244263,0,90,3.0,3,0.14062712644211614
3.82,0.002153242296767213,83.54412713946391,0,90,3.0,3,0.1246211781332765
3.825,0.001380616732225004,82.78231716056324,0,90,3.0,3,0.10891375588790182
3.83,0.0008693106590991584,82.0528515297851,0,90,3.0,3,0.09387322741824952
3.835,0.000537524815942247,81.36999705672466,0,90,3.0,3,0.07979375374690013
3.84,0.0003263951340288585,80.74418725350604,0,90,3.0,3,0.06689045883517611
3.845,0.00019463030985187395,80.18206515992516,0,90,3.0,3,0.05530031257577647
3.85,0.00011397219555062695,79.6867587248306,0,90,3.0,3,0.04508780875939374
3.855,6.55403863487943e-05,79.25833063767365,0,90,3.0,3,0.036254239952034056
3.86,3.701184389455385e-05,78.89433892375651,0,90,3.0,3,0.02874925615992798
3.865,2.0525516217290957e-05,78.59044631947289,0,90,3.0,3,0.022483429267482247
3.87,1.1178128483661116e-05,78.34102394918298,0,90,3.0,3,0.017340699983154285
3.875,5.978135409912517e-06,78.1397062108974,0,90,3.0,3,0.013189818781389716
3.88,3.1396702713238487e-06,77.97986702078465,0,90,3.0,3,0.009894165377003149
3.885,1.6192875458531019e-06,77.85500083322964,0,90,3.0,3,0.007319604808858528
3.89,8.201353897972012e-07,77.75900370298082,0,90,3.0,3,0.005340282535687012
3.895,4.0791415086824765e-07,77.68635914371603,0,90,3.0,3,0.0038424565714645846
3.9,1.9923866938774793e-07,77.63224022257143,0,90,3.0,3,0.0027266025272458896
3.905,9.556527981051257e-08,77.59254321199653,0,90,3.0,3,0.0019081074638459367
3.91,4.501406988770349e-08,77.56386952680471,0,90,3.0,3,0.001316897459890901
3.915,0.0,77.54347213406413,0,90,3.0,3,0.0008963326611161186
3.92,0.0,77.52918074358568,0,90,3.0,3,0.000601664816199668
3.925,0.0,77.5193174537281,0,90,3.0,3,0.00039829801501250865
3.93,0.0,77.51261163923783,0,90,3.0,3,0.00026003379871818866
3.935,0.0,77.50812009910234,0,90,3.0,3,0.00016742472375963377
3.94,0.0,77.50515607531464,0,90,3.0,3,0.00010631083122978725
3.945,0.0,77.50322883094955,0,90,3.0,3,6.65738340113965e-05
3.95,0.0,77.50199406584419,0,90,3.0,3,4.111475967395507e-05
3.955,0.0,77.50121451201069,0,90,3.0,3,2.504148475651098e-05
3.96,0.0,77.50072951170684,0,90,3.0,3,1.5041478491477542e-05
3.965,0.0,77.50043214635019,0,90,3.0,3,8.91023402458551e-06
3.97,0.0,77.5002524628993,0,90,3.0,3,5.205420604067147e-06
3.975,0.0,77.50014545625893,0,90,3.0,3,2.9990981223602727e-06
3.98,0.0,77.50008264857955,0,90,3.0,3,1.7040944237109704e-06
3.985,0.0,77.5000463133831,0,90,3.0,3,9.54915115356663e-07
3.99,0.001684486749771458,77.50002559444704,0,90,3.0,3,5.277205574886991e-07
3.995,0.004172395771277602,77.50001394932292,0,90,3.0,3,2.876149055643425e-07
4.0,0.009438687428818865,77.50000749770997,0,90,3.0,3,1.5459195820373688e-07
4.005,0.019500507867137046,77.50000397440645,0,90,3.0,3,8.194652481900438e-08
4.01,0.03679496976339974,77.5000020777058,0,90,3.0,3,4.283929486978336e-08
4.015,0.06340728953298436,77.5000010711837,0,90,3.0,3,2.2086261928164923e-08
4.02,0.09979255396093453,77.50000054464309,0,90,3.0,3,1.1229754354363397e-08
4.025,0.14343835518453557,77.50000027310406,0,90,3.0,3,5.631011624911442e-09
4.03,0.18829581417209276,77.50000013505556,0,90,3.0,3,2.78465067728491e-09
4.035,0.2257481735193119,77.50000006586654,0,90,3.0,3,1.358073076676426e-09
4.04,0.24718154073554727,77.50000003168002,0,90,3.0,3,6.531962233416427e-10
4.045,0.24718154074102772,77.50000001502707,0,90,3.0,3,3.09836481786069e-10
4.05,0.22574817354072055,77.50000000702961,0,90,3.0,3,1.449404628390804e-10
4.055,0.18829581422840957,77.50000000324307,0,90,3.0,3,6.686749207032917e-11
4.06,0.14343835532456656,77.50000000147553,0,90,3.0,3,3.0423242390394625e-11
4.065,0.09979255431561854,77.50000000066208,0,90,3.0,3,1.3651210746005388e-11
4.07,0.06340729067170194,77.50000000029299,0,90,3.0,3,6.040931786872571e-12
4.075,0.03679497683410042,77.50000000012786,0,90,3.0,3,2.6361868014984006e-12
4.08,0.019500578284482293,77.50000000005502,0,90,3.0,3,1.1345243187064363e-12
4.085,0.009439396781978427,77.50000000002336,0,90,3.0,3,4.817040237482906e-13
4.09,0.004178588733610924,77.50000000000978,0,90,3.0,3,2.015890318362676e-13
4.095,0.0017299316936037381,77.50000000000404,0,90,3.0,3,8.321407709520348e-14
4.1,0.0008997325756988589,77.50000000000165,0,90,3.0,3,3.3988848390998606e-14
4.105,0.001634769674224814,77.50000000000065,0,90,3.0,3,1.347833643091324e-14
4.11,0.00614904736476635,77.50000000000026,0,90,3.0,3,5.274131646879094e-15
4.115,0.02168080359963608,77.5000000000001,0,90,3.0,3,2.0510511960085364e-15
4.12,0.06433400338904088,77.50000000000004,0,90,3.0,3,8.790219411465157e-16
4.125,0.1593410769217493,77.50000000000001,0,90,3.0,3,2.9300731371550523e-16
4.13,0.3291989194808569,77.5,0,90,3.0,3,0.0
4.135,0.5672906802982638,77.5,0,90,3.0,3,0.0
4.14,0.815339152120446,77.5,0,90,3.0,3,0.0
4.145,0.9768711246313155,77.50000284159387,1,90,3.0,3,5.8589564302105686e-08
4.15,0.9726380909165361,77.50000524787401,0,90,3.0,3,1.0820358792696744e-07
4.155,0.7921091683291741,77.50001020135224,0,90,3.0,3,2.1033715957508826e-07
4.16,0.49139090102639077,77.50002150542502,0,90,3.0,3,4.434108252529974e-07
4.165,0.15739335672107918,77.50004994250548,0,90,3.0,3,1.029742381114815e-06
4.17,-0.11102342218909485,77.50012616702794,0,90,3.0,3,2.6013820194499933e-06
4.175,-0.2314207883647528,77.50033515612391,0,90,3.0,3,6.91043554453601e-06
4.18,-0.2029124434754801,77.50090303081406,0,90,3.0,3,1.8619192042434434e-05
4.185,-0.11151350554305876,77.50240249680841,0,90,3.0,3,4.953601666834777e-05
4.19,-0.039430666652076896,77.50620751786776,0,90,3.0,3,0.0001279900591291654
4.195,-0.006087703519843621,77.5154305665507,0,90,3.0,3,0.0003181560113547483
4.2,0.005350271385530551,77.53671277936931,0,90,3.0,3,0.0007569645230785578
4.205,0.010381647827441833,77.58336925368212,0,90,3.0,3,0.0017189536841674593
4.21,0.015115203303506243,77.68041720673176,0,90,3.0,3,0.0037199424068404302
4.215,0.021170964062928475,77.87175652575355,0,90,3.0,3,0.0076650830052279175
4.22,0.029082821134029553,78.22901047082749,0,90,3.0,3,0.015031143728401848
4.225,0.03923107061708144,78.86012402198301,0,90,3.0,3,0.028043794267690964
4.23,0.051969043308817596,79.91389549240841,0,90,3.0,3,0.049771041080585866
4.235,0.06760532616283861,81.57482242680061,0,90,3.0,3,0.0840169572536208
4.24,0.08636519236693461,84.0421715252154,0,90,3.0,3,0.1348901345405236
4.245,0.10834733138818661,87.48945991030922,0,90,3.0,3,0.20596824557338603
4.25,0.1334809643017884,92.00641812482755,0,90,3.0,3,0.2991014046356195
4.255,0.16148868344343945,97.53425909127935,0,90,3.0,3,0.41307750703668766
4.26,0.191860907532018,103.81376504638375,0,90,3.0,3,0.5425518566264691
4.265,0.22384764873847726,110.36973877181947,0,90,3.0,3,0.6777265726148345
4.27,0.25647215537198226,116.55051103954558,0,90,3.0,3,0.8051651760731048
4.275,0.2885689161419028,121.62632944907975,0,90,3.0,3,0.9098212257542216
4.28,0.31884566517832524,124.92946092995325,0,90,3.0,3,0.9779270294835722
4.285,0.3459657668955683,126.0,0,90,3.0,3,1.0
4.29,0.3686441789190902,124.6938252063791,0,90,3.0,3,0.9730685609562701
4.295,0.3857476379544367,121.217996840846,0,90,3.0,3,0.9014019967184742
4.3,0.3963882865005728,116.0818526852693,0,90,3.0,3,0.7955021172220473
4.305,0.4,109.9799438267282,0,90,3.0,3,0.6696895634376949
4.31,0.39638828650057273,103.64408632484154,0,90,3.0,3,0.5390533262853925
4.315,0.38574763795443656,97.70790999607995,0,90,3.0,3,0.4166579380635041
4.32,0.36864417891908974,92.61737317677957,0,90,3.0,3,0.3116984160160735
4.325,0.345965766895568,88.60086034957897,0,90,3.0,3,0.22888371854801992
4.33,0.3188456651783249,85.69201554683798,0,90,3.0,3,0.16890753704820574
4.335,0.28856891614190205,83.78511991060593,0,90,3.0,3,0.12959010124960677
4.34,0.2564721553719815,82.69962175115714,0,90,3.0,3,0.10720869590014719
4.345,0.22384764873847685,82.23556131460678,0,90,3.0,3,0.09764043947642853
4.35,0.19186090753201765,82.2106215981608,0,90,3.0,3,0.09712621851877935
4.355,0.16148868344343878,82.47796263165895,0,90,3.0,3,0.10263840477647328
4.36,0.1334809643017881,82.92928438636176,0,90,3.0,3,0.11194400796622181
4.365,0.10834733138818531,83.48930152774871,0,90,3.0,3,0.1234907531494579
4.37,0.08636519236690572,84.10702158041188,0,90,3.0,3,0.13622724908065736
4.375,0.06760532616242629,84.74732780110544,0,90,3.0,3,0.14942943919805035
4.38,0.05196904332202373,85.38449416816793,0,90,3.0,3,0.16256689006531821
4.385,0.03923107185803287,85.99794855016432,0,90,3.0,3,0.1752154340240067
4.39,0.02908287038705761,86.56992629687204,0,90,3.0,3,0.18700878962622763
4.395,0.02117220077308346,87.08445158300941,0,90,3.0,3,0.19761755841256518
4.4,0.0151361834125735,87.52713026604603,0,90,3.0,3,0.2067449539390934
4.405,0.010626454858290009,87.88537120331262,0,90,3.0,3,0.21413136501675498
4.41,0.007326255555493652,88.1487839356451,0,90,3.0,3,0.21956255537412575
4.415,0.004960179211183015,88.30959800302992,0,90,3.0,3,0.22287830934082306
4.42,0.0032978759379303545,88.36301228718621,0,90,3.0,3,0.2239796347873445
4.425,0.002153242296767213,88.30742168835918,0,90,3.0,3,0.22283343687338525
4.43,0.001380616732225004,88.14449333257545,0,90,3.0,3,0.2194740893314526
4.435,0.0008693106590991584,87.8790822595265,0,90,3.0,3,0.2140016960727113
4.44,0.000537524815942247,87.51899071950872,0,90,3.0,3,0.20657712823729324
4.445,0.0003263951340288585,87.0745871119695,0,90,3.0,3,0.19741416725710323
4.45,0.00019463030985187395,86.55831033385357,0,90,3.0,3,0.18676928523409422
4.455,0.00011397219555062695,85.98409251928744,0,90,3.0,3,0.17492974266572048
4.46,6.55403863487943e-05,85.36673745743582,0,90,3.0,3,0.1622007723182643
4.465,3.701184389455385e-05,84.72129317056762,0,90,3.0,3,0.14889264269211588
4.47,2.0525516217290957e-05,84.06245528666152,0,90,3.0,3,0.13530835642601066
4.475,1.1178128483661116e-05,83.40403329311125,0,90,3.0,3,0.12173264521878875
4.48,5.978135409912517e-06,82.75850508583088,0,90,3.0,3,0.10842278527486343
4.485,3.1396702713238487e-06,82.13667716646533,0,90,3.0,3,0.09560159106114088
4.49,1.6192875458531019e-06,81.54745919615713,0,90,3.0,3,0.08345276693107495
4.495,8.201353897972012e-07,80.99775317592832,0,90,3.0,3,0.07211862218408915
4.5,4.0791415086824765e-07,80.49244998191267,0,90,3.0,3,0.06169999962706538
4.505,1.9923866938774793e-07,80.03451987045568,0,90,3.0,3,0.05225814165888004
4.51,9.556527981051257e-08,79.62517922034833,0,90,3.0,3,0.043818128254604724
4.515,4.501406988770349e-08,79.26411332828589,0,90,3.0,3,0.036373470686306954
4.52,0.0,78.9497344579457,0,90,3.0,3,0.02989143212259165
4.525,0.0,78.67945534241619,0,90,3.0,3,0.024318666853942073
4.53,0.0,78.44996061991971,0,90,3.0,3,0.01958681690556098
4.535,0.0,78.2574618470744,0,90,3.0,3,0.015617770042771045
4.54,0.0,78.0979253726538,0,90,3.0,3,0.01232835819904752
4.545,0.0,77.96726608808848,0,90,3.0,3,0.009634352331721219
4.55,0.0,77.86150358080003,0,90,3.0,3,0.007453682078351193
4.555,0.0,77.77688026614771,0,90,3.0,3,0.005708871466963173
4.56,0.0,77.70994351493611,0,90,3.0,3,0.004328732266724004
4.565,0.0,77.65759556235399,0,90,3.0,3,0.0032493930382265926
4.57,0.0,77.61711608993805,0,90,3.0,3,0.0024147647409907425
4.575,0.0,77.58616287958085,0,90,3.0,3,0.0017765542181619428
4.58,0.0,77.56275594951525,0,90,3.0,3,0.0012939371034072094
4.585,0.0,77.54525021688922,0,90,3.0,3,0.0009329941626642323
4.59,0.0,77.53230111287208,0,90,3.0,3,0.000666002327259309
4.595,0.0,77.52282681744146,0,90,3.0,3,0.0004706560297207259
4.6,0.0,77.5159699775533,0,90,3.0,3,0.0003292778876968474
4.605,0.0,77.51106099779811,0,90,3.0,3,0.00022806181027033642
4.61,0.0,77.50758429760151,0,90,3.0,3,0.00015637727013424795
4.615,0.0,77.50514834315162,0,90,3.0,3,0.00010615140518798961
4.62,0.0,77.50345979738647,0,90,3.0,3,7.133602858699334e-05
4.625,0.0,77.50230178579928,0,90,3.0,3,4.745950101599042e-05
4.63,0.0,77.5015160384165,0,90,3.0,3,3.1258524051487987e-05
4.635,0.0,77.50098852251757,0,90,3.0,3,2.0381907578837984e-05
4.64,0.0,77.50063810770203,0,90,3.0,3,1.3156859835685891e-05
4.645,0.0,77.50040778614562,0,90,3.0,3,8.407961765264303e-06
4.65,0.0,77.50025798948569,0,90,3.0,3,5.3193708389553834e-06
4.655,0.0,77.50016158558198,0,90,3.0,3,3.3316614840798852e-06
4.66,0.0,77.50010019228165,0,90,3.0,3,2.06582024020463e-06
4.665,0.0,77.50006150309721,0,90,3.0,3,1.2681050971999884e-06
4.67,0.0,77.50003737582321,0,90,3.0,3,7.706355301341262e-07
4.675,0.0,77.50002248617606,0,90,3.0,3,4.63632496170361e-07
4.68,0.0,77.50001339280381,0,90,3.0,3,2.761402847048997e-07
4.685,0.0,77.50000789693324,0,90,3.0,3,1.6282336578677638e-07
4.69,0.0,77.50000460974059,0,90,3.0,3,9.50461976431471e-08
4.695,0.0,77.50000266394692,0,90,3.0,3,5.49267405258621e-08
4.7,0.0,77.50000152407277,0,90,3.0,3,3.1424180865683086e-08
4.705,0.0,77.50000086321089,0,90,3.0,3,1.779816259550364e-08
4.71,0.0,77.50000048401539,0,90,3.0,3,9.979698716895505e-09
4.715,0.0,77.50000026867824,0,90,3.0,3,5.539757427127885e-09
4.72,0.0,77.50000014765116,0,90,3.0,3,3.0443539007015697e-09
4.725,0.0,77.50000008032899,0,90,3.0,3,1.6562677918739506e-09
4.73,0.0,77.5000000432652,0,90,3.0,3,8.920660407385026e-10
4.735,0.001684486749771458,77.5000000230694,0,90,3.0,3,4.756578178297711e-10
4.74,0.004172395771277602,77.5000000121777,0,90,3.0,3,2.510864643349142e-10
4.745,0.009438687428818865,77.50000000636392,0,90,3.0,3,1.3121482823539128e-10
4.75,0.019500507867137046,77.50000000329243,0,90,3.0,3,6.788510647086312e-11
4.755,0.03679496976339974,77.5000000016863,0,90,3.0,3,3.4769126867423e-11
4.76,0.06340728953298436,77.50000000085505,0,90,3.0,3,1.7629957058948234e-11
4.765,0.09979255396093453,77.50000000042921,0,90,3.0,3,8.849699896149405e-12
4.77,0.14343835518453557,77.5000000002133,0,90,3.0,3,4.3980397788697334e-12
4.775,0.18829581417209276,77.50000000010493,0,90,3.0,3,2.1635660044752906e-12
4.78,0.2257481735193119,77.50000000005112,0,90,3.0,3,1.0539473074346723e-12
4.785,0.24718154073554727,77.50000000002464,0,90,3.0,3,5.080746819826861e-13
4.79,0.24718154074102772,77.50000000001177,0,90,3.0,3,2.4261005575643833e-13
4.795,0.22574817354072055,77.50000000000556,0,90,3.0,3,1.1456585966276254e-13
4.8,0.18829581422840957,77.5000000000026,0,90,3.0,3,5.3620338409937456e-14
4.805,0.14343835532456656,77.50000000000121,0,90,3.0,3,2.4905621665817945e-14
4.81,0.09979255431561854,77.50000000000055,0,90,3.0,3,1.1427285234904704e-14
4.815,0.06340729067170194,77.50000000000026,0,90,3.0,3,5.274131646879094e-15
4.82,0.03679497683410042,77.50000000000011,0,90,3.0,4,2.344058509724042e-15
4.825,0.019500578284482293,77.50000000000004,0,90,3.0,4,8.790219411465157e-16
4.83,0.009439396781978427,77.50000000000003,0,90,3.0,4,5.860146274310105e-16
4.835,0.004178588733610924,77.50000000000001,0,90,3.0,4,2.9300731371550523e-16
4.84,0.0017299316936037381,77.5,0,90,3.0,4,0.0
4.845,0.0008997325756988589,77.5,0,90,3.0,4,0.0
4.85,0.001634769674224814,77.5,0,90,3.0,4,0.0
4.855,0.00614904736476635,77.50000284159387,1,90,3.0,4,5.8589564302105686e-08
4.86,0.02168080359963608,77.50000524787401,0,90,3.0,4,1.0820358792696744e-07
4.865,0.06433400338904088,77.50001020135224,0,90,3.0,4,2.1033715957508826e-07
4.87,0.1593410769217493,77.50002150542502,0,90,3.0,4,4.434108252529974e-07
4.875,0.3291989194808569,77.50004994250548,0,90,3.0,4,1.029742381114815e-06
4.88,0.5672906802982638,77.50012616702794,0,90,3.0,4,2.6013820194499933e-06
4.885,0.815339152120446,77.50033515612391,0,90,3.0,4,6.91043554453601e-06
4.89,0.9768711246313155,77.50090303081406,0,90,3.0,4,1.8619192042434434e-05
4.895,0.9726380909165361,77.50240249680841,0,90,3.0,4,4.953601666834777e-05
4.9,0.7921091683291741,77.50620751786776,0,90,3.0,4,0.0001279900591291654
4.905,0.49139090102639077,77.5154305665507,0,90,3.0,4,0.0003181560113547483
4.91,0.15739335672107918,77.53671277936931,0,90,3.0,4,0.0007569645230785578
4.915,-0.11102342218909485,77.58336925368212,0,90,3.0,4,0.0017189536841674593
4.92,-0.2314207883647528,77.68041720673176,0,90,3.0,4,0.0037199424068404302
4.925,-0.2029124434754801,77.87175652575355,0,90,3.0,4,0.0076650830052279175
4.93,-0.11151350554305876,78.22901047082749,0,90,3.0,4,0.015031143728401848
4.935,-0.039430666652076896,78.86012402198301,0,90,3.0,4,0.028043794267690964
4.94,-0.006087703519843621,79.91389549240841,0,90,3.0,4,0.049771041080585866
4.945,0.005350271385530551,81.57482242680061,0,90,3.0,4,0.0840169572536208
4.95,0.010381647827441833,84.0421715252154,0,90,3.0,4,0.1348901345405236
4.955,0.015115203303506243,87.48945991030922,0,90,3.0,4,0.20596824557338603
4.96,0.021170964062928475,92.00641812482755,0,90,3.0,4,0.2991014046356195
4.965,0.029082821134029553,97.53425909127935,0,90,3.0,4,0.41307750703668766
4.97,0.03923107061708144,103.81376504638375,0,90,3.0,4,0.5425518566264691
4.975,0.051969043308817596,110.36973877181947,0,90,3.0,4,0.6777265726148345
4.98,0.06760532616283861,116.55051103954558,0,90,3.0,4,0.8051651760731048
4.985,0.08636519236693461,121.62632944907975,0,90,3.0,4,0.9098212257542216
4.99,0.10834733138818661,124.92946092995325,0,90,3.0,4,0.9779270294835722
4.995,0.1334809643017884,126.0,0,90,3.0,4,1.0
5.0,0.16148868344343945,124.6938252063791,0,90,3.0,4,0.9730685609562701
5.005,0.191860907532018,121.217996840846,0,90,3.0,4,0.9014019967184742
5.01,0.22384764873847726,116.0818526852693,0,90,3.0,4,0.7955021172220473
5.015,0.25647215537198226,109.9799438267282,0,90,3.0,4,0.6696895634376949
5.02,0.2885689161419028,103.64408632484154,0,90,3.0,4,0.5390533262853925
5.025,0.31884566517832524,97.70790999607995,0,90,3.0,4,0.4166579380635041
5.03,0.3459657668955683,92.61737317677957,0,90,3.0,4,0.3116984160160735
5.035,0.3686441789190902,88.60086034957897,0,90,3.0,4,0.22888371854801992
5.04,0.3857476379544367,85.69201554683798,0,90,3.0,4,0.16890753704820574
5.045,0.3963882865005728,83.78511991060593,0,90,3.0,4,0.12959010124960677
5.05,0.4,82.69962175115714,0,90,3.0,4,0.10720869590014719
5.055,0.39638828650057273,82.23556131460678,0,90,3.0,4,0.09764043947642853
5.06,0.38574763795443656,82.2106215981608,0,90,3.0,4,0.09712621851877935
5.065,0.36864417891908974,82.47796263165895,0,90,3.0,4,0.10263840477647328
5.07,0.345965766895568,82.92928438636176,0,90,3.0,4,0.11194400796622181
5.075,0.3188456651783249,83.48930152774871,0,90,3.0,4,0.1234907531494579
5.08,0.28856891614190205,84.10702158041188,0,90,3.0,4,0.13622724908065736
5.085,0.2564721553719815,84.74732780110544,0,90,3.0,4,0.14942943919805035
5.09,0.22384764873847685,85.38449416816793,0,90,3.0,4,0.16256689006531821
5.095,0.19186090753201765,85.99794855016432,0,90,3.0,4,0.1752154340240067
5.1,0.16148868344343878,86.56992629687204,0,90,3.0,4,0.18700878962622763
5.105,0.1334809643017881,87.08445158300941,0,90,3.0,4,0.19761755841256518
5.11,0.10834733138818531,87.52713026604603,0,90,3.0,4,0.2067449539390934
5.115,0.08636519236690572,87.88537120331262,0,90,3.0,4,0.21413136501675498
5.12,0.06760532616242629,88.1487839356451,0,90,3.0,4,0.21956255537412575
5.125,0.05196904332202373,88.30959800302992,0,90,3.0,4,0.22287830934082306
5.13,0.03923107185803287,88.36301228718621,0,90,3.0,4,0.2239796347873445
5.135,0.02908287038705761,88.30742168835918,0,90,3.0,4,0.22283343687338525
5.14,0.02117220077308346,88.14449333257545,0,90,3.0,4,0.2194740893314526
5.145,0.0151361834125735,87.8790822595265,0,90,3.0,4,0.2140016960727113
5.15,0.010626454858290009,87.51899071950872,0,90,3.0,4,0.20657712823729324
5.155,0.007326255555493652,87.0745871119695,0,90,3.0,4,0.19741416725710323
5.16,0.004960179211183015,86.55831033385357,0,90,3.0,4,0.18676928523409422
5.165,0.0032978759379303545,85.98409251928744,0,90,3.0,4,0.17492974266572048
5.17,0.002153242296767213,85.36673745743582,0,90,3.0,4,0.1622007723182643
5.175,0.001380616732225004,84.72129317056762,0,90,3.0,4,0.14889264269211588
5.18,0.0008693106590991584,84.06245528666152,0,90,3.0,4,0.13530835642601066
5.185,0.000537524815942247,83.40403329311125,0,90,3.0,4,0.12173264521878875
5.19,0.0003263951340288585,82.75850508583088,0,90,3.0,4,0.10842278527486343
5.195,0.00019463030985187395,82.13667716646533,0,90,3.0,4,0.09560159106114088
5.2,0.00011397219555062695,81.54745919615713,0,90,3.0,4,0.08345276693107495
5.205,6.55403863487943e-05,80.99775317592832,0,90,3.0,4,0.07211862218408915
5.21,3.701184389455385e-05,80.49244998191267,0,90,3.0,4,0.06169999962706538
5.215,2.0525516217290957e-05,80.03451987045568,0,90,3.0,4,0.05225814165888004
5.22,1.1178128483661116e-05,79.62517922034833,0,90,3.0,4,0.043818128254604724
5.225,5.978135409912517e-06,79.26411332828589,0,90,3.0,4,0.036373470686306954
5.23,3.1396702713238487e-06,78.9497344579457,0,90,3.0,4,0.02989143212259165
5.235,1.6192875458531019e-06,78.67945534241619,0,90,3.0,4,0.024318666853942073
5.24,8.201353897972012e-07,78.44996061991971,0,90,3.0,4,0.01958681690556098
5.245,4.0791415086824765e-07,78.2574618470744,0,90,3.0,4,0.015617770042771045
5.25,1.9923866938774793e-07,78.0979253726538,0,90,3.0,4,0.01232835819904752
5.255,9.556527981051257e-08,77.96726608808848,0,90,3.0,4,0.009634352331721219
5.26,4.501406988770349e-08,77.86150358080003,0,90,3.0,4,0.007453682078351193
5.265,0.0,77.77688026614771,0,90,3.0,4,0.005708871466963173
5.27,0.0,77.70994351493611,0,90,3.0,4,0.004328732266724004
5.275,0.0,77.65759556235399,0,90,3.0,4,0.0032493930382265926
5.28,0.0,77.61711608993805,0,90,3.0,4,0.0024147647409907425
5.285,0.0,77.58616287958085,0,90,3.0,4,0.0017765542181619428
5.29,0.0,77.56275594951525,0,90,3.0,4,0.0012939371034072094
5.295,0.0,77.54525021688922,0,90,3.0,4,0.0009329941626642323
5.3,0.0,77.53230111287208,0,90,3.0,4,0.000666002327259309
5.305,0.0,77.52282681744146,0,90,3.0,4,0.0004706560297207259
5.31,0.0,77.5159699775533,0,90,3.0,4,0.0003292778876968474
5.315,0.0,77.51106099779811,0,90,3.0,4,0.00022806181027033642
5.32,0.0,77.50758429760151,0,90,3.0,4,0.00015637727013424795
5.325,0.0,77.50514834315162,0,90,3.0,4,0.00010615140518798961
5.33,0.0,77.50345979738647,0,90,3.0,4,7.133602858699334e-05
5.335,0.0,77.50230178579928,0,90,3.0,4,4.745950101599042e-05
5.34,0.0,77.5015160384165,0,90,3.0,4,3.1258524051487987e-05
5.345,0.0,77.50098852251757,0,90,3.0,4,2.0381907578837984e-05
5.35,0.0,77.50063810770203,0,90,3.0,4,1.3156859835685891e-05
5.355,0.0,77.50040778614562,0,90,3.0,4,8.407961765264303e-06
5.36,0.0,77.50025798948569,0,90,3.0,4,5.3193708389553834e-06
5.365,0.0,77.50016158558198,0,90,3.0,4,3.3316614840798852e-06
5.37,0.0,77.50010019228165,0,90,3.0,4,2.06582024020463e-06
5.375,0.0,77.50006150309721,0,90,3.0,4,1.2681050971999884e-06
5.38,0.0,77.50003737582321,0,90,3.0,4,7.706355301341262e-07
5.385,0.0,77.50002248617606,0,90,3.0,4,4.63632496170361e-07
5.39,0.0,77.50001339280381,0,90,3.0,4,2.761402847048997e-07
5.395,0.0,77.50000789693324,0,90,3.0,4,1.6282336578677638e-07
5.4,0.0,77.50000460974059,0,90,3.0,4,9.50461976431471e-08
5.405,0.0,77.50000266394692,0,90,3.0,4,5.49267405258621e-08
5.41,0.001684486749771458,77.50000152407277,0,90,3.0,4,3.1424180865683086e-08
5.415,0.004172395771277602,77.50000086321089,0,90,3.0,4,1.779816259550364e-08
5.42,0.009438687428818865,77.50000048401539,0,90,3.0,4,9.979698716895505e-09
5.425,0.019500507867137046,77.50000026867824,0,90,3.0,4,5.539757427127885e-09
5.43,0.03679496976339974,77.50000014765116,0,90,3.0,4,3.0443539007015697e-09
5.435,0.06340728953298436,77.50000008032899,0,90,3.0,4,1.6562677918739506e-09
5.44,0.09979255396093453,77.5000000432652,0,90,3.0,4,8.920660407385026e-10
5.445,0.14343835518453557,77.5000000230694,0,90,3.0,4,4.756578178297711e-10
5.45,0.18829581417209276,77.5000000121777,0,90,3.0,4,2.510864643349142e-10
5.455,0.2257481735193119,77.50000000636392,0,90,3.0,4,1.3121482823539128e-10
5.46,0.24718154073554727,77.50000000329243,0,90,3.0,4,6.788510647086312e-11
5.465,0.24718154074102772,77.5000000016863,0,90,3.0,4,3.4769126867423e-11
5.47,0.22574817354072055,77.50000000085505,0,90,3.0,4,1.7629957058948234e-11
5.475,0.18829581422840957,77.50000000042921,0,90,3.0,4,8.849699896149405e-12
5.48,0.14343835532456656,77.5000000002133,0,90,3.0,4,4.3980397788697334e-12
5.485,0.09979255431561854,77.50000000010493,0,90,3.0,4,2.1635660044752906e-12
5.49,0.06340729067170194,77.50000000005112,0,90,3.0,4,1.0539473074346723e-12
5.495,0.03679497683410042,77.50000000002464,0,90,3.0,4,5.080746819826861e-13
5.5,0.019500578284482293,77.50000000001177,0,90,3.0,4,2.4261005575643833e-13
5.505,0.009439396781978427,77.50000000000556,0,90,3.0,4,1.1456585966276254e-13
5.51,0.004178588733610924,77.5000000000026,0,90,3.0,4,5.3620338409937456e-14
5.515,0.0017299316936037381,77.50000000000121,0,90,3.0,4,2.4905621665817945e-14
5.52,0.0008997325756988589,77.50000000000055,0,90,3.0,4,1.1427285234904704e-14
5.525,0.001634769674224814,77.50000000000026,0,90,3.0,4,5.274131646879094e-15
5.53,0.00614904736476635,77.50000000000011,0,90,3.0,4,2.344058509724042e-15
5.535,0.02168080359963608,77.50000000000004,0,90,3.0,4,8.790219411465157e-16
5.54,0.06433400338904088,77.50000000000003,0,90,3.0,4,5.860146274310105e-16
5.545,0.1593410769217493,77.50000000000001,0,90,3.0,4,2.9300731371550523e-16
5.55,0.3291989194808569,77.5,0,90,3.0,4,0.0
5.555,0.5672906802982638,77.5,0,90,3.0,4,0.0
5.56,0.815339152120446,77.5,0,90,3.0,4,0.0
5.565,0.9768711246313155,77.50000284866415,1,90,3.0,4,5.873534335187662e-08
5.57,0.9726380909165361,77.5000051058168,0,90,3.0,4,1.0527457313222953e-07
5.575,0.7921091683291741,77.50000957430125,0,90,3.0,4,1.9740827309592016e-07
5.58,0.49139090102639077,77.5000192818472,0,90,3.0,4,3.975638598261604e-07
5.585,0.15739335672107918,77.50004238154852,0,90,3.0,4,8.738463613375756e-07
5.59,-0.11102342218909485,77.50010098393257,0,90,3.0,4,2.0821429395662974e-06
5.595,-0.2314207883647528,77.50025390098935,0,90,3.0,4,5.235071945353224e-06
5.6,-0.2029124434754801,77.50065223244145,0,90,3.0,4,1.344809157635656e-05
5.605,-0.11151350554305876,77.50166776507878,0,90,3.0,4,3.438690884079208e-05
5.61,-0.039430666652076896,77.50417234055165,0,90,3.0,4,8.602764024016155e-05
5.615,-0.006087703519843621,77.510108421842,0,90,3.0,4,0.00020842106890733104
5.62,0.005350271385530551,77.52357843699788,0,90,3.0,4,0.00048615334016247844
5.625,0.010381647827441833,77.55277848453393,0,90,3.0,4,0.001088216175957344
5.63,0.015115203303506243,77.61316496400357,0,90,3.0,4,0.002333298226877799
5.635,0.021170964062928475,77.73218082230103,0,90,3.0,4,0.004787233449505819
5.64,0.029082821134029553,77.95555095968672,0,90,3.0,4,0.009392803292509654
5.645,0.03923107061708144,78.35445356436101,0,90,3.0,4,0.017617599265175442
5.65,0.051969043308817596,79.03174778384424,0,90,3.0,4,0.031582428532870896
5.655,0.06760532616283861,80.1240736075666,0,90,3.0,4,0.054104610465290734
5.66,0.08636519236693461,81.79555386436334,0,90,3.0,4,0.08856812091470807
5.665,0.10834733138818661,84.21884563394231,0,90,3.0,4,0.13853289966891358
5.67,0.1334809643017884,87.54128128862234,0,90,3.0,4,0.20703672760046068
5.675,0.16148868344343945,91.83821872914966,0,90,3.0,4,0.2956333758587559
5.68,0.191860907532018,97.06185531965835,0,90,3.0,4,0.40333722308573916
5.685,0.22384764873847726,102.99968719500932,0,90,3.0,4,0.5257667462888519
5.69,0.25647215537198226,109.25960362410099,0,90,3.0,4,0.6548371881257936
5.695,0.2885689161419028,115.29561625128811,0,90,3.0,4,0.7792910567275899
5.7,0.31884566517832524,120.47858111676223,0,90,3.0,4,0.8861563116858191
5.705,0.3459657668955683,124.20209954602316,0,90,3.0,4,0.9629298875468694
5.71,0.3686441789190902,126.0,0,90,3.0,4,1.0
5.715,0.3857476379544367,125.64429828531888,0,90,3.0,4,0.9926659440271934
5.72,0.3963882865005728,123.19538595966438,0,90,3.0,4,0.9421729063848325
5.725,0.4,118.98936513146,0,90,3.0,4,0.8554508274527836
5.73,0.39638828650057273,113.56635473578643,0,90,3.0,4,0.7436361801193079
5.735,0.38574763795443656,107.56103062609117,0,90,3.0,4,0.619815064455488
5.74,0.36864417891908974,101.5861011068479,0,90,3.0,4,0.49662064137830736
5.745,0.345965766895568,96.13795660346761,0,90,3.0,4,0.3842877650199508
5.75,0.3188456651783249,91.54311810108527,0,90,3.0,4,0.2895488268265004
5.755,0.28856891614190205,87.94947025429984,0,90,3.0,4,0.21545299493401732
5.76,0.2564721553719815,85.35341671541337,0,90,3.0,4,0.16192611784357472
5.765,0.22384764873847685,83.646989167333,0,90,3.0,4,0.12674204468727843
5.77,0.19186090753201765,82.66846492619491,0,90,3.0,4,0.10656628713803948
5.775,0.16148868344343878,82.24444734995778,0,90,3.0,4,0.09782365670016044
5.78,0.1334809643017881,82.21768642245108,0,90,3.0,4,0.09727188499899135
5.785,0.10834733138818531,82.46052458609033,0,90,3.0,4,0.10227885744516144
5.79,0.08636519236690572,82.8773024464563,0,90,3.0,4,0.1108722153908515
5.795,0.06760532616242629,83.40018792324622,0,90,3.0,4,0.12165335924219013
5.8,0.05196904332202373,83.98236408595713,0,90,3.0,4,0.13365699146303361
5.805,0.03923107185803287,84.5912275051745,0,90,3.0,4,0.14621087639535055
5.81,0.02908287038705761,85.20293090826489,0,90,3.0,4,0.1588233176961833
5.815,0.02117220077308346,85.79863121407236,0,90,3.0,4,0.17110579822829605
5.82,0.0151361834125735,86.36225875809158,0,90,3.0,4,0.1827269847029193
5.825,0.010626454858290009,86.87941776141984,0,90,3.0,4,0.19339005693649164
5.83,0.007326255555493652,87.3370239424003,0,90,3.0,4,0.20282523592577925
5.835,0.004960179211183015,87.72336626402566,0,90,3.0,4,0.21079105699021972
5.84,0.0032978759379303545,88.0283749476411,0,90,3.0,4,0.2170798958276515
5.845,0.002153242296767213,88.24395573178634,0,90,3.0,4,0.22152486044920294
5.85,0.001380616732225004,88.3643042981417,0,90,3.0,4,0.22400627418848873
5.855,0.0008693106590991584,88.38614919940129,0,90,3.0,4,0.2244566845237379
5.86,0.000537524815942247,88.30889337910872,0,90,3.0,4,0.22286378101255103
5.865,0.0003263951340288585,88.13463907974494,0,90,3.0,4,0.21927090886072048
5.87,0.00019463030985187395,87.86809205042462,0,90,3.0,4,0.21377509382318807
5.875,0.00011397219555062695,87.51635015716049,0,90,3.0,4,0.20652268365279358
5.88,6.55403863487943e-05,87.08858930151122,0,90,3.0,4,0.19770287219610763
5.885,3.701184389455385e-05,86.59566592728085,0,90,3.0,4,0.18753950365527522
5.89,2.0525516217290957e-05,86.04966009546001,0,90,3.0,4,0.17628165145278377
5.895,1.1178128483661116e-05,85.46338590027543,0,90,3.0,4,0.1641935237170191
5.9,5.978135409912517e-06,84.84989676778528,0,90,3.0,4,0.15154426325330478
5.905,3.1396702713238487e-06,84.2220119679011,0,90,3.0,4,0.13859818490517725
5.91,1.6192875458531019e-06,83.59188768943814,0,90,3.0,4,0.12560593174099255
5.915,8.201353897972012e-07,82.97065162366658,0,90,3.0,4,0.11279694069415636
5.92,4.0791415086824765e-07,82.36811462175282,0,90,3.0,4,0.10037349735572833
5.925,1.9923866938774793e-07,81.79256713225858,0,90,3.0,4,0.08850653880945532
5.93,9.556527981051257e-08,81.25066228233223,0,90,3.0,4,0.07733324293468513
5.935,4.501406988770349e-08,80.74738208861933,0,90,3.0,4,0.06695633172410995
5.94,0.0,80.28607873446397,0,90,3.0,4,0.05744492236008186
5.945,0.0,79.86857938189709,0,90,3.0,4,0.048836688286537984
5.95,0.0,79.49534073235793,0,90,3.0,4,0.04114104602799858
5.955,0.0,79.16563852258219,0,90,3.0,4,0.03434306232128217
5.96,0.0,78.87777725057971,0,90,3.0,4,0.028407778362468283
5.965,0.0,78.62930649821172,0,90,3.0,4,0.023284670066221005
5.97,0.0,78.41723202445405,0,90,3.0,4,0.018912000504207247
5.975,0.0,78.23821209460424,0,90,3.0,4,0.015220867929984254
5.98,0.0,78.08873203469501,0,90,3.0,4,0.01213880483907244
5.985,0.0,77.96525253041911,0,90,3.0,4,0.00959283567874448
5.99,0.0,77.86432953928083,0,90,3.0,4,0.007511949263522293
5.995,0.0,77.78270571628579,0,90,3.0,4,0.005828983840944119
6.0,0.0,77.71737488236141,0,90,3.0,4,0.004481956337348699
6.005,0.0,77.66562225546049,0,90,3.0,4,0.003414891865164761
6.01,0.0,77.62504392401856,0,90,3.0,4,0.0025782252374959933
6.015,0.0,77.59354941106356,0,90,3.0,4,0.001928853836362125
6.02,0.0,77.56935121694374,0,90,3.0,4,0.001429921998840083
6.025,0.0,77.55094501323765,0,90,3.0,5,0.0010504126440752874
6.03,0.0,77.53708376644407,0,90,3.0,5,0.0007646137411148447
6.035,0.0,77.52674856940591,0,90,3.0,5,0.000551516894967225
6.04,0.0,77.51911841333184,0,90,3.0,5,0.00039419408931626234
6.045,0.0,77.51354059343424,0,90,3.0,5,0.00027918749348954564
6.05,0.0,77.509502942787,0,90,3.0,5,0.00019593696468030093
6.055,0.0,77.50660865522913,0,90,3.0,5,0.00013626093255937252
6.06,0.0,77.50455410082121,0,90,3.0,5,9.38989860043252e-05
6.065,0.0,77.50310975912758,0,90,3.0,5,6.411874489860575e-05
6.07,0.0,77.50210419229508,0,90,3.0,5,4.338540814595119e-05
6.075,0.0,77.5014108429276,0,90,3.0,5,2.908954489892485e-05
6.08,0.0,77.5009373601135,0,90,3.0,5,1.932701264941785e-05
6.085,0.0,77.5006171188869,0,90,3.0,5,1.2724100760686775e-05
6.09,0.0,77.50040259258478,0,90,3.0,5,8.30087803663999e-06
6.095,0.0,77.50026025391386,0,90,3.0,5,5.3660600796901395e-06
6.1,0.0,77.50016671064509,0,90,3.0,5,3.437332888444365e-06
6.105,0.0,77.50010581907459,0,90,3.0,5,2.181836589501866e-06
6.11,0.0,77.50006655782953,0,90,3.0,5,1.372326381998232e-06
6.115,0.0,77.50004148288069,0,90,3.0,5,8.553171276209056e-07
6.12,0.0,77.50002561965213,0,90,3.0,5,5.282402502036779e-07
6.125,0.0,77.50001567877452,0,90,3.0,5,3.232737013796705e-07
6.13,0.0,77.500009507921,0,90,3.0,5,1.9603960839086754e-07
6.135,0.0,77.50000571338617,0,90,3.0,5,1.1780177676404698e-07
6.14,0.0,77.50000340201449,0,90,3.0,5,7.014462856148515e-08
6.145,0.0,77.50000200730472,0,90,3.0,5,4.138772608937345e-08
6.15,0.0,77.50000117361327,0,90,3.0,5,2.419821176425609e-08
6.155,0.001684486749771458,77.50000067994108,0,90,3.0,5,1.4019403736420292e-08
6.16,0.004172395771277602,77.50000039034815,0,90,3.0,5,8.048415432397436e-09
6.165,0.009438687428818865,77.50000022205856,0,90,3.0,5,4.5785270099868375e-09
6.17,0.019500507867137046,77.50000012517496,0,90,3.0,5,2.5809270871682247e-09
6.175,0.03679496976339974,77.50000006992009,0,90,3.0,5,1.441651361862578e-09
6.18,0.06340728953298436,77.5000000387009,0,90,3.0,5,7.979567796901017e-10
6.185,0.09979255396093453,77.50000002122633,0,90,3.0,5,4.376562342774387e-10
6.19,0.14343835518453557,77.5000000115362,0,90,3.0,5,2.3785982118648256e-10
6.195,0.18829581417209276,77.50000000621277,0,90,3.0,5,1.2809840244671315e-10
6.2,0.2257481735193119,77.50000000331545,0,90,3.0,5,6.835977831908223e-11
6.205,0.24718154073554727,77.50000000175321,0,90,3.0,5,3.61486053003956e-11
6.21,0.24718154074102772,77.50000000091867,0,90,3.0,5,1.8941750802452552e-11
6.215,0.22574817354072055,77.500000000477,0,90,3.0,5,9.835083492174649e-12
6.22,0.18829581422840957,77.50000000024542,0,90,3.0,5,5.060236307866776e-12
6.225,0.14343835532456656,77.50000000012513,0,90,3.0,5,2.5799293972650234e-12
6.23,0.09979255431561854,77.50000000006321,0,90,3.0,5,1.3032965314065673e-12
6.235,0.06340729067170194,77.50000000003165,0,90,3.0,5,6.525272876444302e-13
6.24,0.03679497683410042,77.5000000000157,0,90,3.0,5,3.237730816556333e-13
6.245,0.019500578284482293,77.50000000000772,0,90,3.0,5,1.5910297134751933e-13
6.25,0.009439396781978427,77.50000000000375,0,90,3.0,5,7.735393082089338e-14
6.255,0.004178588733610924,77.50000000000182,0,90,3.0,5,3.750493615558467e-14
6.26,0.0017299316936037381,77.50000000000087,0,90,3.0,5,1.787344613664582e-14
6.265,0.0008997325756988589,77.50000000000041,0,90,3.0,5,8.497212097749651e-15
6.27,0.001634769674224814,77.5000000000002,0,90,3.0,5,4.102102392017073e-15
6.275,0.00614904736476635,77.50000000000009,0,90,3.0,5,1.7580438822930315e-15
6.28,0.02168080359963608,77.50000000000004,0,90,3.0,5,8.790219411465157e-16
6.285,0.06433400338904088,77.50000000000001,0,90,3.0,5,2.9300731371550523e-16
6.29,0.1593410769217493,77.50000000000001,0,90,3.0,5,2.9300731371550523e-16
6.295,0.3291989194808569,77.5,0,90,3.0,5,0.0
6.3,0.5672906802982638,77.5,0,90,3.0,5,0.0
6.305,0.815339152120446,77.5,0,90,3.0,5,0.0
6.31,0.9768711246313155,77.50000285700571,1,90,3.0,5,5.890733424991792e-08
6.315,0.9726380909165361,77.5000055981037,0,90,3.0,5,1.1542481851411701e-07
6.32,0.7921091683291741,77.50001170193522,0,90,3.0,5,2.412770148805872e-07
6.325,0.49139090102639077,77.5000270882034,0,90,3.0,5,5.585196576478281e-07
6.33,0.15739335672107918,77.50007030382385,0,90,3.0,5,1.4495633782883385e-06
6.335,-0.11102342218909485,77.50019904185636,0,90,3.0,5,4.1039558012827685e-06
6.34,-0.2314207883647528,77.50058607134292,0,90,3.0,5,1.2083945214904703e-05
6.345,-0.2029124434754801,77.50172157287263,0,90,3.0,5,3.549634788918851e-05
6.35,-0.11151350554305876,77.50491227303426,0,90,3.0,5,0.00010128398008792904
6.355,-0.039430666652076896,77.51341548520728,0,90,3.0,5,0.00027660794241804996
6.36,-0.006087703519843621,77.53479767151332,0,90,3.0,5,0.0007174777631611781
6.365,0.005350271385530551,77.58538694566,0,90,3.0,5,0.001760555580618663
6.37,0.010381647827441833,77.69780421918405,0,90,3.0,5,0.004078437508949487
6.375,0.015115203303506243,77.93212374321509,0,90,3.0,5,0.008909767901341991
6.38,0.021170964062928475,78.38971621807644,0,90,3.0,5,0.018344664290235957
6.385,0.029082821134029553,79.22592550239746,0,90,3.0,5,0.035586092832937295
6.39,0.03923107061708144,80.65382694330745,0,90,3.0,5,0.06502735965582372
6.395,0.051969043308817596,82.92814688244911,0,90,3.0,5,0.1119205542773013
6.4,0.06760532616283861,86.29905479142072,0,90,3.0,5,0.1814238101323859
6.405,0.08636519236693461,90.93310591840898,0,90,3.0,5,0.27697125604966977
6.41,0.10834733138818661,96.81375736041753,0,90,3.0,5,0.3982218012457222
6.415,0.1334809643017884,103.65218979533569,0,90,3.0,5,0.5392204081512513
6.42,0.16148868344343945,110.85098906485283,0,90,3.0,5,0.6876492590691304
6.425,0.191860907532018,117.55776115670236,0,90,3.0,5,0.8259332197258218
6.43,0.22384764873847726,122.81835656489098,0,90,3.0,5,0.9343991044307418
6.435,0.25647215537198226,125.79775358536652,0,90,3.0,5,0.9958299708322994
6.44,0.2885689161419028,126.0,0,90,3.0,5,1.0
6.445,0.31884566517832524,123.40809829602208,0,90,3.0,5,0.9465587277530325
6.45,0.3459657668955683,118.49003065599916,0,90,3.0,5,0.8451552712577147
6.455,0.3686441789190902,112.06852813875727,0,90,3.0,5,0.71275315750015
6.46,0.3857476379544367,105.10477932098621,0,90,3.0,5,0.5691707076492002
6.465,0.3963882865005728,98.47443100842273,0,90,3.0,5,0.4324624950190253
6.47,0.4,92.8066072912793,0,90,3.0,5,0.3156001503356558
6.475,0.39638828650057273,88.42148372327156,0,90,3.0,5,0.2251852314076611
6.48,0.38574763795443656,85.35990241659837,0,90,3.0,5,0.16205984364120357
6.485,0.36864417891908974,83.46944358620377,0,90,3.0,5,0.12308131105574777
6.49,0.345965766895568,82.50409108932574,0,90,3.0,5,0.1031771358623864
6.495,0.3188456651783249,82.20538889595129,0,90,3.0,5,0.09701832775157294
6.5,0.28856891614190205,82.35118221387862,0,90,3.0,5,0.10002437554388899
6.505,0.2564721553719815,82.77370137387766,0,90,3.0,5,0.10873611080160117
6.51,0.22384764873847685,83.35697885227354,0,90,3.0,5,0.12076245056234107
6.515,0.19186090753201765,84.0246919330554,0,90,3.0,5,0.13452973057846174
6.52,0.16148868344343878,84.72653191551647,0,90,3.0,5,0.1490006580518861
6.525,0.1334809643017881,85.42725699479512,0,90,3.0,5,0.16344859783082713
6.53,0.10834733138818531,86.09955203844497,0,90,3.0,5,0.17731035130814368
6.535,0.08636519236690572,86.72019234262434,0,90,3.0,5,0.1901070586108112
6.54,0.06760532616242629,87.26848870696234,0,90,3.0,5,0.20141213828788337
6.545,0.05196904332202373,87.72606423286395,0,90,3.0,5,0.21084668521368966
6.55,0.03923107185803287,88.07728034294114,0,90,3.0,5,0.2180882544936317
6.555,0.02908287038705761,88.30988433026353,0,90,3.0,5,0.22288421299512431
6.56,0.02117220077308346,88.41562988670005,0,90,3.0,5,0.2250645337463927
6.565,0.0151361834125735,88.39073171494468,0,90,3.0,5,0.22455116938030265
6.57,0.010626454858290009,88.23608061227844,0,90,3.0,5,0.2213624868511019
6.575,0.007326255555493652,87.95718762032197,0,90,3.0,5,0.2156121158829273
6.58,0.004960179211183015,87.56385719193653,0,90,3.0,5,0.20750221014302134
6.585,0.0032978759379303545,87.06961485035202,0,90,3.0,5,0.19731164639901083
6.59,0.002153242296767213,86.49093547163766,0,90,3.0,5,0.18538011281727124
6.595,0.001380616732225004,85.84633343081921,0,90,3.0,5,0.17208934908905596
6.6,0.0008693106590991584,85.15538449808108,0,90,3.0,5,0.15784297934187785
6.605,0.000537524815942247,84.43775108996621,0,90,3.0,5,0.14304641422610748
6.61,0.0003263951340288585,83.71227751571944,0,90,3.0,5,0.12808819620040074
6.615,0.00019463030985187395,82.99621117057644,0,90,3.0,5,0.11332394166136998
6.62,0.00011397219555062695,82.30459074772966,0,90,3.0,5,0.09906372675731262
6.625,6.55403863487943e-05,81.64982534565863,0,90,3.0,5,0.08556340918883767
6.63,3.701184389455385e-05,81.04147079905813,0,90,3.0,5,0.0730200164754254
6.635,2.0525516217290957e-05,80.4861934573874,0,90,3.0,5,0.06157099912138971
6.64,1.1178128483661116e-05,79.98789840738041,0,90,3.0,5,0.05129687437897759
6.645,5.978135409912517e-06,79.54798972143004,0,90,3.0,5,0.04222659219443386
6.65,3.1396702713238487e-06,79.1657251050575,0,90,3.0,5,0.03434484752695885
6.655,1.6192875458531019e-06,78.83862619104653,0,90,3.0,5,0.027600540021577923
6.66,8.201353897972012e-07,78.5629081394647,0,90,3.0,5,0.021915631741540122
6.665,4.0791415086824765e-07,78.33389731528789,0,90,3.0,5,0.017193759078100723
6.67,1.9923866938774793e-07,78.14641264967727,0,90,3.0,5,0.013328095869634505
6.675,9.556527981051257e-08,77.9950938659425,0,90,3.0,5,0.010208120947267908
6.68,4.501406988770349e-08,77.87466719823882,0,90,3.0,5,0.007725096870903608
6.685,0.0,77.78014587226397,0,90,3.0,5,0.00577620355183448
6.69,0.0,77.7069680038797,0,90,3.0,5,0.004267381523292672
6.695,0.0,77.651078485453,0,90,3.0,5,0.0031150203186185305
6.7,0.0,77.6089638555516,0,90,3.0,5,0.0022466774340534693
6.705,0.0,77.57765022693218,0,90,3.0,5,0.0016010356068490341
6.71,0.0,77.55467432434818,0,90,3.0,5,0.0011273056566635917
6.715,0.0,77.53803685039938,0,90,3.0,5,0.0007842649566882334
6.72,0.0,77.52614605077103,0,90,3.0,5,0.0005390938303305668
6.725,0.0,77.5177577558228,0,90,3.0,5,0.0003661392953154532
6.73,0.0,77.51191654857978,0,90,3.0,5,0.000245702032572712
6.735,0.0,77.507901204888,0,90,3.0,5,0.0001629114409896965
6.74,0.0,77.5051762660216,0,90,3.0,5,0.00010672713446612442
6.745,0.0,77.50335058222204,0,90,3.0,5,6.908416952660915e-05
6.75,0.0,77.50214291231161,0,90,3.0,5,4.4183759002311787e-05
6.755,0.0,77.50135415677913,0,90,3.0,5,2.792075833256313e-05
6.76,0.0,77.50084550060859,0,90,3.0,5,1.7433002238989895e-05
6.765,0.0,77.50052160209725,0,90,3.0,5,1.075468241754972e-05
6.77,0.0,77.50031793999378,0,90,3.0,5,6.555463789233549e-06
6.775,0.0,77.50019148352861,0,90,3.0,5,3.948113991960669e-06
6.78,0.0,77.50011394574456,0,90,3.0,5,2.3493967950292517e-06
6.785,0.0,77.50006699543745,0,90,3.0,5,1.381349225776202e-06
6.79,0.0,77.50003891999467,0,90,3.0,5,8.024741168107361e-07
6.795,0.0,77.50002233987531,0,90,3.0,5,4.6061598587565985e-07
6.8,0.0,77.5000126697821,0,90,3.0,5,2.6123262050673147e-07
6.805,0.001684486749771458,77.50000709966693,0,90,3.0,5,1.4638488517110878e-07
6.81,0.004172395771277602,77.50000393085688,0,90,3.0,5,8.104859540891112e-08
6.815,0.009438687428818865,77.50000215038844,0,90,3.0,5,4.433790597441029e-08
6.82,0.019500507867137046,77.50000116232353,0,90,3.0,5,2.3965433568911375e-08
6.825,0.03679496976339974,77.50000062075121,0,90,3.0,5,1.2798993992939508e-08
6.83,0.06340728953298436,77.50000032755825,0,90,3.0,5,6.7537784391404165e-09
6.835,0.09979255396093453,77.50000017078115,0,90,3.0,5,3.52126080870971e-09
6.84,0.14343835518453557,77.50000008797753,0,90,3.0,5,1.8139696022472824e-09
6.845,0.18829581417209276,77.50000004478,0,90,3.0,5,9.232988623366931e-10
6.85,0.2257481735193119,77.50000002252042,0,90,3.0,5,4.6433865229362745e-10
6.855,0.24718154073554727,77.50000001119051,0,90,3.0,5,2.3073212527303918e-10
6.86,0.24718154074102772,77.50000000549419,0,90,3.0,5,1.1328219462137492e-10
6.865,0.22574817354072055,77.50000000266525,0,90,3.0,5,5.495352168734301e-11
6.87,0.18829581422840957,77.50000000127747,0,90,3.0,5,2.6339599459141628e-11
6.875,0.14343835532456656,77.50000000060498,0,90,3.0,5,1.247390735949649e-11
6.88,0.09979255431561854,77.5000000002831,0,90,3.0,5,5.83699869652658e-12
6.885,0.06340729067170194,77.50000000013088,0,90,3.0,5,2.698597359319803e-12
6.89,0.03679497683410042,77.50000000005979,0,90,3.0,5,1.2326817688011305e-12
6.895,0.019500578284482293,77.50000000002699,0,90,3.0,5,5.564208887457445e-13
6.9,0.009439396781978427,77.50000000001204,0,90,3.0,5,2.481771947170329e-13
6.905,0.004178588733610924,77.5000000000053,0,90,3.0,5,1.0929172801588345e-13
6.91,0.0017299316936037381,77.5000000000023,0,90,3.0,5,4.746718482191185e-14
6.915,0.0008997325756988589,77.500000000001,0,90,3.0,5,2.0510511960085366e-14
6.92,0.001634769674224814,77.50000000000043,0,90,3.0,5,8.790219411465157e-15
6.925,0.00614904736476635,77.50000000000017,0,90,3.0,5,3.516087764586063e-15
6.93,0.02168080359963608,77.50000000000007,0,90,3.0,5,1.465036568577526e-15
6.935,0.06433400338904088,77.50000000000003,0,90,3.0,5,5.860146274310105e-16
6.94,0.1593410769217493,77.50000000000001,0,90,3.0,5,2.9300731371550523e-16
6.945,0.3291989194808569,77.5,0,90,3.0,5,0.0
6.95,0.5672906802982638,77.5,0,90,3.0,5,0.0
6.955,0.815339152120446,77.5,0,90,3.0,5,0.0
6.96,0.9768711246313155,77.50000284146185,1,90,3.0,5,5.858684226416127e-08
6.965,0.9726380909165361,77.50000566108393,0,90,3.0,5,1.1672338004733394e-07
6.97,0.7921091683291741,77.50001208193964,0,90,3.0,5,2.49112157614514e-07
6.975,0.49139090102639077,77.50002873397177,0,90,3.0,5,5.924530262760039e-07
6.98,0.15739335672107918,77.50007697165655,0,90,3.0,5,1.5870444650369519e-06
6.985,-0.11102342218909485,77.5002248661891,0,90,3.0,5,4.636416270107747e-06
6.99,-0.2314207883647528,77.50068051525129,0,90,3.0,5,1.4031242294631925e-05
6.995,-0.2029124434754801,77.50204432602273,0,90,3.0,5,4.215105201498454e-05
7.0,-0.11151350554305876,77.50593777613041,0,90,3.0,5,0.00012242837382286874
7.005,-0.039430666652076896,77.5164399231014,0,90,3.0,5,0.00033896748662683775
7.01,-0.006087703519843621,77.5430754284251,0,90,3.0,5,0.0008881531634040833
7.015,0.005350271385530551,77.60641853580098,0,90,3.0,5,0.0021941966144532724
7.02,0.010381647827441833,77.74742477142738,0,90,3.0,5,0.005101541678914966
7.025,0.015115203303506243,78.0408498094408,0,90,3.0,5,0.011151542462696914
7.03,0.021170964062928475,78.61092688858213,0,90,3.0,5,0.022905709042930475
7.035,0.029082821134029553,79.6435860439409,0,90,3.0,5,0.04419765039053402
7.04,0.03923107061708144,81.38481376725014,0,90,3.0,5,0.08009925293299251
7.045,0.051969043308817596,84.11198300521768,0,90,3.0,5,0.13632954649933363
7.05,0.06760532616283861,88.06822919931167,0,90,3.0,5,0.21790163297549842
7.055,0.08636519236693461,93.3624433467146,0,90,3.0,5,0.3270606875611258
7.06,0.10834733138818661,99.85796314992469,0,90,3.0,5,0.4609889309262822
7.065,0.1334809643017884,107.09329543873122,0,90,3.0,5,0.6101710399738396
7.07,0.16148868344343945,114.28467844096284,0,90,3.0,5,0.7584469781641822
7.075,0.191860907532018,120.44171590167264,0,90,3.0,5,0.8853962041581988
7.08,0.22384764873847726,124.58441298286456,0,90,3.0,5,0.9708126388219498
7.085,0.25647215537198226,126.0,0,90,3.0,5,1.0
7.09,0.2885689161419028,124.44805851086043,0,90,3.0,5,0.9680012064094935
7.095,0.31884566517832524,120.23336770229193,0,90,3.0,5,0.8811003649957099
7.1,0.3459657668955683,114.1166790767293,0,90,3.0,5,0.7549830737469958
7.105,0.3686441789190902,107.09975419133913,0,90,3.0,5,0.6103042101307037
7.11,0.3857476379544367,100.16845034237797,0,90,3.0,5,0.46739072870882403
7.115,0.3963882865005728,94.08390247082684,0,90,3.0,5,0.34193613341911017
7.12,0.4,89.27867445647695,0,90,3.0,5,0.2428592671438546
7.125,0.39638828650057273,85.864344835223,0,90,3.0,5,0.1724607182520205
7.13,0.38574763795443656,83.71609774519702,0,90,3.0,5,0.1281669638184952
7.135,0.36864417891908974,82.5841699556867,0,90,3.0,5,0.10482824650900421
7.14,0.345965766895568,82.19056841459238,0,90,3.0,5,0.09671275081633768
7.145,0.3188456651783249,82.29034138789683,0,90,3.0,5,0.098769925523646
7.15,0.28856891614190205,82.69662523703138,0,90,3.0,5,0.10714691210373987
7.155,0.2564721553719815,83.28017122082787,0,90,3.0,5,0.11917878805830655
7.16,0.22384764873847685,83.95647708211006,0,90,3.0,5,0.1331232388063929
7.165,0.19186090753201765,84.67048907652408,0,90,3.0,5,0.1478451355984346
7.17,0.16148868344343878,85.38412783726835,0,90,3.0,5,0.16255933685089385
7.175,0.1334809643017881,86.06814495598806,0,90,3.0,5,0.17666278259769197
7.18,0.10834733138818531,86.69778161152293,0,90,3.0,5,0.1896449816808851
7.185,0.08636519236690572,87.25104168924796,0,90,3.0,5,0.20105240596387536
7.19,0.06760532616242629,87.70847176089451,0,90,3.0,5,0.21048395383287652
7.195,0.05196904332202373,88.05365884673252,0,90,3.0,5,0.21760121333469107
7.2,0.03923107185803287,88.27395822955663,0,90,3.0,5,0.2221434686506521
7.205,0.02908287038705761,88.36117218288662,0,90,3.0,5,0.22394169449250761
7.21,0.02117220077308346,88.31202622987558,0,90,3.0,5,0.22292837587372338
7.215,0.0151361834125735,88.12836388999429,0,90,3.0,5,0.2191415235050369
7.22,0.010626454858290009,87.81702923229327,0,90,3.0,5,0.2127222522122323
7.225,0.007326255555493652,87.38944286440807,0,90,3.0,5,0.20390603844140345
7.23,0.004960179211183015,86.86090652517962,0,90,3.0,6,0.1930083819624663
7.235,0.0032978759379303545,86.24969489964558,0,90,3.0,6,0.18040608040506342
7.24,0.002153242296767213,85.57600963817242,0,90,3.0,6,0.16651566264273035
7.245,0.001380616732225004,84.86087877929835,0,90,3.0,6,0.15177069648037828
7.25,0.0008693106590991584,84.1250844861679,0,90,3.0,6,0.13659968012717333
7.255,0.000537524815942247,83.38819378194358,0,90,3.0,6,0.12140605735966155
7.26,0.0003263951340288585,82.66775226181372,0,90,3.0,6,0.10655159302708696
7.265,0.00019463030985187395,81.97868166934622,0,90,3.0,6,0.0923439519452828
7.27,0.00011397219555062695,81.33290118404989,0,90,3.0,6,0.07902889039278119
7.275,6.55403863487943e-05,80.73917169351294,0,90,3.0,6,0.066787045227071
7.28,3.701184389455385e-05,80.20314431499443,0,90,3.0,6,0.05573493432978211
7.285,2.0525516217290957e-05,79.72758053473622,0,90,3.0,6,0.04592949556157153
7.29,1.1178128483661116e-05,79.31270241863277,0,90,3.0,6,0.03737530760067562
7.295,5.978135409912517e-06,78.95662759204296,0,90,3.0,6,0.030033558598823985
7.3,3.1396702713238487e-06,78.6558446534466,0,90,3.0,6,0.02383184852467202
7.305,1.6192875458531019e-06,78.40568947884991,0,90,3.0,6,0.018674009873193977
7.31,8.201353897972012e-07,78.20079032117712,0,90,3.0,6,0.014449284972724198
7.315,4.0791415086824765e-07,78.03545846105052,0,90,3.0,6,0.011040380640216993
7.32,1.9923866938774793e-07,77.90401025968183,0,90,3.0,6,0.008330108447047955
7.325,9.556527981051257e-08,77.80101484957184,0,90,3.0,6,0.006206491743749331
7.33,4.501406988770349e-08,77.72146870454772,0,90,3.0,6,0.004566365042220984
7.335,0.0,77.66090358782964,0,90,3.0,6,0.0033175997490646754
7.34,0.0,77.61543779137935,0,90,3.0,6,0.0023801606469968993
7.345,0.0,77.58178227885897,0,90,3.0,6,0.001686232553793126
7.35,0.0,77.55721360654816,0,90,3.0,6,0.0011796619906837135
7.355,0.0,77.539524679794,0,90,3.0,6,0.0008149418514226595
7.36,0.0,77.5269628821488,0,90,3.0,6,0.0005559357144081271
7.365,0.0,77.51816323428235,0,90,3.0,6,0.0003744996759248408
7.37,0.0,77.51208228217608,0,90,3.0,6,0.0002491192201253834
7.375,0.0,77.50793658518138,0,90,3.0,6,0.00016364093157491326
7.38,0.0,77.5051481039483,0,90,3.0,6,0.00010614647316084095
7.385,0.0,77.50329753832021,0,90,3.0,6,6.799048082910107e-05
7.39,0.0,77.50208574548876,0,90,3.0,6,4.300506162383865e-05
7.395,0.0,77.50130275183275,0,90,3.0,6,2.686086253099591e-05
7.4,0.0,77.50080350945366,0,90,3.0,6,1.6567205230122108e-05
7.405,0.0,77.50048938336957,0,90,3.0,6,1.0090378753998781e-05
7.41,0.0,77.5002943312271,0,90,3.0,6,6.068685094758096e-06
7.415,0.0,77.50017480441339,0,90,3.0,6,3.6042147090816777e-06
7.42,0.0,77.50010251734817,0,90,3.0,6,2.1137597560393317e-06
7.425,0.0,77.50005937057459,0,90,3.0,6,1.2241355585553447e-06
7.43,0.0,77.50003395267987,0,90,3.0,6,7.000552550755284e-07
7.435,0.0,77.50001917369362,0,90,3.0,6,3.9533388898816314e-07
7.44,0.001684486749771458,77.50001069218405,0,90,3.0,6,2.204574030591025e-07
7.445,0.004172395771277602,77.50000588783982,0,90,3.0,6,1.2139875915983288e-07
7.45,0.009438687428818865,77.50000320165451,0,90,3.0,6,6.601349500482514e-08
7.455,0.019500507867137046,77.50000171918202,0,90,3.0,6,3.5447052029020285e-08
7.46,0.03679496976339974,77.50000091158711,0,90,3.0,6,1.8795610474663807e-08
7.465,0.06340728953298436,77.50000047731316,0,90,3.0,6,9.841508556549802e-09
7.47,0.09979255396093453,77.50000024679568,0,90,3.0,6,5.088570701117692e-09
7.475,0.14343835518453557,77.50000012600873,0,90,3.0,6,2.5981181192712274e-09
7.48,0.18829581417209276,77.50000006353201,0,90,3.0,6,1.3099384211938703e-09
7.485,0.2257481735193119,77.50000003163105,0,90,3.0,6,6.52186520138579e-10
7.49,0.24718154073554727,77.50000001555118,0,90,3.0,6,3.2064288452321053e-10
7.495,0.24718154074102772,77.50000000754991,0,90,3.0,6,1.5566833961614618e-10
7.5,0.22574817354072055,77.5000000036195,0,90,3.0,6,7.462896280333919e-11
7.505,0.18829581422840957,77.5000000017135,0,90,3.0,6,3.5329942865874475e-11
7.51,0.14343835532456656,77.50000000080104,0,90,3.0,6,1.65162362595156e-11
7.515,0.09979255431561854,77.50000000036978,0,90,3.0,6,7.624343310191161e-12
7.52,0.06340729067170194,77.50000000016857,0,90,3.0,6,3.475652755293323e-12
7.525,0.03679497683410042,77.50000000007587,0,90,3.0,6,1.5643660479270824e-12
7.53,0.019500578284482293,77.50000000003372,0,90,3.0,6,6.953063554468939e-13
7.535,0.009439396781978427,77.50000000001481,0,90,3.0,6,3.0531362089155643e-13
7.54,0.004178588733610924,77.50000000000642,0,90,3.0,6,1.3243930579940837e-13
7.545,0.0017299316936037381,77.50000000000274,0,90,3.0,6,5.655041154709251e-14
7.55,0.0008997325756988589,77.50000000000117,0,90,3.0,6,2.402659972467143e-14
7.555,0.001634769674224814,77.50000000000048,0,90,3.0,6,9.962248666327177e-15
7.56,0.00614904736476635,77.5000000000002,0,90,3.0,6,4.102102392017073e-15
7.565,0.02168080359963608,77.50000000000009,0,90,3.0,6,1.7580438822930315e-15
7.57,0.06433400338904088,77.50000000000003,0,90,3.0,6,5.860146274310105e-16
7.575,0.1593410769217493,77.50000000000001,0,90,3.0,6,2.9300731371550523e-16
7.58,0.3291989194808569,77.5,0,90,3.0,6,0.0
7.585,0.5672906802982638,77.5,0,90,3.0,6,0.0
7.59,0.815339152120446,77.5,0,90,3.0,6,0.0
7.595,0.9768711246313155,77.50000285893489,1,90,3.0,6,5.894711116478405e-08
7.6,0.9726380909165361,77.50000618812223,0,90,3.0,6,1.275901490302691e-07
7.605,0.7921091683291741,77.50001468035043,0,90,3.0,6,3.026876377767509e-07
7.61,0.49139090102639077,77.50004011217966,0,90,3.0,6,8.270552507500602e-07
7.615,0.15739335672107918,77.50012586528338,0,90,3.0,6,2.595160482057049e-06
7.62,-0.11102342218909485,77.50042726793068,0,90,3.0,6,8.809648055157877e-06
7.625,-0.2314207883647528,77.50146692328671,0,90,3.0,6,3.0245840963164848e-05
7.63,-0.2029124434754801,77.50487105184348,0,90,3.0,6,0.00010043405862845866
7.635,-0.11151350554305876,77.51528218449549,0,90,3.0,6,0.00031509658753587657
7.64,-0.039430666652076896,77.54479593010373,0,90,3.0,6,0.0009236274248192063
7.645,-0.006087703519843621,77.62204053299997,0,90,3.0,6,0.00251629964948402
7.65,0.005350271385530551,77.80824652760434,0,90,3.0,6,0.006355598507305966
7.655,0.010381647827441833,78.22092533119431,0,90,3.0,6,0.014864439818439355
7.66,0.015115203303506243,79.06031377637058,0,90,3.0,6,0.032171418069496444
7.665,0.021170964062928475,80.6240864071174,0,90,3.0,6,0.06441415272407017
7.67,0.029082821134029553,83.2856052670689,0,90,3.0,6,0.11929083024884335
7.675,0.03923107061708144,87.40944979650192,0,90,3.0,6,0.20431855250519418
7.68,0.051969043308817596,93.19661535878168,0,90,3.0,6,0.3236415537893131
7.685,0.06760532616283861,100.49390932475231,0,90,3.0,6,0.47410122319076925
7.69,0.08636519236693461,108.65132916743002,0,90,3.0,6,0.6422954467511345
7.695,0.10834733138818661,116.53176722628177,0,90,3.0,6,0.8047787056965314
7.7,0.1334809643017884,122.73557070070211,0,90,3.0,6,0.9326921793959199
7.705,0.16148868344343945,126.0,0,90,3.0,6,1.0
7.71,0.191860907532018,125.62298582495731,0,90,3.0,6,0.9922265118547899
7.715,0.22384764873847726,121.71803980938984,0,90,3.0,6,0.9117121610183472
7.72,0.25647215537198226,115.1748489499153,0,90,3.0,6,0.7768010092766041
7.725,0.2885689161419028,107.3452185843005,0,90,3.0,6,0.6153653316350618
7.73,0.31884566517832524,99.60678992267415,0,90,3.0,6,0.45581010149843615
7.735,0.3459657668955683,92.99679555401843,0,90,3.0,6,0.31952155781481306
7.74,0.3686441789190902,88.04208125889988,0,90,3.0,6,0.21736250018350275
7.745,0.3857476379544367,84.79591935806049,0,90,3.0,6,0.15043132697031933
7.75,0.3963882865005728,83.00191711258685,0,90,3.0,6,0.11344158995024438
7.755,0.4,82.28100953608437,0,90,3.0,6,0.09857751620792514
7.76,0.39638828650057273,82.2691592434131,0,90,3.0,6,0.09833318027655875
7.765,0.38574763795443656,82.6836701097863,0,90,3.0,6,0.10687979607806816
7.77,0.36864417891908974,83.33287140328397,0,90,3.0,6,0.12026538975843246
7.775,0.345965766895568,84.09661735200604,0,90,3.0,6,0.13601272890734092
7.78,0.3188456651783249,84.90017530817117,0,90,3.0,6,0.15258093418909632
7.785,0.28856891614190205,85.69329084161134,0,90,3.0,6,0.1689338317858009
7.79,0.2564721553719815,86.43743999716447,0,90,3.0,6,0.18427711334359742
7.795,0.22384764873847685,87.09984541959422,0,90,3.0,6,0.19793495710503542
7.8,0.19186090753201765,87.65172216748766,0,90,3.0,6,0.20931385912345696
7.805,0.16148868344343878,88.06865320462217,0,90,3.0,6,0.21791037535303434
7.81,0.1334809643017881,88.33175555080422,0,90,3.0,6,0.22333516599596326
7.815,0.10834733138818531,88.4288907394673,0,90,3.0,6,0.22533795339107848
7.82,0.08636519236690572,88.35553086478332,0,90,3.0,6,0.22382537865532615
7.825,0.06760532616242629,88.1150913912956,0,90,3.0,6,0.21886786373805375
7.83,0.05196904332202373,87.71866320849443,0,90,3.0,6,0.2106940867730811
7.835,0.03923107185803287,87.18416339903555,0,90,3.0,6,0.19967347214506298
7.84,0.02908287038705761,86.53499269797297,0,90,3.0,6,0.18628850923655602
7.845,0.02117220077308346,85.79833909740718,0,90,3.0,6,0.17109977520427175
7.85,0.0151361834125735,85.0032984901782,0,90,3.0,6,0.15470718536449887
7.855,0.010626454858290009,84.1789923168614,0,90,3.0,6,0.13771118179095662
7.86,0.007326255555493652,83.35284925367858,0,90,3.0,6,0.12067730419955845
7.865,0.004960179211183015,82.54918644393858,0,90,3.0,6,0.10410693698842434
7.87,0.0032978759379303545,81.78818142130838,0,90,3.0,6,0.08841611177955423
7.875,0.002153242296767213,81.08527579059167,0,90,3.0,6,0.07392321217714776
7.88,0.001380616732225004,80.45100306514775,0,90,3.0,6,0.06084542402366484
7.885,0.0008693106590991584,79.89119187830183,0,90,3.0,6,0.04930292532581083
7.89,0.000537524815942247,79.40746627281584,0,90,3.0,6,0.0393292015013575
7.895,0.0003263951340288585,78.99794884579315,0,90,3.0,6,0.03088554321222983
7.9,0.00019463030985187395,78.65806989536343,0,90,3.0,6,0.02387772980130774
7.905,0.00011397219555062695,78.38139429627614,0,90,3.0,6,0.018173078273734877
7.91,6.55403863487943e-05,78.16039438770699,0,90,3.0,6,0.013616379127979106
7.915,3.701184389455385e-05,77.98711800925507,0,90,3.0,6,0.010043670293918974
7.92,2.0525516217290957e-05,77.85372248948764,0,90,3.0,6,0.0072932472059306684
7.925,1.1178128483661116e-05,77.75286506567673,0,90,3.0,6,0.005213712694365561
7.93,5.978135409912517e-06,77.67795601393767,0,90,3.0,6,0.003669196163663384
7.935,3.1396702713238487e-06,77.62329179601988,0,90,3.0,6,0.0025420988870079324
7.94,1.6192875458531019e-06,77.5840917447069,0,90,3.0,6,0.0017338504063277539
7.945,0.001684486749771458,77.55646381545465,0,90,3.0,6,0.0011642023805082191
7.95,0.004172395771277602,77.53732370552795,0,90,3.0,6,0.0007695609387206838
7.955,0.009438687428818865,77.52428829121516,0,90,3.0,6,0.0005007895095908698
7.96,0.019500507867137046,77.5155599014792,0,90,3.0,6,0.00032082271091119944
7.965,0.03679496976339974,77.5098132846989,0,90,3.0,6,0.00020233576698748862
7.97,0.06340728953298436,77.5060928379677,0,90,3.0,6,0.0001256255251072049
7.975,0.09979255396093453,77.50372411028097,0,90,3.0,6,7.678577898907617e-05
7.98,0.14343835518453557,77.50224090327806,0,90,3.0,6,4.62041913002962e-05
7.985,0.18829581417209276,77.5013274597602,0,90,3.0,6,2.737030433412112e-05
7.99,0.2257481735193119,77.50077413605054,0,90,3.0,6,1.59615680523253e-05
7.995,0.24718154073554727,77.50044443770291,0,90,3.0,6,9.163663977530923e-06
8.0,0.24718154074102772,77.50025118989846,0,90,3.0,6,5.179173164198389e-06
8.005,0.22574817354072055,77.50013976264815,0,90,3.0,6,2.8817040854907656e-06
8.01,0.18829581422840957,77.50007655573768,0,90,3.0,6,1.578468818104401e-06
8.015,0.14343835532456656,77.50004128212503,0,90,3.0,6,8.511778355686025e-07
8.02,0.09979255431561854,77.50002191512834,0,90,3.0,6,4.518583163536681e-07
8.025,0.06340729067170194,77.50001145311617,0,90,3.0,6,2.361467252121281e-07
8.03,0.03679497683410042,77.50000589251896,0,90,3.0,6,1.2149523621298342e-07
8.035,0.019500578284482293,77.50000298453024,0,90,3.0,6,6.153670599430661e-08
8.04,0.009439396781978427,77.50000148815667,0,90,3.0,6,3.0683642678210616e-08
8.045,0.004178588733610924,77.50000073049794,0,90,3.0,6,1.506181329486279e-08
8.05,0.0017299316936037381,77.50000035301001,0,90,3.0,6,7.278556882063396e-09
8.055,0.0008997325756988589,77.50000016793945,0,90,3.0,6,3.4626690152079617e-09
8.06,0.001634769674224814,77.50000007865314,0,90,3.0,6,1.6217143183894223e-09
8.065,0.00614904736476635,77.50000003626411,0,90,3.0,6,7.477136435780492e-10
8.07,0.02168080359963608,77.50000001646023,0,90,3.0,6,3.393862693742777e-10
8.075,0.06433400338904088,77.50000000735515,0,90,3.0,6,1.516526743816752e-10
8.08,0.1593410769217493,77.50000000323554,0,90,3.0,6,6.671219819405994e-11
8.085,0.3291989194808569,77.50000000140119,0,90,3.0,6,2.8890521132348817e-11
8.09,0.5672906802982638,77.50000000059738,0,90,3.0,6,1.2317148446658694e-11
8.095,0.815339152120446,77.50000000025072,0,90,3.0,6,5.1695280358826585e-12
8.1,0.9768711246313155,77.5000000001036,0,90,3.0,6,2.136023316986033e-12
8.105,0.9726380909165361,77.50000000004214,0,90,3.0,6,8.687666851664731e-13
8.11,0.7921091683291741,77.50000000001687,0,90,3.0,6,3.477996813803047e-13
8.115,0.49139090102639077,77.50000000000665,0,90,3.0,6,1.3712742281885644e-13
8.12,0.15739335672107918,77.50000000000259,0,90,3.0,6,5.332733109622195e-14
8.125,-0.11102342218909485,77.50000000000098,0,90,3.0,6,2.0217504646369862e-14
8.13,-0.2314207883647528,77.50000000000037,0,90,3.0,6,7.618190156603136e-15
8.135,-0.2029124434754801,77.50000000000014,0,90,3.0,6,2.930073137155052e-15
8.14,-0.11151350554305876,77.50000000000004,0,90,3.0,6,8.790219411465157e-16
8.145,-0.039430666652076896,77.50000000000001,0,90,3.0,6,2.9300731371550523e-16
8.15,-0.006087703519843621,77.5,0,90,3.0,6,0.0
8.155,0.005350271385530551,77.5,0,90,3.0,6,0.0
8.16,0.010381647827441833,77.5,0,90,3.0,6,0.0
8.165,0.015115203303506243,77.50000285897886,1,90,3.0,6,5.894801772941269e-08
8.17,0.021170964062928475,77.50000614453576,0,90,3.0,6,1.2669145897318943e-07
8.175,0.029082821134029553,77.50001444353748,0,90,3.0,6,2.9780489650931356e-07
8.18,0.03923107061708144,77.50003898990036,0,90,3.0,6,8.039154713561899e-07
8.185,0.051969043308817596,77.50012070385672,0,90,3.0,6,2.4887393138768174e-06
8.19,0.06760532616283861,77.50040470579712,0,90,3.0,6,8.344449425226465e-06
8.195,0.08636519236693461,77.50137548855909,0,90,3.0,6,2.8360588847243487e-05
8.2,0.10834733138818661,77.50453174328379,0,90,3.0,6,9.343800585137961e-05
8.205,0.1334809643017884,77.51413418674395,0,90,3.0,6,0.00029142653080299104
8.21,0.16148868344343945,77.54125802371964,0,90,3.0,6,0.0008506809014357765
8.215,0.191860907532018,77.61210736873977,0,90,3.0,6,0.002311492138964353
8.22,0.22384764873847726,77.78283132630509,0,90,3.0,6,0.005831573738249194
8.225,0.25647215537198226,78.16166472477155,0,90,3.0,6,0.013642571644774325
8.23,0.2885689161419028,78.93445276874564,0,90,3.0,6,0.029576345747332856
8.235,0.31884566517832524,80.38088618620897,0,90,3.0,6,0.05939971517956636
8.24,0.3459657668955683,82.85894367064454,0,90,3.0,6,0.11049368393081517
8.245,0.3686441789190902,86.73216528683604,0,90,3.0,6,0.19035392343991828
8.25,0.3857476379544367,92.22917113772701,0,90,3.0,6,0.30369425026241254
8.255,0.3963882865005728,99.26187897741403,0,90,3.0,6,0.4486985356167841
8.26,0.4,107.27573191072807,0,90,3.0,6,0.6139326167160427
8.265,0.39638828650057273,115.23064556690574,0,90,3.0,6,0.7779514549877471
8.27,0.38574763795443656,121.78214229497175,0,90,3.0,6,0.9130338617519949
8.275,0.36864417891908974,125.64318630496122,0,90,3.0,6,0.9926430165971385
8.28,0.345965766895568,126.0,0,90,3.0,6,1.0
8.285,0.3188456651783249,122.79958008872546,0,90,3.0,6,0.9340119605922776
8.29,0.28856891614190205,116.77096041565245,0,90,3.0,6,0.8097105240340712
8.295,0.2564721553719815,109.16966383512262,0,90,3.0,6,0.6529827594870643
8.3,0.22384764873847685,101.3687055279163,0,90,3.0,6,0.4921382583075527
8.305,0.19186090753201765,94.4785949744984,0,90,3.0,6,0.35007412318553416
8.31,0.16148868344343878,89.13586560571589,0,90,3.0,6,0.2399147547570287
8.315,0.1334809643017881,85.49546039006052,0,90,3.0,6,0.16485485340330958
8.32,0.10834733138818531,83.36711879202038,0,90,3.0,6,0.12097152148495624
8.325,0.08636519236690572,82.397383350607,0,90,3.0,6,0.10097697630117528
8.33,0.06760532616242629,82.21812148520974,0,90,3.0,6,0.09728085536514919
8.335,0.05196904332202373,82.52849205346938,0,90,3.0,6,0.10368024852514182
8.34,0.03923107185803287,83.1170073238305,0,90,3.0,6,0.1158145839965053
8.345,0.02908287038705761,83.84833797225733,0,90,3.0,6,0.1308935664382954
8.35,0.02117220077308346,84.63851827658883,0,90,3.0,6,0.1471859438471923
8.355,0.0151361834125735,85.43273183510229,0,90,3.0,6,0.16356148113612964
8.36,0.010626454858290009,86.19063277946553,0,90,3.0,6,0.17918830473124805
8.365,0.007326255555493652,86.87876076635808,0,90,3.0,6,0.19337651064655845
8.37,0.004960179211183015,87.46776361536577,0,90,3.0,6,0.20552089928589215
8.375,0.0032978759379303545,87.9322368778187,0,90,3.0,6,0.21509766758389062
8.38,0.002153242296767213,88.25168002672568,0,90,3.0,6,0.22168412426238515
8.385,0.001380616732225004,88.41169788711872,0,90,3.0,6,0.2249834615900767
8.39,0.0008693106590991584,88.40498215532484,0,90,3.0,6,0.22484499289329576
8.395,0.000537524815942247,88.2318378584108,0,90,3.0,6,0.22127500738991338
8.4,0.0003263951340288585,87.90015330080516,0,90,3.0,6,0.2144361505320651
8.405,0.00019463030985187395,87.42480243267377,0,90,3.0,6,0.20463510170461385
8.41,0.00011397219555062695,86.82653855096866,0,90,3.0,6,0.19229976393749823
8.415,6.55403863487943e-05,86.13049289069025,0,90,3.0,6,0.1779483070245412
8.42,3.701184389455385e-05,85.36442904650744,0,90,3.0,6,0.16215317621664824
8.425,2.0525516217290957e-05,84.55692152401166,0,90,3.0,6,0.14550353657755993
8.43,1.1178128483661116e-05,83.73562324397813,0,90,3.0,6,0.1285695514222294
8.435,5.978135409912517e-06,82.92576446077157,0,90,3.0,7,0.11187143218085721
8.44,3.1396702713238487e-06,82.14898875641488,0,90,3.0,7,0.09585543827659547
8.445,1.6192875458531019e-06,81.42258664230904,0,90,3.0,7,0.08087807509915551
8.45,8.201353897972012e-07,80.75914050898942,0,90,3.0,7,0.06719877338122511
8.455,4.0791415086824765e-07,80.16655234546778,0,90,3.0,7,0.054980460731294395
8.46,1.9923866938774793e-07,79.64839252486908,0,90,3.0,7,0.04429675309008414
8.465,9.556527981051257e-08,79.20448679782768,0,90,3.0,7,0.035144057687168745
8.47,4.501406988770349e-08,78.83165014531542,0,90,3.0,7,0.027456704027122098
8.475,0.0,78.52447916347201,0,90,3.0,7,0.021123281721072345
8.48,0.0,78.27612667276375,0,90,3.0,7,0.016002611809561897
8.485,0.0,78.07900001884325,0,90,3.0,7,0.01193814471841744
8.49,0.0,77.92534471092672,0,90,3.0,7,0.008769994039726243
8.495,0.0,77.80769467880476,0,90,3.0,7,0.006344220181541546
8.5,0.0,77.71918731901174,0,90,3.0,7,0.004519326165190469
8.505,0.0,77.65375432941046,0,90,3.0,7,0.0031701923589785744
8.51,0.0,77.60620764333622,0,90,3.0,7,0.002189848316210708
8.515,0.0,77.57224381654018,0,90,3.0,7,0.0014895632276325723
8.52,0.0,77.54839071953941,0,90,3.0,7,0.0009977467946270604
8.525,0.0,77.53191831589113,0,90,3.0,7,0.0006581096060027406
8.53,0.0,77.52073167286392,0,90,3.0,7,0.00042745717245189864
8.535,0.0,77.51326005165612,0,90,3.0,7,0.00027340312693027464
8.54,0.0,77.50835165555509,0,90,3.0,7,0.00017219908361007537
8.545,0.0,77.50517984093156,0,90,3.0,7,0.00010680084394970876
8.55,0.0,77.50316356499717,0,90,3.0,7,6.522814427146785e-05
8.555,0.0,77.50190262671414,0,90,3.0,7,3.922941678641897e-05
8.56,0.0,77.5011268001827,0,90,3.0,7,2.3232993457801884e-05
8.565,0.0,77.5006571382051,0,90,3.0,7,1.354924134225304e-05
8.57,0.0,77.50037738359354,0,90,3.0,7,7.78110502154181e-06
8.575,0.0,77.5002134154242,0,90,3.0,7,4.400318024713717e-06
8.58,0.0,77.50011884614042,0,90,3.0,7,2.4504358850311656e-06
8.585,0.001684486749771458,77.50006517197028,0,90,3.0,7,1.3437519644811022e-06
8.59,0.004172395771277602,77.50003519274227,0,90,3.0,7,7.25623552044294e-07
8.595,0.009438687428818865,77.50001871379455,0,90,3.0,7,3.858514339378988e-07
8.6,0.019500507867137046,77.50000979912043,0,90,3.0,7,2.02043720292684e-07
8.605,0.03679496976339974,77.50000505276178,0,90,3.0,7,1.0418065523209435e-07
8.61,0.06340728953298436,77.50000256558874,0,90,3.0,7,5.289873699214311e-08
8.615,0.09979255396093453,77.50000128280827,0,90,3.0,7,2.6449655057224366e-08
8.62,0.14343835518453557,77.50000063161575,0,90,3.0,7,1.3023005116450541e-08
8.625,0.18829581417209276,77.5000003062391,0,90,3.0,7,6.314208281089788e-09
8.63,0.2257481735193119,77.5000001462126,0,90,3.0,7,3.014692770334149e-09
8.635,0.24718154073554727,77.50000006874252,0,90,3.0,7,1.4173716038188562e-09
8.64,0.24718154074102772,77.50000003182605,0,90,3.0,7,6.562071664973832e-10
8.645,0.22574817354072055,77.50000001450962,0,90,3.0,7,2.9916749947906e-10
8.65,0.18829581422840957,77.50000000651399,0,90,3.0,7,1.34308985468227e-10
8.655,0.14343835532456656,77.50000000287974,0,90,3.0,7,5.937617408056484e-11
8.66,0.09979255431561854,77.50000000125365,0,90,3.0,7,2.5848519201354442e-11
