Time,ECG,Pressure,R_Peaks,mean_hr,hrv_scale,Phase_Bin,Normalized_Pressure
0.0,0.001684486749771458,77.5,0,90,3.0,0,0.0
0.005,0.004172395771277602,77.5,0,90,3.0,0,0.0
0.01,0.009438687428818865,77.5,0,90,3.0,0,0.0
0.015,0.019500507867137046,77.5,0,90,3.0,0,0.0
0.02,0.03679496976339974,77.5,0,90,3.0,0,0.0
0.025,0.06340728953298436,77.5,0,90,3.0,0,0.0
0.03,0.09979255396093453,77.5,0,90,3.0,0,0.0
0.035,0.14343835518453557,77.5,0,90,3.0,0,0.0
0.04,0.18829581417209276,77.5,0,90,3.0,0,0.0
0.045,0.2257481735193119,77.5,0,90,3.0,0,0.0
0.05,0.24718154073554727,77.5,0,90,3.0,0,0.0
0.055,0.24718154074102772,77.5,0,90,3.0,0,0.0
0.06,0.22574817354072055,77.5,0,90,3.0,0,0.0
0.065,0.18829581422840957,77.5,0,90,3.0,0,0.0
0.07,0.14343835532456656,77.5,0,90,3.0,0,0.0
0.075,0.09979255431561854,77.5,0,90,3.0,0,0.0
0.08,0.06340729067170194,77.5,0,90,3.0,0,0.0
0.085,0.03679497683410042,77.5,0,90,3.0,0,0.0
0.09,0.019500578284482293,77.5,0,90,3.0,0,0.0
0.095,0.009439396781978427,77.5,0,90,3.0,0,0.0
0.1,0.004178588733610924,77.5,0,90,3.0,0,0.0
0.105,0.0017299316936037381,77.5,0,90,3.0,0,0.0
0.11,0.0008997325756988589,77.5,0,90,3.0,0,0.0
0.115,0.001634769674224814,77.5,0,90,3.0,0,0.0
0.12,0.00614904736476635,77.5,0,90,3.0,0,0.0
0.125,0.02168080359963608,77.5,0,90,3.0,0,0.0
0.13,0.06433400338904088,77.5,0,90,3.0,0,0.0
0.135,0.1593410769217493,77.5,0,90,3.0,0,0.0
0.14,0.3291989194808569,77.5,0,90,3.0,0,0.0
0.145,0.5672906802982638,77.5,0,90,3.0,0,0.0
0.15,0.815339152120446,77.5,0,90,3.0,0,0.0
0.155,0.9768711246313155,77.5,0,90,3.0,0,0.0
0.16,0.9726380909165361,77.5,0,90,3.0,0,0.0
0.165,0.7921091683291741,77.5,0,90,3.0,0,0.0
0.17,0.49139090102639077,77.5,0,90,3.0,0,0.0
0.175,0.15739335672107918,77.5,0,90,3.0,0,0.0
0.18,-0.11102342218909485,77.5,0,90,3.0,0,0.0
0.185,-0.2314207883647528,77.5,0,90,3.0,0,0.0
0.19,-0.2029124434754801,77.5,0,90,3.0,0,0.0
0.195,-0.11151350554305876,77.5,0,90,3.0,0,0.0
0.2,-0.039430666652076896,77.5,0,90,3.0,0,0.0
0.205,-0.006087703519843621,77.5,0,90,3.0,0,0.0
0.21,0.005350271385530551,77.5,0,90,3.0,0,0.0
0.215,0.010381647827441833,77.5,0,90,3.0,0,0.0
0.22,0.015115203303506243,77.5,0,90,3.0,0,0.0
0.225,0.021170964062928475,77.5,0,90,3.0,0,0.0
0.23,0.029082821134029553,77.5,0,90,3.0,0,0.0
0.235,0.03923107061708144,77.5,0,90,3.0,0,0.0
0.24,0.051969043308817596,77.5,0,90,3.0,0,0.0
0.245,0.06760532616283861,77.5,0,90,3.0,0,0.0
0.25,0.08636519236693461,77.5,0,90,3.0,0,0.0
0.255,0.10834733138818661,77.5,0,90,3.0,0,0.0
0.26,0.1334809643017884,77.5,0,90,3.0,0,0.0
0.265,0.16148868344343945,77.5,0,90,3.0,0,0.0
0.27,0.191860907532018,77.5,0,90,3.0,0,0.0
0.275,0.22384764873847726,77.5,0,90,3.0,0,0.0
0.28,0.25647215537198226,77.5,0,90,3.0,0,0.0
0.285,0.2885689161419028,77.5,0,90,3.0,0,0.0
0.29,0.31884566517832524,77.5,0,90,3.0,0,0.0
0.295,0.3459657668955683,77.5,0,90,3.0,0,0.0
0.3,0.3686441789190902,77.5,0,90,3.0,0,0.0
0.305,0.3857476379544367,77.5,0,90,3.0,0,0.0
0.31,0.3963882865005728,77.5,0,90,3.0,0,0.0
0.315,0.4,77.5,0,90,3.0,0,0.0
0.32,0.39638828650057273,77.5,0,90,3.0,0,0.0
0.325,0.38574763795443656,77.5,0,90,3.0,0,0.0
0.33,0.36864417891908974,77.5,0,90,3.0,0,0.0
0.335,0.345965766895568,77.5,0,90,3.0,0,0.0
0.34,0.3188456651783249,77.5,0,90,3.0,0,0.0
0.345,0.28856891614190205,77.5,0,90,3.0,0,0.0
0.35,0.2564721553719815,77.5,0,90,3.0,0,0.0
0.355,0.22384764873847685,77.5,0,90,3.0,0,0.0
0.36,0.19186090753201765,77.5,0,90,3.0,0,0.0
0.365,0.16148868344343878,77.5,0,90,3.0,0,0.0
0.37,0.1334809643017881,77.5,0,90,3.0,0,0.0
0.375,0.10834733138818531,77.5,0,90,3.0,0,0.0
0.38,0.08636519236690572,77.5,0,90,3.0,0,0.0
0.385,0.06760532616242629,77.5,0,90,3.0,0,0.0
0.39,0.05196904332202373,77.5,0,90,3.0,0,0.0
0.395,0.03923107185803287,77.5,0,90,3.0,0,0.0
0.4,0.02908287038705761,77.5,0,90,3.0,0,0.0
0.405,0.02117220077308346,77.5,0,90,3.0,0,0.0
0.41,0.0151361834125735,77.5,0,90,3.0,0,0.0
0.415,0.010626454858290009,77.5,0,90,3.0,0,0.0
0.42,0.007326255555493652,77.5,0,90,3.0,0,0.0
0.425,0.004960179211183015,77.5,0,90,3.0,0,0.0
0.43,0.0032978759379303545,77.5,0,90,3.0,0,0.0
0.435,0.002153242296767213,77.5,0,90,3.0,0,0.0
0.44,0.001380616732225004,77.5,0,90,3.0,0,0.0
0.445,0.0008693106590991584,77.5,0,90,3.0,0,0.0
0.45,0.000537524815942247,77.5,0,90,3.0,0,0.0
0.455,0.0003263951340288585,77.5,0,90,3.0,0,0.0
0.46,0.00019463030985187395,77.5,0,90,3.0,0,0.0
0.465,0.00011397219555062695,77.5,0,90,3.0,0,0.0
0.47,6.55403863487943e-05,77.5,0,90,3.0,0,0.0
0.475,3.701184389455385e-05,77.5,0,90,3.0,0,0.0
0.48,2.0525516217290957e-05,77.5,0,90,3.0,0,0.0
0.485,1.1178128483661116e-05,77.5,0,90,3.0,0,0.0
0.49,5.978135409912517e-06,77.5,0,90,3.0,0,0.0
0.495,3.1396702713238487e-06,77.5,0,90,3.0,0,0.0
0.5,1.6192875458531019e-06,77.5,0,90,3.0,0,0.0
0.505,8.201353897972012e-07,77.5,0,90,3.0,0,0.0
0.51,4.0791415086824765e-07,77.5,0,90,3.0,0,0.0
0.515,1.9923866938774793e-07,77.5,0,90,3.0,0,0.0
0.52,9.556527981051257e-08,77.5,0,90,3.0,0,0.0
0.525,4.501406988770349e-08,77.5,0,90,3.0,0,0.0
0.53,0.0,77.5,0,90,3.0,0,0.0
0.535,0.0,77.5,0,90,3.0,0,0.0
0.54,0.0,77.5,0,90,3.0,0,0.0
0.545,0.001684486749771458,77.5,0,90,3.0,0,0.0
0.55,0.004172395771277602,77.5,0,90,3.0,0,0.0
0.555,0.009438687428818865,77.5,0,90,3.0,0,0.0
0.56,0.019500507867137046,77.5,0,90,3.0,0,0.0
0.565,0.03679496976339974,77.5,0,90,3.0,0,0.0
0.57,0.06340728953298436,77.5,0,90,3.0,0,0.0
0.575,0.09979255396093453,77.5,0,90,3.0,0,0.0
0.58,0.14343835518453557,77.5,0,90,3.0,0,0.0
0.585,0.18829581417209276,77.5,0,90,3.0,0,0.0
0.59,0.2257481735193119,77.5,0,90,3.0,0,0.0
0.595,0.24718154073554727,77.5,0,90,3.0,0,0.0
0.6,0.24718154074102772,77.5,0,90,3.0,0,0.0
0.605,0.22574817354072055,77.5,0,90,3.0,0,0.0
0.61,0.18829581422840957,77.5,0,90,3.0,0,0.0
0.615,0.14343835532456656,77.5,0,90,3.0,0,0.0
0.62,0.09979255431561854,77.5,0,90,3.0,0,0.0
0.625,0.06340729067170194,77.5,0,90,3.0,0,0.0
0.63,0.03679497683410042,77.5,0,90,3.0,0,0.0
0.635,0.019500578284482293,77.5,0,90,3.0,0,0.0
0.64,0.009439396781978427,77.5,0,90,3.0,0,0.0
0.645,0.004178588733610924,77.5,0,90,3.0,0,0.0
0.65,0.0017299316936037381,77.5,0,90,3.0,0,0.0
0.655,0.0008997325756988589,77.5,0,90,3.0,0,0.0
0.66,0.001634769674224814,77.5,0,90,3.0,0,0.0
0.665,0.00614904736476635,77.5,0,90,3.0,0,0.0
0.67,0.02168080359963608,77.5,0,90,3.0,0,0.0
0.675,0.06433400338904088,77.5,0,90,3.0,0,0.0
0.68,0.1593410769217493,77.5,0,90,3.0,0,0.0
0.685,0.3291989194808569,77.5,0,90,3.0,0,0.0
0.69,0.5672906802982638,77.5,0,90,3.0,0,0.0
0.695,0.815339152120446,77.5,0,90,3.0,0,0.0
0.7,0.9768711246313155,77.50000284164666,1,90,3.0,0,5.859065282427614e-08
0.705,0.9726380909165361,77.50000513541534,0,90,3.0,0,1.0588485228132395e-07
0.71,0.7921091683291741,77.50000972533142,0,90,3.0,0,2.0052229739665507e-07
0.715,0.49139090102639077,77.50001983204943,0,90,3.0,0,4.089082357115762e-07
0.72,0.15739335672107918,77.50004425244363,0,90,3.0,0,9.124215181337914e-07
0.725,-0.11102342218909485,77.50010715796503,0,90,3.0,0,2.2094425779981713e-06
0.73,-0.2314207883647528,77.5002735884935,0,90,3.0,0,5.640999865963562e-06
0.735,-0.2029124434754801,77.50071229869842,0,90,3.0,0,1.4686571101384692e-05
0.74,-0.11151350554305876,77.50184192436068,0,90,3.0,0,3.797782186960334e-05
0.745,-0.039430666652076896,77.50465058308532,0,90,3.0,0,9.588831103756842e-05
0.75,-0.006087703519843621,77.51135048292498,0,90,3.0,0,0.00023403057577282423
0.755,0.005350271385530551,77.52662836067672,0,90,3.0,0,0.0005490383644685481
0.76,0.010381647827441833,77.55986008283949,0,90,3.0,0,0.0012342285121544779
0.765,0.015115203303506243,77.62871615943192,0,90,3.0,0,0.002653941431585923
0.77,0.021170964062928475,77.76448507889882,0,90,3.0,0,0.005453300595851858
0.775,0.029082821134029553,78.0190308444065,0,90,3.0,0,0.010701666894979403
0.78,0.03923107061708144,78.47243990533991,0,90,3.0,0,0.020050307326596104
0.785,0.051969043308817596,79.23909047325527,0,90,3.0,0,0.03585753553103658
0.79,0.06760532616283861,80.468368163272,0,90,3.0,0,0.06120346728395884
0.795,0.08636519236693461,82.33522248926154,0,90,3.0,0,0.09969530905693896
0.8,0.10834733138818661,85.01619319399947,0,90,3.0,0,0.15497305554638083
0.805,0.1334809643017884,88.64936492577402,0,90,3.0,0,0.2298838129025572
0.81,0.16148868344343945,93.28217293658074,0,90,3.0,0,0.32540562755836566
0.815,0.191860907532018,98.81798972078323,0,90,3.0,0,0.4395461798099635
0.82,0.22384764873847726,104.97837403835521,0,90,3.0,0,0.5665644131619632
0.825,0.25647215537198226,111.29935597736814,0,90,3.0,0,0.6968939376776936
0.83,0.2885689161419028,117.17453906786568,0,90,3.0,0,0.8180317333580552
0.835,0.31884566517832524,121.94509813663508,0,90,3.0,0,0.9163937760130945
0.84,0.3459657668955683,125.02047608087008,0,90,3.0,0,0.9798036305334038
0.845,0.3686441789190902,126.0,0,90,3.0,0,1.0
0.85,0.3857476379544367,124.76110192272094,0,90,3.0,0,0.9744557097468235
0.855,0.3963882865005728,121.4875182790804,0,90,3.0,0,0.9069591397748537
0.86,0.4,116.6287058194931,0,90,3.0,0,0.8067774395771774
0.865,0.39638828650057273,110.80301806039404,0,90,3.0,0,0.6866601661936915
0.87,0.38574763795443656,104.67357444072778,0,90,3.0,0,0.5602798853758304
0.875,0.36864417891908974,98.83118480258737,0,90,3.0,0,0.43981824335231695
0.88,0.345965766895568,93.71212167075892,0,90,3.0,0,0.334270549912555
0.885,0.3188456651783249,89.56393789015415,0,90,3.0,0,0.24874098742585876
0.89,0.28856891614190205,86.45649610709219,0,90,3.0,0,0.18467002282664313
0.895,0.2564721553719815,84.3238267777099,0,90,3.0,0,0.14069745933422467
0.9,0.22384764873847685,83.01824586008357,0,90,3.0,0,0.11377826515636222
0.905,0.19186090753201765,82.3607250432506,0,90,3.0,0,0.10022113491238344
0.91,0.16148868344343878,82.17790417755486,0,90,3.0,0,0.09645163252690443
0.915,0.1334809643017881,82.32301424983154,0,90,3.0,0,0.09944359278003184
0.92,0.10834733138818531,82.68299482340544,0,90,3.0,0,0.10686587264753479
0.925,0.08636519236690572,83.17642932367355,0,90,3.0,0,0.11703977986955764
0.93,0.06760532616242629,83.747005124037,0,90,3.0,0,0.12880422936158767
0.935,0.05196904332202373,84.35601615827898,0,90,3.0,0,0.1413611579026593
0.94,0.03923107185803287,84.97590794405919,0,90,3.0,0,0.1541424318362719
0.945,0.02908287038705761,85.58561130572897,0,90,3.0,0,0.16671363516966958
0.95,0.02117220077308346,86.1676328734186,0,90,3.0,0,0.17871407986430096
0.955,0.0151361834125735,86.70652267302486,0,90,3.0,0,0.18982520975308997
0.96,0.010626454858290009,87.18827313384817,0,90,3.0,0,0.1997582089453231
0.965,0.007326255555493652,87.6002732574449,0,90,3.0,0,0.20825305685453396
0.97,0.004960179211183015,87.93154771974346,0,90,3.0,0,0.21508345813904048
0.975,0.0032978759379303545,88.17310463785162,0,90,3.0,0,0.22006401315157983
0.98,0.002153242296767213,88.31828322100691,0,90,3.0,0,0.22305738600014244
0.985,0.001380616732225004,88.36303606968106,0,90,3.0,0,0.22398012514806306
0.99,0.0008693106590991584,88.30610811938153,0,90,3.0,0,0.22280635297693885
0.995,0.000537524815942247,88.14909210780685,0,90,3.0,0,0.2195689094393165
1.0,0.0003263951340288585,87.89635352979845,0,90,3.0,0,0.2143578047381123
1.005,0.00019463030985187395,87.55482865987335,0,90,3.0,0,0.2073160548427495
1.01,0.00011397219555062695,87.13370820829557,0,90,3.0,0,0.19863315893392935
1.015,6.55403863487943e-05,86.64402658647539,0,90,3.0,0,0.18853663064897713
1.02,3.701184389455385e-05,86.09818233591776,0,90,3.0,0,0.1772821100189228
1.025,2.0525516217290957e-05,85.50941874168905,0,90,3.0,0,0.1651426544678154
1.03,1.1178128483661116e-05,84.89129484704627,0,90,3.0,0,0.15239783189786119
1.035,5.978135409912517e-06,84.25717603311269,0,90,3.0,0,0.13932321717758114
1.04,3.1396702713238487e-06,83.61977023968812,0,90,3.0,0,0.1261808296842912
1.045,1.6192875458531019e-06,82.99073116007229,0,90,3.0,0,0.11321095175406776
1.05,8.201353897972012e-07,82.38034384450859,0,90,3.0,0,0.10062564627852758
1.055,4.0791415086824765e-07,81.79730165774147,0,90,3.0,0,0.08860415789157672
1.06,1.9923866938774793e-07,81.24857702449877,0,90,3.0,0,0.07729024792780972
1.065,9.556527981051257e-08,80.73938237949095,0,90,3.0,0,0.06679138926785459
1.07,4.501406988770349e-08,80.27321263676781,0,90,3.0,0,0.05717964199521256
1.075,0.0,79.85195660178154,0,90,3.0,0,0.04849395055219666
1.08,0.0,79.47606222315747,0,90,3.0,0,0.04074355099293753
1.085,0.0,79.14473943737704,0,90,3.0,0,0.03391215334798022
1.09,0.0,78.85618449458457,0,90,3.0,0,0.027962566898650884
1.095,0.0,78.60781086922685,0,90,3.0,0,0.022841461221172223
1.1,0.0,78.39647389480362,0,90,3.0,0,0.018483997831002474
1.105,0.0,78.21867882903723,0,90,3.0,0,0.014818120186334651
1.11,0.0,78.07076486884718,0,90,3.0,0,0.011768347811282017
1.115,0.0,77.94906043727421,0,90,3.0,0,0.009258978088128096
1.12,0.0,77.85000764806028,0,90,3.0,0,0.007216652537325449
1.125,0.0,77.77025606689202,0,90,3.0,0,0.005572290039010662
1.13,0.0,77.706727640736,0,90,3.0,0,0.00426242558218568
1.135,0.0,77.65665592416397,0,90,3.0,0,0.003230019054927235
1.14,0.0,77.61760350788578,0,90,3.0,0,0.002424814595582992
1.145,0.0,77.58746190000828,0,90,3.0,0,0.0018033381445005938
1.15,0.0,77.5644380986904,0,90,3.0,0,0.001328620591554691
1.155,0.0,77.54703181144795,0,90,3.0,0,0.0009697280710917753
1.16,0.0,77.53400680827698,0,90,3.0,0,0.000701171304680096
1.165,0.0,77.52435932323314,0,90,3.0,0,0.0005022540872812794
1.17,0.0,77.51728581027695,0,90,3.0,0,0.00035640845931846006
1.175,0.0,77.51215176729428,0,90,3.0,0,0.0002505519029749352
1.18,0.0,77.5084628048222,0,90,3.0,0,0.00017449082107632
1.185,0.0,77.50583867610601,0,90,3.0,0,0.00012038507435070492
1.19,0.0,77.50399061307752,0,90,3.0,0,8.228068201070837e-05
1.195,0.0,77.50270202919619,0,90,3.0,0,5.571194218940449e-05
1.2,0.0,77.50181244831914,0,90,3.0,0,3.7370068435934955e-05
1.205,0.0,77.50120438795803,0,90,3.0,1,2.4832741402600658e-05
1.21,0.0,77.50079285241956,0,90,3.0,1,1.6347472568347174e-05
1.215,0.0,77.50051706302851,0,90,3.0,1,1.0661093371355332e-05
1.22,0.0,77.50033405639782,0,90,3.0,1,6.8877607797623064e-06
1.225,0.0,77.50021380668517,0,90,3.0,1,4.408385261177903e-06
1.23,0.0,77.50013556511455,0,90,3.0,1,2.7951570009768194e-06
1.235,0.0,77.5000851529678,0,90,3.0,1,1.7557312948198517e-06
1.24,0.0,77.50005298791253,0,90,3.0,1,1.0925342788717917e-06
1.245,0.0,77.50003266472537,0,90,3.0,1,6.73499492107759e-07
1.25,0.0,77.50001994832292,0,90,3.0,1,4.113056271195354e-07
1.255,0.0,77.50001206865707,0,90,3.0,1,2.48838290124545e-07
1.26,0.0,77.5000072333034,0,90,3.0,1,1.4914027643105337e-07
1.265,0.0,77.5000042947669,0,90,3.0,1,8.855189476074059e-08
1.27,0.0,77.50000252619976,0,90,3.0,1,5.208659309133022e-08
1.275,0.0,77.50000147204457,0,90,3.0,1,3.035143450200774e-08
1.28,0.001684486749771458,77.50000084976611,0,90,3.0,1,1.7520950720055908e-08
1.285,0.004172395771277602,77.50000048596281,0,90,3.0,1,1.001985185315245e-08
1.29,0.009438687428818865,77.50000027531625,0,90,3.0,1,5.676623780430221e-09
1.295,0.019500507867137046,77.50000015452041,0,90,3.0,1,3.1859877760053704e-09
1.3,0.03679496976339974,77.50000008591421,0,90,3.0,1,1.771426991346987e-09
1.305,0.06340728953298436,77.50000004732269,0,90,3.0,1,9.757254889505535e-10
1.31,0.09979255396093453,77.50000002582253,0,90,3.0,1,5.324232967451309e-10
1.315,0.14343835518453557,77.50000001395898,0,90,3.0,1,2.878140520872116e-10
1.32,0.18829581417209276,77.50000000747538,0,90,3.0,1,1.5413151625570837e-10
1.325,0.2257481735193119,77.50000000396587,0,90,3.0,1,8.177043006052719e-11
1.33,0.24718154073554727,77.50000000208433,0,90,3.0,1,4.2975968717280584e-11
1.335,0.24718154074102772,77.50000000108524,0,90,3.0,1,2.2376089526511988e-11
1.34,0.22574817354072055,77.50000000055977,0,90,3.0,1,1.1541558087253752e-11
1.345,0.18829581422840957,77.50000000028602,0,90,3.0,1,5.897358203151974e-12
1.35,0.14343835532456656,77.5000000001448,0,90,3.0,1,2.9854515194472828e-12
1.355,0.09979255431561854,77.5000000000726,0,90,3.0,1,1.4969743657725163e-12
1.36,0.06340729067170194,77.50000000003607,0,90,3.0,1,7.436525622099523e-13
1.365,0.03679497683410042,77.50000000001775,0,90,3.0,1,3.6596613483066605e-13
1.37,0.019500578284482293,77.50000000000865,0,90,3.0,1,1.7844145405274268e-13
1.375,0.009439396781978427,77.50000000000418,0,90,3.0,1,8.614415023235853e-14
1.38,0.004178588733610924,77.500000000002,0,90,3.0,1,4.1314031233886236e-14
1.385,0.0017299316936037381,77.50000000000095,0,90,3.0,1,1.963149001893885e-14
1.39,0.0008997325756988589,77.50000000000044,0,90,3.0,1,9.083226725180661e-15
1.395,0.001634769674224814,77.50000000000021,0,90,3.0,1,4.395109705732579e-15
1.4,0.00614904736476635,77.5000000000001,0,90,3.0,1,2.0510511960085364e-15
1.405,0.02168080359963608,77.50000000000004,0,90,3.0,1,8.790219411465157e-16
1.41,0.06433400338904088,77.50000000000001,0,90,3.0,1,2.9300731371550523e-16
1.415,0.1593410769217493,77.50000000000001,0,90,3.0,1,2.9300731371550523e-16
1.42,0.3291989194808569,77.5,0,90,3.0,1,0.0
1.425,0.5672906802982638,77.5,0,90,3.0,1,0.0
1.43,0.815339152120446,77.5,0,90,3.0,1,0.0
1.435,0.9768711246313155,77.50000285328441,1,90,3.0,1,5.883060647572643e-08
1.44,0.9726380909165361,77.50000562140409,0,90,3.0,1,1.1590523887282392e-07
1.445,0.7921091683291741,77.50001183073464,0,90,3.0,1,2.4393267289710397e-07
1.45,0.49139090102639077,77.50002762917026,0,90,3.0,1,5.696736136471992e-07
1.455,0.15739335672107918,77.50007245443882,0,90,3.0,1,1.4939059550923367e-06
1.46,-0.11102342218909485,77.50020725996767,0,90,3.0,1,4.273401395187075e-06
1.465,-0.2314207883647528,77.50061582704151,0,90,3.0,1,1.269746477348854e-05
1.47,-0.2029124434754801,77.50182248868452,0,90,3.0,1,3.757708627885804e-05
1.475,-0.11151350554305876,77.5052310715901,0,90,3.0,1,0.00010785714618768954
1.48,-0.039430666652076896,77.51435172175279,0,90,3.0,1,0.0002959117887172917
1.485,-0.006087703519843621,77.53735285072946,0,90,3.0,1,0.0007701618707105621
1.49,0.005350271385530551,77.5918691803079,0,90,3.0,1,0.0018942099032555814
1.495,0.010381647827441833,77.71309481986977,0,90,3.0,1,0.004393707626180756
1.5,0.015115203303506243,77.96566482587883,0,90,3.0,1,0.009601336616058397
1.505,0.021170964062928475,78.45812550344493,0,90,3.0,1,0.01975516501948315
1.51,0.029082821134029553,79.35558674678168,0,90,3.0,1,0.03825952055219964
1.515,0.03923107061708144,80.88198151748664,0,90,3.0,1,0.06973157768013682
1.52,0.051969043308817596,83.30025257051231,0,90,3.0,1,0.11959283650540853
1.525,0.06760532616283861,86.86014114836432,0,90,3.0,1,0.19299260099720247
1.53,0.08636519236693461,91.71228864363101,0,90,3.0,1,0.29303687925012395
1.535,0.10834733138818661,97.80423612993579,0,90,3.0,1,0.4186440439162018
1.54,0.1334809643017884,104.79307462662686,0,90,3.0,1,0.5627438067345745
1.545,0.16148868344343945,112.02004978372179,0,90,3.0,1,0.7117536037880781
1.55,0.191860907532018,118.58316466468419,0,90,3.0,1,0.8470755600965812
1.555,0.22384764873847726,123.51148828718976,0,90,3.0,1,0.9486904801482425
1.56,0.25647215537198226,126.0,0,90,3.0,1,1.0
1.565,0.2885689161419028,125.62830221298329,0,90,3.0,1,0.9923361281027482
1.57,0.31884566517832524,122.48203243932362,0,90,3.0,1,0.9274645863778066
1.575,0.3459657668955683,117.12925074937131,0,90,3.0,1,0.8170979535952847
1.58,0.3686441789190902,110.46116941721593,0,90,3.0,1,0.6796117405611531
1.585,0.3857476379544367,103.45897551850818,0,90,3.0,1,0.5352366086290347
1.59,0.3963882865005728,96.97065636772538,0,90,3.0,1,0.4014568323242347
1.595,0.4,91.56589466519785,0,90,3.0,1,0.29001844670511023
1.6,0.39638828650057273,87.49604796974954,0,90,3.0,1,0.206104081850506
1.605,0.38574763795443656,84.74329427423734,0,90,3.0,1,0.14934627369561532
1.61,0.36864417891908974,83.11746244254847,0,90,3.0,1,0.11582396788759737
1.615,0.345965766895568,82.3568848664176,0,90,3.0,1,0.10014195600861034
1.62,0.3188456651783249,82.20419486948393,0,90,3.0,1,0.09699370864915315
1.625,0.28856891614190205,82.4474226772088,0,90,3.0,1,0.102008714993996
1.63,0.2564721553719815,82.93146838815557,0,90,3.0,1,0.11198903893104258
1.635,0.22384764873847685,83.55144100802794,0,90,3.0,1,0.12477197954696775
1.64,0.19186090753201765,84.23890517799641,0,90,3.0,1,0.13894649851539
1.645,0.16148868344343878,84.94831218827366,0,90,3.0,1,0.15357344718090024
1.65,0.1334809643017881,85.64686744660881,0,90,3.0,1,0.16797664838368678
1.655,0.10834733138818531,86.30832747591782,0,90,3.0,1,0.18161499950346022
1.66,0.08636519236690572,86.90992131114385,0,90,3.0,1,0.19401899610605872
1.665,0.06760532616242629,87.43130093518502,0,90,3.0,1,0.20476909144711383
1.67,0.05196904332202373,87.85460739278714,0,90,3.0,1,0.21349705964509577
1.675,0.03923107185803287,88.16503318602679,0,90,3.0,1,0.21989759146446988
1.68,0.02908287038705761,88.35150634707973,0,90,3.0,1,0.2237423989088605
1.685,0.02117220077308346,88.40728293523891,0,90,3.0,1,0.22489243165441053
1.69,0.0151361834125735,88.33033092317498,0,90,3.0,1,0.22330579223041203
1.695,0.010626454858290009,88.12344658788109,0,90,3.0,1,0.21904013583259982
1.7,0.007326255555493652,87.79408397232552,0,90,3.0,1,0.2122491540685675
1.705,0.004960179211183015,87.35390857822988,0,90,3.0,1,0.20317337274700778
1.71,0.0032978759379303545,86.81811153597118,0,90,3.0,1,0.19212601105095226
1.715,0.002153242296767213,86.20454017631614,0,90,3.0,1,0.17947505518177614
1.72,0.001380616732225004,85.5327142396845,0,90,3.0,1,0.1656229740141133
1.725,0.0008693106590991584,84.82280306012088,0,90,3.0,1,0.15098563010558508
1.73,0.000537524815942247,84.09463776038064,0,90,3.0,1,0.13597191258516775
1.735,0.0003263951340288585,83.36682439710084,0,90,3.0,1,0.1209654514866153
1.74,0.00019463030985187395,82.65601043153745,0,90,3.0,1,0.10630949343376192
1.745,0.00011397219555062695,81.97633972309383,0,90,3.0,1,0.09229566439368721
1.75,6.55403863487943e-05,81.33911255053565,0,90,3.0,1,0.07915695980485868
1.755,3.701184389455385e-05,80.75264902476607,0,90,3.0,1,0.0670649283456922
1.76,2.0525516217290957e-05,80.22233844465784,0,90,3.0,1,0.05613068958057395
1.765,1.1178128483661116e-05,79.75084496649728,0,90,3.0,1,0.04640917456695429
1.77,5.978135409912517e-06,79.33843213578254,0,90,3.0,1,0.03790581723262969
1.775,3.1396702713238487e-06,78.9833655092204,0,90,3.0,1,0.030584855860214546
1.78,1.6192875458531019e-06,78.682353399043,0,90,3.0,1,0.02437842059882464
1.785,8.201353897972012e-07,78.43098993416538,0,90,3.0,1,0.019195668745677973
1.79,4.0791415086824765e-07,78.22417115200214,0,90,3.0,1,0.014931363958807063
1.795,1.9923866938774793e-07,78.05646263625866,0,90,3.0,1,0.011473456417704288
1.8,9.556527981051257e-08,77.92240529264143,0,90,3.0,1,0.008709387477142862
1.805,4.501406988770349e-08,77.81675337219069,0,90,3.0,1,0.006530997364756479
1.81,0.0,77.73464521201578,0,90,3.0,1,0.004838045608572738
1.815,0.0,77.6717120211314,0,90,3.0,1,0.0035404540439463563
1.82,0.0,77.62413328746686,0,90,3.0,1,0.002559449226120855
1.825,0.0,77.58864910755129,0,90,3.0,1,0.0018278166505420771
1.83,0.0,77.56254016636984,0,90,3.0,1,0.0012894879663885074
1.835,0.0,77.54358552186387,0,90,3.0,1,0.0008986705538943297
1.84,0.0,77.53000709975734,0,90,3.0,1,0.0006187030877802349
1.845,0.0,77.52040818335705,0,90,3.0,1,0.00042078728571233844
1.85,0.0,77.51371144502332,0,90,3.0,1,0.00028271020666635973
1.855,0.0,77.50910040372447,0,90,3.0,1,0.00018763719019534853
1.86,0.0,77.50596673357165,0,90,3.0,1,0.00012302543446709286
1.865,0.0,77.5038646590576,0,90,3.0,1,7.968369190923545e-05
1.87,0.0,77.50247277317126,0,90,3.0,1,5.098501384047511e-05
1.875,0.0,77.50156298902219,0,90,3.0,1,3.222657777711771e-05
1.88,0.0,77.50097594676535,0,90,3.0,1,2.0122613718576384e-05
1.885,0.0,77.50060199777202,0,90,3.0,1,1.2412325196347533e-05
1.89,0.0,77.50036682775895,0,90,3.0,1,7.563458947475906e-06
1.895,0.0,77.50022081473722,0,90,3.0,1,4.552881179766775e-06
1.9,0.0,77.50013130838836,0,90,3.0,1,2.707389450754996e-06
1.905,0.0,77.50007713570277,0,90,3.0,1,1.5904268611824797e-06
1.91,0.0,77.50004476277108,0,90,3.0,1,9.229437336633748e-07
1.915,0.0,77.5000256612047,0,90,3.0,1,5.290970041749967e-07
1.92,0.0,77.50001453234408,0,90,3.0,1,2.996359604512503e-07
1.925,0.001684486749771458,77.50000813004326,0,90,3.0,1,1.6762975784547157e-07
1.93,0.004172395771277602,77.50000449312597,0,90,3.0,1,9.264177259462213e-08
1.935,0.009438687428818865,77.50000245303015,0,90,3.0,1,5.057794121207688e-08
1.94,0.019500507867137046,77.50000132298747,0,90,3.0,1,2.7278092215731037e-08
1.945,0.03679496976339974,77.50000070486692,0,90,3.0,1,1.4533338564677289e-08
1.95,0.06340728953298436,77.50000037098563,0,90,3.0,1,7.64918827934304e-09
1.955,0.09979255396093453,77.50000019288817,0,90,3.0,1,3.97707558524004e-09
1.96,0.14343835518453557,77.5000000990724,0,90,3.0,1,2.042729788299016e-09
1.965,0.18829581417209276,77.50000005026877,0,90,3.0,1,1.0364694211715425e-09
1.97,0.2257481735193119,77.50000002519663,0,90,3.0,1,5.195180826198451e-10
1.975,0.24718154073554727,77.50000001247628,0,90,3.0,1,2.572428410033907e-10
1.98,0.24718154074102772,77.50000000610277,0,90,3.0,1,1.2583023283124142e-10
1.985,0.22574817354072055,77.50000000294894,0,90,3.0,1,6.080282669104563e-11
1.99,0.18829581422840957,77.50000000140768,0,90,3.0,1,2.90244254747168e-11
1.995,0.14343835532456656,77.5000000006638,0,90,3.0,1,1.3686664630964965e-11
2.0,0.09979255431561854,77.50000000030923,0,90,3.0,1,6.375839146449394e-12
2.005,0.06340729067170194,77.50000000014231,0,90,3.0,1,2.9341752395470693e-12
2.01,0.03679497683410042,77.50000000006469,0,90,3.0,1,1.3337692920329797e-12
2.015,0.019500578284482293,77.50000000002905,0,90,3.0,1,5.989069492344927e-13
2.02,0.009439396781978427,77.50000000001289,0,90,3.0,1,2.6575763353996326e-13
2.025,0.004178588733610924,77.50000000000564,0,90,3.0,1,1.1632390354505557e-13
2.03,0.0017299316936037381,77.50000000000244,0,90,3.0,1,5.03972579590669e-14
2.035,0.0008997325756988589,77.50000000000105,0,90,3.0,1,2.1682541214947386e-14
2.04,0.001634769674224814,77.50000000000044,0,90,3.0,1,9.083226725180661e-15
2.045,0.00614904736476635,77.50000000000018,0,90,3.0,1,3.809095078301568e-15
2.05,0.02168080359963608,77.50000000000007,0,90,3.0,1,1.465036568577526e-15
2.055,0.06433400338904088,77.50000000000003,0,90,3.0,1,5.860146274310105e-16
2.06,0.1593410769217493,77.50000000000001,0,90,3.0,1,2.9300731371550523e-16
2.065,0.3291989194808569,77.5,0,90,3.0,1,0.0
2.07,0.5672906802982638,77.5,0,90,3.0,1,0.0
2.075,0.815339152120446,77.5,0,90,3.0,1,0.0
2.08,0.9768711246313155,77.50000286445591,1,90,3.0,1,5.906094655721372e-08
2.085,0.9726380909165361,77.50000670896351,0,90,3.0,1,1.3832914455586846e-07
2.09,0.7921091683291741,77.50001766618395,0,90,3.0,1,3.642512154717983e-07
2.095,0.49139090102639077,77.50005538603897,0,90,3.0,1,1.1419801848622922e-06
2.1,0.15739335672107918,77.5002016419866,0,90,3.0,1,4.157566734157936e-06
2.105,-0.11102342218909485,77.50078061835592,0,90,3.0,1,1.609522383336598e-05
2.11,-0.2314207883647528,77.50297468407064,0,90,3.0,1,6.133369217807449e-05
2.115,-0.2029124434754801,77.51069007827343,0,90,3.0,1,0.00022041398501911673
2.12,-0.11151350554305876,77.53552092581764,0,90,3.0,1,0.0007323902230440388
2.125,-0.039430666652076896,77.60819390079665,0,90,3.0,1,0.002230802078281437
2.13,-0.006087703519843621,77.8009444626235,0,90,3.0,1,0.006205040466464024
2.135,0.005350271385530551,78.26310707732753,0,90,3.0,1,0.01573416654283572
2.14,0.010381647827441833,79.2625686794213,0,90,3.0,1,0.036341622256109415
2.145,0.015115203303506243,81.20675925587258,0,90,3.0,1,0.07642802589428008
2.15,0.021170964062928475,84.59648419856008,0,90,3.0,1,0.14631926182598098
2.155,0.029082821134029553,89.86658185536639,0,90,3.0,1,0.2549810691828122
2.16,0.03923107061708144,97.11535721234628,0,90,3.0,1,0.40444035489373775
2.165,0.051969043308817596,105.81938014520138,0,90,3.0,1,0.5839047452618841
2.17,0.06760532616283861,114.71618007049825,0,90,3.0,1,0.7673439189793454
2.175,0.08636519236693461,122.02322845601486,0,90,3.0,1,0.9180047104332961
2.18,0.10834733138818661,126.0,0,90,3.0,1,1.0
2.185,0.1334809643017884,125.62639155958318,0,90,3.0,1,0.9922967331872822
2.19,0.16148868344343945,121.04039152482282,0,90,3.0,1,0.8977400314396459
2.195,0.191860907532018,113.48143703554139,0,90,3.0,1,0.7418852997018843
2.2,0.22384764873847726,104.77287000046199,0,90,3.0,1,0.562327216504371
2.205,0.25647215537198226,96.63912991019971,0,90,3.0,1,0.3946212352618498
2.21,0.2885689161419028,90.20437907411288,0,90,3.0,1,0.2619459602909872
2.215,0.31884566517832524,85.85193799201377,0,90,3.0,1,0.1722049070518304
2.22,0.3459657668955683,83.39285853230265,0,90,3.0,1,0.12150223777943617
2.225,0.3686441789190902,82.36010918599266,0,90,3.0,1,0.10020843682459084
2.23,0.3857476379544367,82.25894092261605,0,90,3.0,1,0.09812249324981544
2.235,0.3963882865005728,82.69910909495823,0,90,3.0,1,0.10719812566924189
2.24,0.4,83.4219937045872,0,90,3.0,1,0.12210296298117927
2.245,0.39638828650057273,84.2721595711448,0,90,3.0,1,0.1396321561060783
2.25,0.38574763795443656,85.15664503506198,0,90,3.0,1,0.15786896979509246
2.255,0.36864417891908974,86.01370696248603,0,90,3.0,1,0.1755403497419799
2.26,0.345965766895568,86.79544506278037,0,90,3.0,1,0.19165866108825513
2.265,0.3188456651783249,87.46090536692105,0,90,3.0,1,0.20537949210146503
2.27,0.28856891614190205,87.97502253685742,0,90,3.0,1,0.21597984612077162
2.275,0.2564721553719815,88.3100319849362,0,90,3.0,1,0.222887257421365
2.28,0.22384764873847685,88.4474337350117,0,90,3.0,1,0.22572028319611753
2.285,0.19186090753201765,88.379539145706,0,90,3.0,1,0.22432039475682483
2.29,0.16148868344343878,88.11014717193953,0,90,3.0,1,0.21876592107091816
2.295,0.1334809643017881,87.65418416057902,0,90,3.0,1,0.20936462186760868
2.3,0.10834733138818531,87.03633238398163,0,90,3.0,1,0.19662540997900269
2.305,0.08636519236690572,86.28881736724256,0,90,3.0,1,0.18121272922149603
2.31,0.06760532616242629,85.44862879961133,0,90,3.0,1,0.16388925360023357
2.315,0.05196904332202373,84.55450763710894,0,90,3.0,1,0.1454537657135864
2.32,0.03923107185803287,83.64403832352191,0,90,3.0,1,0.12668120254684354
2.325,0.02908287038705761,82.75114293553537,0,90,3.0,1,0.10827098836155402
2.33,0.02117220077308346,81.9041943942599,0,90,3.0,1,0.09080813184041038
2.335,0.0151361834125735,81.12486498989165,0,90,3.0,1,0.07473948432766285
2.34,0.010626454858290009,80.42772248072978,0,90,3.0,1,0.060365411973809985
2.345,0.007326255555493652,79.8204953115367,0,90,3.0,1,0.047845264155395945
2.35,0.004960179211183015,79.30486282175322,0,90,3.0,1,0.03721366642790141
2.355,0.0032978759379303545,78.87759138674689,0,90,3.0,1,0.028403946118492493
2.36,0.002153242296767213,78.53183285999114,0,90,3.0,1,0.02127490432971425
2.365,0.001380616732225004,78.25842214612526,0,90,3.0,1,0.015637570023201142
2.37,0.0008693106590991584,78.04704792318356,0,90,3.0,1,0.011279338622341348
2.375,0.000537524815942247,77.88721525359234,0,90,3.0,1,0.00798381966169783
2.38,0.0003263951340288585,77.7689628243916,0,90,3.0,1,0.005545625245187492
2.385,0.00019463030985187395,77.68333474217319,0,90,3.0,1,0.0037800977767667473
2.39,0.00011397219555062695,77.62263374854976,0,90,3.0,1,0.0025285308979331855
2.395,6.55403863487943e-05,77.58049853023071,0,90,3.0,1,0.0016597635099116098
2.4,3.701184389455385e-05,77.55185356431105,0,90,3.0,1,0.0010691456558978428
2.405,2.0525516217290957e-05,77.53277796548565,0,90,3.0,1,0.0006758343399103078
2.41,1.1178128483661116e-05,77.52033284213871,0,90,3.0,2,0.0004192338585301879
2.415,5.978135409912517e-06,77.51237732800466,0,90,3.0,2,0.00025520263927135314
2.42,3.1396702713238487e-06,77.5073938124011,0,90,3.0,2,0.00015244974022896984
2.425,1.6192875458531019e-06,77.50433433695208,0,90,3.0,2,8.936777220791901e-05
2.43,8.201353897972012e-07,77.50249338664807,0,90,3.0,2,5.1410033980812736e-05
2.435,4.0791415086824765e-07,77.50140756773966,0,90,3.0,2,2.902201525076053e-05
2.44,1.9923866938774793e-07,77.50077976133325,0,90,3.0,2,1.6077553262856283e-05
2.445,0.001684486749771458,77.500423903305,0,90,3.0,2,8.740274330010806e-06
2.45,0.004172395771277602,77.50022614376876,0,90,3.0,2,4.6627581186910285e-06
2.455,0.009438687428818865,77.50011839003922,0,90,3.0,2,2.441031736478499e-06
2.46,0.019500507867137046,77.50006082168103,0,90,3.0,2,1.2540552790113973e-06
2.465,0.03679496976339974,77.50003066298214,0,90,3.0,2,6.322264358956446e-07
2.47,0.06340728953298436,77.50001516991254,0,90,3.0,2,3.1278170193630657e-07
2.475,0.09979255396093453,77.50000736485973,0,90,3.0,2,1.5185277786643092e-07
2.48,0.14343835518453557,77.50000350879986,0,90,3.0,2,7.23463889483252e-08
2.485,0.18829581417209276,77.5000016404592,0,90,3.0,2,3.3823901095771716e-08
2.49,0.2257481735193119,77.500000752636,0,90,3.0,2,1.5518267999366274e-08
2.495,0.24718154073554727,77.50000033885762,0,90,3.0,2,6.986755000436517e-09
2.5,0.24718154074102772,77.50000014971394,0,90,3.0,2,3.0868853773239437e-09
2.505,0.22574817354072055,77.50000006491125,0,90,3.0,2,1.3383762460265287e-09
2.51,0.18829581422840957,77.50000002761789,0,90,3.0,2,5.694409617380066e-10
2.515,0.14343835532456656,77.50000001153117,0,90,3.0,2,2.3775609659742725e-10
2.52,0.09979255431561854,77.50000000472464,0,90,3.0,2,9.741526256905288e-11
2.525,0.06340729067170194,77.50000000189966,0,90,3.0,2,3.916833867554759e-11
2.53,0.03679497683410042,77.50000000074955,0,90,3.0,2,1.5454670761924324e-11
2.535,0.019500578284482293,77.50000000029023,0,90,3.0,2,5.984088368011763e-12
2.54,0.009439396781978427,77.50000000011028,0,90,3.0,2,2.2737367544323206e-12
2.545,0.004178588733610924,77.50000000004111,0,90,3.0,2,8.476701585789567e-13
2.55,0.0017299316936037381,77.50000000001505,0,90,3.0,2,3.1029474522472005e-13
2.555,0.0008997325756988589,77.5000000000054,0,90,3.0,2,1.1134277921189198e-13
2.56,0.001634769674224814,77.5000000000019,0,90,3.0,2,3.92629800378777e-14
2.565,0.00614904736476635,77.50000000000065,0,90,3.0,2,1.347833643091324e-14
2.57,0.02168080359963608,77.50000000000023,0,90,3.0,2,4.688117019448084e-15
2.575,0.06433400338904088,77.50000000000007,0,90,3.0,2,1.465036568577526e-15
2.58,0.1593410769217493,77.50000000000003,0,90,3.0,2,5.860146274310105e-16
2.585,0.3291989194808569,77.5,0,90,3.0,2,0.0
2.59,0.5672906802982638,77.5,0,90,3.0,2,0.0
2.595,0.815339152120446,77.5,0,90,3.0,2,0.0
2.6,0.9768711246313155,77.50000285328441,1,90,3.0,2,5.883060647572643e-08
2.605,0.9726380909165361,77.50000562140409,0,90,3.0,2,1.1590523887282392e-07
2.61,0.7921091683291741,77.50001183073464,0,90,3.0,2,2.4393267289710397e-07
2.615,0.49139090102639077,77.50002762917026,0,90,3.0,2,5.696736136471992e-07
2.62,0.15739335672107918,77.50007245443882,0,90,3.0,2,1.4939059550923367e-06
2.625,-0.11102342218909485,77.50020725996767,0,90,3.0,2,4.273401395187075e-06
2.63,-0.2314207883647528,77.50061582704151,0,90,3.0,2,1.269746477348854e-05
2.635,-0.2029124434754801,77.50182248868452,0,90,3.0,2,3.757708627885804e-05
2.64,-0.11151350554305876,77.5052310715901,0,90,3.0,2,0.00010785714618768954
2.645,-0.039430666652076896,77.51435172175279,0,90,3.0,2,0.0002959117887172917
2.65,-0.006087703519843621,77.53735285072946,0,90,3.0,2,0.0007701618707105621
2.655,0.005350271385530551,77.5918691803079,0,90,3.0,2,0.0018942099032555814
2.66,0.010381647827441833,77.71309481986977,0,90,3.0,2,0.004393707626180756
2.665,0.015115203303506243,77.96566482587883,0,90,3.0,2,0.009601336616058397
2.67,0.021170964062928475,78.45812550344493,0,90,3.0,2,0.01975516501948315
2.675,0.029082821134029553,79.35558674678168,0,90,3.0,2,0.03825952055219964
2.68,0.03923107061708144,80.88198151748664,0,90,3.0,2,0.06973157768013682
2.685,0.051969043308817596,83.30025257051231,0,90,3.0,2,0.11959283650540853
2.69,0.06760532616283861,86.86014114836432,0,90,3.0,2,0.19299260099720247
2.695,0.08636519236693461,91.71228864363101,0,90,3.0,2,0.29303687925012395
2.7,0.10834733138818661,97.80423612993579,0,90,3.0,2,0.4186440439162018
2.705,0.1334809643017884,104.79307462662686,0,90,3.0,2,0.5627438067345745
2.71,0.16148868344343945,112.02004978372179,0,90,3.0,2,0.7117536037880781
2.715,0.191860907532018,118.58316466468419,0,90,3.0,2,0.8470755600965812
2.72,0.22384764873847726,123.51148828718976,0,90,3.0,2,0.9486904801482425
2.725,0.25647215537198226,126.0,0,90,3.0,2,1.0
2.73,0.2885689161419028,125.62830221298329,0,90,3.0,2,0.9923361281027482
2.735,0.31884566517832524,122.48203243932362,0,90,3.0,2,0.9274645863778066
2.74,0.3459657668955683,117.12925074937131,0,90,3.0,2,0.8170979535952847
2.745,0.3686441789190902,110.46116941721593,0,90,3.0,2,0.6796117405611531
2.75,0.3857476379544367,103.45897551850818,0,90,3.0,2,0.5352366086290347
2.755,0.3963882865005728,96.97065636772538,0,90,3.0,2,0.4014568323242347
2.76,0.4,91.56589466519785,0,90,3.0,2,0.29001844670511023
2.765,0.39638828650057273,87.49604796974954,0,90,3.0,2,0.206104081850506
2.77,0.38574763795443656,84.74329427423734,0,90,3.0,2,0.14934627369561532
2.775,0.36864417891908974,83.11746244254847,0,90,3.0,2,0.11582396788759737
2.78,0.345965766895568,82.3568848664176,0,90,3.0,2,0.10014195600861034
2.785,0.3188456651783249,82.20419486948393,0,90,3.0,2,0.09699370864915315
2.79,0.28856891614190205,82.4474226772088,0,90,3.0,2,0.102008714993996
2.795,0.2564721553719815,82.93146838815557,0,90,3.0,2,0.11198903893104258
2.8,0.22384764873847685,83.55144100802794,0,90,3.0,2,0.12477197954696775
2.805,0.19186090753201765,84.23890517799641,0,90,3.0,2,0.13894649851539
2.81,0.16148868344343878,84.94831218827366,0,90,3.0,2,0.15357344718090024
2.815,0.1334809643017881,85.64686744660881,0,90,3.0,2,0.16797664838368678
2.82,0.10834733138818531,86.30832747591782,0,90,3.0,2,0.18161499950346022
2.825,0.08636519236690572,86.90992131114385,0,90,3.0,2,0.19401899610605872
2.83,0.06760532616242629,87.43130093518502,0,90,3.0,2,0.20476909144711383
2.835,0.05196904332202373,87.85460739278714,0,90,3.0,2,0.21349705964509577
2.84,0.03923107185803287,88.16503318602679,0,90,3.0,2,0.21989759146446988
2.845,0.02908287038705761,88.35150634707973,0,90,3.0,2,0.2237423989088605
2.85,0.02117220077308346,88.40728293523891,0,90,3.0,2,0.22489243165441053
2.855,0.0151361834125735,88.33033092317498,0,90,3.0,2,0.22330579223041203
2.86,0.010626454858290009,88.12344658788109,0,90,3.0,2,0.21904013583259982
2.865,0.007326255555493652,87.79408397232552,0,90,3.0,2,0.2122491540685675
2.87,0.004960179211183015,87.35390857822988,0,90,3.0,2,0.20317337274700778
2.875,0.0032978759379303545,86.81811153597118,0,90,3.0,2,0.19212601105095226
2.88,0.002153242296767213,86.20454017631614,0,90,3.0,2,0.17947505518177614
2.885,0.001380616732225004,85.5327142396845,0,90,3.0,2,0.1656229740141133
2.89,0.0008693106590991584,84.82280306012088,0,90,3.0,2,0.15098563010558508
2.895,0.000537524815942247,84.09463776038064,0,90,3.0,2,0.13597191258516775
2.9,0.0003263951340288585,83.36682439710084,0,90,3.0,2,0.1209654514866153
2.905,0.00019463030985187395,82.65601043153745,0,90,3.0,2,0.10630949343376192
2.91,0.00011397219555062695,81.97633972309383,0,90,3.0,2,0.09229566439368721
2.915,6.55403863487943e-05,81.33911255053565,0,90,3.0,2,0.07915695980485868
2.92,3.701184389455385e-05,80.75264902476607,0,90,3.0,2,0.0670649283456922
2.925,2.0525516217290957e-05,80.22233844465784,0,90,3.0,2,0.05613068958057395
2.93,1.1178128483661116e-05,79.75084496649728,0,90,3.0,2,0.04640917456695429
2.935,5.978135409912517e-06,79.33843213578254,0,90,3.0,2,0.03790581723262969
2.94,3.1396702713238487e-06,78.9833655092204,0,90,3.0,2,0.030584855860214546
2.945,1.6192875458531019e-06,78.682353399043,0,90,3.0,2,0.02437842059882464
2.95,8.201353897972012e-07,78.43098993416538,0,90,3.0,2,0.019195668745677973
2.955,4.0791415086824765e-07,78.22417115200214,0,90,3.0,2,0.014931363958807063
2.96,1.9923866938774793e-07,78.05646263625866,0,90,3.0,2,0.011473456417704288
2.965,9.556527981051257e-08,77.92240529264143,0,90,3.0,2,0.008709387477142862
2.97,4.501406988770349e-08,77.81675337219069,0,90,3.0,2,0.006530997364756479
2.975,0.0,77.73464521201578,0,90,3.0,2,0.004838045608572738
2.98,0.0,77.6717120211314,0,90,3.0,2,0.0035404540439463563
2.985,0.0,77.62413328746686,0,90,3.0,2,0.002559449226120855
2.99,0.0,77.58864910755129,0,90,3.0,2,0.0018278166505420771
2.995,0.0,77.56254016636984,0,90,3.0,2,0.0012894879663885074
3.0,0.0,77.54358552186387,0,90,3.0,2,0.0008986705538943297
3.005,0.0,77.53000709975734,0,90,3.0,2,0.0006187030877802349
3.01,0.0,77.52040818335705,0,90,3.0,2,0.00042078728571233844
3.015,0.0,77.51371144502332,0,90,3.0,2,0.00028271020666635973
3.02,0.0,77.50910040372447,0,90,3.0,2,0.00018763719019534853
3.025,0.0,77.50596673357165,0,90,3.0,2,0.00012302543446709286
3.03,0.0,77.5038646590576,0,90,3.0,2,7.968369190923545e-05
3.035,0.0,77.50247277317126,0,90,3.0,2,5.098501384047511e-05
3.04,0.0,77.50156298902219,0,90,3.0,2,3.222657777711771e-05
3.045,0.0,77.50097594676535,0,90,3.0,2,2.0122613718576384e-05
3.05,0.0,77.50060199777202,0,90,3.0,2,1.2412325196347533e-05
3.055,0.0,77.50036682775895,0,90,3.0,2,7.563458947475906e-06
3.06,0.0,77.50022081473722,0,90,3.0,2,4.552881179766775e-06
3.065,0.0,77.50013130838836,0,90,3.0,2,2.707389450754996e-06
3.07,0.0,77.50007713570277,0,90,3.0,2,1.5904268611824797e-06
3.075,0.0,77.50004476277108,0,90,3.0,2,9.229437336633748e-07
3.08,0.0,77.5000256612047,0,90,3.0,2,5.290970041749967e-07
3.085,0.0,77.50001453234408,0,90,3.0,2,2.996359604512503e-07
3.09,0.001684486749771458,77.50000813004326,0,90,3.0,2,1.6762975784547157e-07
3.095,0.004172395771277602,77.50000449312597,0,90,3.0,2,9.264177259462213e-08
3.1,0.009438687428818865,77.50000245303015,0,90,3.0,2,5.057794121207688e-08
3.105,0.019500507867137046,77.50000132298747,0,90,3.0,2,2.7278092215731037e-08
3.11,0.03679496976339974,77.50000070486692,0,90,3.0,2,1.4533338564677289e-08
3.115,0.06340728953298436,77.50000037098563,0,90,3.0,2,7.64918827934304e-09
3.12,0.09979255396093453,77.50000019288817,0,90,3.0,2,3.97707558524004e-09
3.125,0.14343835518453557,77.5000000990724,0,90,3.0,2,2.042729788299016e-09
3.13,0.18829581417209276,77.50000005026877,0,90,3.0,2,1.0364694211715425e-09
3.135,0.2257481735193119,77.50000002519663,0,90,3.0,2,5.195180826198451e-10
3.14,0.24718154073554727,77.50000001247628,0,90,3.0,2,2.572428410033907e-10
3.145,0.24718154074102772,77.50000000610277,0,90,3.0,2,1.2583023283124142e-10
3.15,0.22574817354072055,77.50000000294894,0,90,3.0,2,6.080282669104563e-11
3.155,0.18829581422840957,77.50000000140768,0,90,3.0,2,2.90244254747168e-11
3.16,0.14343835532456656,77.5000000006638,0,90,3.0,2,1.3686664630964965e-11
3.165,0.09979255431561854,77.50000000030923,0,90,3.0,2,6.375839146449394e-12
3.17,0.06340729067170194,77.50000000014231,0,90,3.0,2,2.9341752395470693e-12
3.175,0.03679497683410042,77.50000000006469,0,90,3.0,2,1.3337692920329797e-12
3.18,0.019500578284482293,77.50000000002905,0,90,3.0,2,5.989069492344927e-13
3.185,0.009439396781978427,77.50000000001289,0,90,3.0,2,2.6575763353996326e-13
3.19,0.004178588733610924,77.50000000000564,0,90,3.0,2,1.1632390354505557e-13
3.195,0.0017299316936037381,77.50000000000244,0,90,3.0,2,5.03972579590669e-14
3.2,0.0008997325756988589,77.50000000000105,0,90,3.0,2,2.1682541214947386e-14
3.205,0.001634769674224814,77.50000000000044,0,90,3.0,2,9.083226725180661e-15
3.21,0.00614904736476635,77.50000000000018,0,90,3.0,2,3.809095078301568e-15
3.215,0.02168080359963608,77.50000000000007,0,90,3.0,2,1.465036568577526e-15
3.22,0.06433400338904088,77.50000000000003,0,90,3.0,2,5.860146274310105e-16
3.225,0.1593410769217493,77.50000000000001,0,90,3.0,2,2.9300731371550523e-16
3.23,0.3291989194808569,77.5,0,90,3.0,2,0.0
3.235,0.5672906802982638,77.5,0,90,3.0,2,0.0
3.24,0.815339152120446,77.5,0,90,3.0,2,0.0
3.245,0.9768711246313155,77.50000284455477,1,90,3.0,2,5.865061384095488e-08
3.25,0.9726380909165361,77.50000580215873,0,90,3.0,2,1.1963213866046006e-07
3.255,0.7921091683291741,77.50001275539046,0,90,3.0,2,2.6299774139467264e-07
3.26,0.49139090102639077,77.50003153289097,0,90,3.0,2,6.501627004562926e-07
3.265,0.15739335672107918,77.50008834514392,0,90,3.0,2,1.8215493592205602e-06
3.27,-0.11102342218909485,77.50026962696381,0,90,3.0,2,5.559318841517676e-06
3.275,-0.2314207883647528,77.50084721852477,0,90,3.0,2,1.746842319109944e-05
3.28,-0.2029124434754801,77.50262352697138,0,90,3.0,2,5.4093339616011907e-05
3.285,-0.11151350554305876,77.5078033638614,0,90,3.0,2,0.00016089410023502665
3.29,-0.039430666652076896,77.52199868923158,0,90,3.0,2,0.00045358122126969516
3.295,-0.006087703519843621,77.55839158559259,0,90,3.0,2,0.0012039502184038775
3.3,0.005350271385530551,77.64544907945715,0,90,3.0,2,0.0029989500919000256
3.305,0.010381647827441833,77.83943363242335,0,90,3.0,2,0.006998631596357746
3.31,0.015115203303506243,78.24149114478274,0,90,3.0,2,0.015288477212015301
3.315,0.021170964062928475,79.01552596208309,0,90,3.0,2,0.03124795798109462
3.32,0.029082821134029553,80.39745622062914,0,90,3.0,2,0.059741365373796665
3.325,0.03923107061708144,82.68089569707755,0,90,3.0,2,0.10682259169232053
3.33,0.051969043308817596,86.16349000922408,0,90,3.0,2,0.1786286599840016
3.335,0.06760532616283861,91.04761566539297,0,90,3.0,2,0.27933228176067976
3.34,0.08636519236693461,97.31105705610833,0,90,3.0,2,0.40847540321872833
3.345,0.10834733138818661,104.59124514857123,0,90,3.0,2,0.558582374197345
3.35,0.1334809643017884,112.14479230420652,0,90,3.0,2,0.714325614519722
3.355,0.16148868344343945,118.93414437414808,0,90,3.0,2,0.8543122551370738
3.36,0.191860907532018,123.84829352749307,0,90,3.0,2,0.9556349180926406
3.365,0.22384764873847726,126.0,0,90,3.0,2,1.0
3.37,0.25647215537198226,124.99217715523251,0,90,3.0,2,0.9792201475305672
3.375,0.2885689161419028,121.04437142658236,0,90,3.0,2,0.8978220912697393
3.38,0.31884566517832524,114.92472257434005,0,90,3.0,2,0.7716437644193825
3.385,0.3459657668955683,107.71690768839707,0,90,3.0,2,0.6230290245030324
3.39,0.3686441789190902,100.51955294559312,0,90,3.0,2,0.4746299576410952
3.395,0.3857476379544367,94.19220054499121,0,90,3.0,2,0.3441690834018806
3.4,0.3963882865005728,89.22431615738736,0,90,3.0,2,0.2417384774719044
3.405,0.4,85.7397757016038,0,90,3.0,2,0.16989228250729493
3.41,0.39638828650057273,83.59551274299349,0,90,3.0,2,0.1256806751132679
3.415,0.38574763795443656,82.51202148824075,0,90,3.0,2,0.10334064924207728
3.42,0.36864417891908974,82.18453997599953,0,90,3.0,2,0.09658845311339231
3.425,0.345965766895568,82.35069195328542,0,90,3.0,2,0.10001426707804989
3.43,0.3188456651783249,82.81534105407329,0,90,3.0,2,0.10959466090872755
3.435,0.28856891614190205,83.44684964319964,0,90,3.0,2,0.12261545656081735
3.44,0.2564721553719815,84.16077579935893,0,90,3.0,2,0.1373355834919367
3.445,0.22384764873847685,84.90235137585982,0,90,3.0,2,0.15262580156412006
3.45,0.19186090753201765,85.6331163605077,0,90,3.0,2,0.1676931208352103
3.455,0.16148868344343878,86.32276772136484,0,90,3.0,2,0.1819127365229864
3.46,0.1334809643017881,86.94520055538263,0,90,3.0,2,0.1947464032037655
3.465,0.10834733138818531,87.47723188509201,0,90,3.0,2,0.2057161213421033
3.47,0.08636519236690572,87.89875236903507,0,90,3.0,2,0.2144072653409292
3.475,0.06760532616242629,88.19347427941852,0,90,3.0,2,0.2204840057612067
3.48,0.05196904332202373,88.34978775287364,0,90,3.0,2,0.22370696397677606
3.485,0.03923107185803287,88.36145639506222,0,90,3.0,2,0.22394755453736537
3.49,0.02908287038705761,88.22801050891252,0,90,3.0,2,0.22119609296726842
3.495,0.02117220077308346,87.95477284458106,0,90,3.0,2,0.21556232669239295
3.5,0.0151361834125735,87.55250483419901,0,90,3.0,2,0.20726814091131984
3.505,0.010626454858290009,87.03670299958162,0,90,3.0,2,0.1966330515377654
3.51,0.007326255555493652,86.42660878786413,0,90,3.0,2,0.18405378944049744
3.515,0.004960179211183015,85.74401975485523,0,90,3.0,2,0.16997978875990166
3.52,0.0032978759379303545,85.01200421327506,0,90,3.0,2,0.15488668480979512
3.525,0.002153242296767213,84.25362432761578,0,90,3.0,2,0.13924998613640788
3.53,0.001380616732225004,83.4907645732292,0,90,3.0,2,0.1235209190356536
3.535,0.0008693106590991584,82.74314518763843,0,90,3.0,2,0.10810608634306047
3.54,0.000537524815942247,82.02757644937837,0,90,3.0,2,0.09335209173976027
3.545,0.0003263951340288585,81.35748261877617,0,90,3.0,2,0.07953572409847783
3.55,0.00019463030985187395,80.74269753063376,0,90,3.0,2,0.0668597428996652
3.555,0.00011397219555062695,80.18951010980362,0,90,3.0,2,0.05545381669698187
3.56,6.55403863487943e-05,79.70091970511072,0,90,3.0,2,0.045379787734241665
3.565,3.701184389455385e-05,79.27704937041982,0,90,3.0,2,0.036640193204532316
3.57,2.0525516217290957e-05,78.91566034163318,0,90,3.0,2,0.029188873023364634
3.575,1.1178128483661116e-05,78.61271236828955,0,90,3.0,2,0.022942523057516498
3.58,5.978135409912517e-06,78.36292100843355,0,90,3.0,2,0.017792185740897845
3.585,3.1396702713238487e-06,78.16027286034101,0,90,3.0,2,0.013613873409092989
3.59,1.6192875458531019e-06,77.99847126514554,0,90,3.0,2,0.01027775804423793
3.595,8.201353897972012e-07,77.87129669790625,0,90,3.0,2,0.0076556020186854794
3.6,4.0791415086824765e-07,77.7728766174986,0,90,3.0,2,0.005626322010280338
3.605,1.9923866938774793e-07,77.69786812413626,0,90,3.0,2,0.004079755136830178
3.61,9.556527981051257e-08,77.64156295752402,0,90,3.0,2,0.0029188238664745575
3.615,4.501406988770349e-08,77.59992811506405,0,90,3.0,3,0.0020603735064751677
3.62,0.0,77.56959692327771,0,90,3.0,3,0.0014349881088188555
3.625,0.0,77.54782518554492,0,90,3.0,3,0.0009860862998953192
3.63,0.0,77.53242556585776,0,90,3.0,3,0.0006685683682013222
3.635,0.0,77.52169115816386,0,90,3.0,3,0.000447240374512603
3.64,0.0,77.51431667597406,0,90,3.0,3,0.0002951891953414032
3.645,0.0,77.50932321990186,0,90,3.0,3,0.00019223133818265347
3.65,0.0,77.5059903739918,0,90,3.0,3,0.000123512865810454
3.655,0.0,77.503797573812,0,90,3.0,3,7.830049096894785e-05
3.66,0.0,77.50237532362256,0,90,3.0,3,4.897574479502613e-05
3.665,0.0,77.50146589758421,0,90,3.0,3,3.02246924579589e-05
3.67,0.0,77.5008925832809,0,90,3.0,3,1.840377898765462e-05
3.675,0.0,77.50053623868786,0,90,3.0,3,1.1056467790873172e-05
3.68,0.0,77.50031785702697,0,90,3.0,3,6.553753133424103e-06
3.685,0.0,77.50018589588124,0,90,3.0,3,3.832904767934976e-06
3.69,0.0,77.50010726844758,0,90,3.0,3,2.211720568632784e-06
3.695,0.0,77.50006107148786,0,90,3.0,3,1.2592059353252255e-06
3.7,0.0,77.5000343059368,0,90,3.0,3,7.073389029596677e-07
3.705,0.001684486749771458,77.50001901359956,0,90,3.0,3,3.920329805206381e-07
3.71,0.004172395771277602,77.50001039737434,0,90,3.0,3,2.143788523562293e-07
3.715,0.009438687428818865,77.50000560979892,0,90,3.0,3,1.1566595708714398e-07
3.72,0.019500507867137046,77.50000298631205,0,90,3.0,3,6.157344442332952e-08
3.725,0.03679496976339974,77.50000156851023,0,90,3.0,3,3.2340417079729975e-08
3.73,0.06340728953298436,77.50000081283763,0,90,3.0,3,1.6759538691554346e-08
3.735,0.09979255396093453,77.5000004156086,0,90,3.0,3,8.569249410863177e-09
3.74,0.14343835518453557,77.50000020966674,0,90,3.0,3,4.323025511448859e-09
3.745,0.18829581417209276,77.50000010436113,0,90,3.0,3,2.151775976186006e-09
3.75,0.2257481735193119,77.50000005125219,0,90,3.0,3,1.0567461132952828e-09
3.755,0.24718154073554727,77.5000000248342,0,90,3.0,3,5.120452240908449e-10
3.76,0.24718154074102772,77.50000001187277,0,90,3.0,3,2.447994064045206e-10
3.765,0.22574817354072055,77.5000000056004,0,90,3.0,3,1.1547213128408461e-10
3.77,0.18829581422840957,77.50000000260646,0,90,3.0,3,5.374135043050196e-11
3.775,0.14343835532456656,77.50000000119687,0,90,3.0,3,2.467766197574728e-11
3.78,0.09979255431561854,77.50000000054226,0,90,3.0,3,1.1180573076756249e-11
3.785,0.06340729067170194,77.5000000002424,0,90,3.0,3,4.997825750045373e-12
3.79,0.03679497683410042,77.50000000010691,0,90,3.0,3,2.204294021081746e-12
3.795,0.019500578284482293,77.50000000004653,0,90,3.0,3,9.593059451045642e-13
3.8,0.009439396781978427,77.50000000001998,0,90,3.0,3,4.1196828308400036e-13
3.805,0.004178588733610924,77.50000000000846,0,90,3.0,3,1.7433935166072562e-13
3.81,0.0017299316936037381,77.50000000000354,0,90,3.0,3,7.295882111516081e-14
3.815,0.0008997325756988589,77.50000000000146,0,90,3.0,3,3.017975331269704e-14
3.82,0.001634769674224814,77.5000000000006,0,90,3.0,3,1.230630717605122e-14
3.825,0.00614904736476635,77.50000000000024,0,90,3.0,3,4.9811243331635886e-15
3.83,0.02168080359963608,77.5000000000001,0,90,3.0,3,2.0510511960085364e-15
3.835,0.06433400338904088,77.50000000000004,0,90,3.0,3,8.790219411465157e-16
3.84,0.1593410769217493,77.50000000000001,0,90,3.0,3,2.9300731371550523e-16
3.845,0.3291989194808569,77.5,0,90,3.0,3,0.0
3.85,0.5672906802982638,77.5,0,90,3.0,3,0.0
3.855,0.815339152120446,77.5,0,90,3.0,3,0.0
3.86,0.9768711246313155,77.50000284586159,1,90,3.0,3,5.8677558500516847e-08
3.865,0.9726380909165361,77.50000527961552,0,90,3.0,3,1.0885805199295553e-07
3.87,0.7921091683291741,77.50001031954956,0,90,3.0,3,2.1277421772716367e-07
3.875,0.49139090102639077,77.5000219076864,0,90,3.0,3,4.517048742836215e-07
3.88,0.15739335672107918,77.5000513062313,0,90,3.0,3,1.0578604391548184e-06
3.885,-0.11102342218909485,77.50013076005604,0,90,3.0,3,2.6960836296509407e-06
3.89,-0.2314207883647528,77.50035020381222,0,90,3.0,3,7.220697159130761e-06
3.895,-0.2029124434754801,77.50095018691317,0,90,3.0,3,1.9591482745824776e-05
3.9,-0.11151350554305876,77.50254252172627,0,90,3.0,3,5.242312837668747e-05
3.905,-0.039430666652076896,77.50659976740856,0,90,3.0,3,0.00013607767852699768
3.91,-0.006087703519843621,77.51646537881305,0,90,3.0,3,0.00033949234666087036
3.915,0.005350271385530551,77.53928253215116,0,90,3.0,3,0.00080994911651881
3.92,0.010381647827441833,77.58937615985101,0,90,3.0,3,0.0018428074196085336
3.925,0.015115203303506243,77.69363594416527,0,90,3.0,3,0.003992493694129186
3.93,0.021170964062928475,77.89914273187748,0,90,3.0,3,0.008229747049020112
3.935,0.029082821134029553,78.28242166935907,0,90,3.0,3,0.016132405553795196
3.94,0.03923107061708144,78.95815265228912,0,90,3.0,3,0.03006500313998176
3.945,0.051969043308817596,80.08310908029944,0,90,3.0,3,0.05325998103710179
3.95,0.06760532616283861,81.84927459141106,0,90,3.0,3,0.08967576477136206
3.955,0.08636519236693461,84.45983730743244,0,90,3.0,3,0.14350180015324612
3.96,0.10834733138818661,88.08459313200352,0,90,3.0,3,0.2182390336495571
3.965,0.1334809643017884,92.79797719482352,0,90,3.0,3,0.31542221020254674
3.97,0.16148868344343945,98.51242125918112,0,90,3.0,3,0.4332457991583737
3.975,0.191860907532018,104.92855626497301,0,90,3.0,3,0.5655372425767631
3.98,0.22384764873847726,111.52691835651606,0,90,3.0,3,0.7015859454951766
3.985,0.25647215537198226,117.61903404505797,0,90,3.0,3,0.827196578248618
3.99,0.2885689161419028,122.45858606973496,0,90,3.0,3,0.9269811560770096
3.995,0.31884566517832524,125.39083977274626,0,90,3.0,3,0.9874399953143559
4.0,0.3459657668955683,126.0,0,90,3.0,3,1.0
4.005,0.3686441789190902,124.20909158519541,0,90,3.0,3,0.9630740533029981
4.01,0.3857476379544367,120.29953639901376,0,90,3.0,3,0.8824646680209023
4.015,0.3963882865005728,114.84382327361675,0,90,3.0,3,0.7699757376003453
4.02,0.4,108.57369951396845,0,90,3.0,3,0.6406948353395556
4.025,0.39638828650057273,102.2258821880279,0,90,3.0,3,0.5098120038768639
4.03,0.38574763795443656,96.40992335364712,0,90,3.0,3,0.389895326879322
4.035,0.36864417891908974,91.52930221937348,0,90,3.0,3,0.2892639632860511
4.04,0.345965766895568,87.76478426184879,0,90,3.0,3,0.21164503632677914
4.045,0.3188456651783249,85.10862158827653,0,90,3.0,3,0.15687879563456772
4.05,0.28856891614190205,83.42656336784474,0,90,3.0,3,0.1221971828421595
4.055,0.2564721553719815,82.52378753042284,0,90,3.0,3,0.1035832480499554
4.06,0.22384764873847685,82.19783132916163,0,90,3.0,3,0.09686250163219856
4.065,0.19186090753201765,82.27134594925722,0,90,3.0,3,0.09837826699499432
4.07,0.16148868344343878,82.60568848479885,0,90,3.0,3,0.10527192752162572
4.075,0.1334809643017881,83.10088201483204,0,90,3.0,3,0.11548210339859873
4.08,0.10834733138818531,83.68840901871987,0,90,3.0,3,0.12759606224164674
4.085,0.08636519236690572,84.32197791292448,0,90,3.0,3,0.14065933841081404
4.09,0.06760532616242629,84.96931088968523,0,90,3.0,3,0.15400641009660274
4.095,0.05196904332202373,85.60616534397113,0,90,3.0,3,0.16713742977260057
4.1,0.03923107185803287,86.21263167382902,0,90,3.0,3,0.1796418901820417
4.105,0.02908287038705761,86.77121984433278,0,90,3.0,3,0.19115917204809849
4.11,0.02117220077308346,87.26614028210291,0,90,3.0,3,0.20136371715676102
4.115,0.0151361834125735,87.68327944307798,0,90,3.0,3,0.20996452459954595
4.12,0.010626454858290009,88.01051741167255,0,90,3.0,3,0.21671169920974334
4.125,0.007326255555493652,88.23816273562356,0,90,3.0,3,0.22140541722935178
4.13,0.004960179211183015,88.35936913531009,0,90,3.0,3,0.22390451825381627
4.135,0.0032978759379303545,88.3704549759066,0,90,3.0,3,0.22413309228673395
4.14,0.002153242296767213,88.27108106749418,0,90,3.0,3,0.22208414572152949
4.145,0.001380616732225004,88.06426526041847,0,90,3.0,3,0.2178199022766694
4.15,0.0008693106590991584,87.75622938752784,0,90,3.0,3,0.21146864716552244
4.155,0.000537524815942247,87.35608811985259,0,90,3.0,3,0.20321831174953786
4.16,0.0003263951340288585,86.87540102954962,0,90,3.0,3,0.1933072377226726
4.165,0.00019463030985187395,86.32761843902698,0,90,3.0,3,0.18201275132014386
4.17,0.00011397219555062695,85.72745804544682,0,90,3.0,3,0.16963831021539844
4.175,6.55403863487943e-05,85.09025249472462,0,90,3.0,3,0.1565000514376211
4.18,3.701184389455385e-05,84.43130793834682,0,90,3.0,3,0.14291356573910968
4.185,2.0525516217290957e-05,83.7653103417945,0,90,3.0,3,0.12918165653184543
4.19,1.1178128483661116e-05,83.10581041043784,0,90,3.0,3,0.11558371980284206
4.195,5.978135409912517e-06,82.46481016288601,0,90,3.0,3,0.1023672198533198
4.2,3.1396702713238487e-06,81.85246524967621,0,90,3.0,3,0.08974155153971576
4.205,1.6192875458531019e-06,81.276907956434,0,90,3.0,3,0.07787439085430932
4.21,8.201353897972012e-07,80.74418725350604,0,90,3.0,3,0.06689045883517611
4.215,4.0791415086824765e-07,80.25831492720756,0,90,3.0,3,0.056872472725929164
4.22,1.9923866938774793e-07,79.82140122596148,0,90,3.0,3,0.04786394280332949
4.225,9.556527981051257e-08,79.43385983225944,0,90,3.0,3,0.039873398603287494
4.23,4.501406988770349e-08,79.09466036456183,0,90,3.0,3,0.03287959514560479
4.235,0.0,78.80160686539986,0,90,3.0,3,0.026837254956698177
4.24,0.0,78.55162253760456,0,90,3.0,3,0.021682938919681614
4.245,0.0,78.34102394918298,0,90,3.0,3,0.017340699983154285
4.25,0.0,78.16577159895577,0,90,3.0,3,0.0137272494630056
4.255,0.0,78.02168769123986,0,90,3.0,3,0.010756447242059007
4.26,0.0,77.90463583247852,0,90,3.0,3,0.008343006855227193
4.265,0.0,77.81066083961933,0,90,3.0,3,0.006405378136481049
4.27,0.0,77.73608973677702,0,90,3.0,3,0.004867829624268409
4.275,0.0,77.67759720552577,0,90,3.0,3,0.003661798052077754
4.28,0.0,77.63224022257143,0,90,3.0,3,0.0027266025272458896
4.285,0.0,77.59746741293033,0,90,3.0,3,0.0020096373800067655
4.29,0.0,77.57110886220912,0,90,3.0,3,0.001466162107404441
4.295,0.0,77.55135189140306,0,90,3.0,3,0.0010588018845991423
4.3,0.0,77.53670773455,0,90,3.0,3,0.0007568605061856994
4.305,0.0,77.52597330075044,0,90,3.0,3,0.0005355319742358057
4.31,0.0,77.51819135838316,0,90,3.0,3,0.00037507955429202044
4.315,0.0,77.51261163923783,0,90,3.0,3,0.00026003379871818866
4.32,0.0,77.50865458747553,0,90,3.0,3,0.00017844510258831027
4.325,0.0,77.50587881276304,0,90,3.0,3,0.00012121263428955844
4.33,0.0,77.5039527678497,0,90,3.0,3,8.150036803498289e-05
4.335,0.0,77.5026307611049,0,90,3.0,3,5.424249700817218e-05
4.34,0.0,77.50173312521085,0,90,3.0,3,3.5734540429848964e-05
4.345,0.0,77.50113017810872,0,90,3.0,3,2.3302641416991072e-05
4.35,0.0,77.50072951170684,0,90,3.0,3,1.5041478491477542e-05
4.355,0.0,77.50046610747096,0,90,3.0,3,9.610463318680203e-06
4.36,0.0,77.50029478697198,0,90,3.0,3,6.078081896445378e-06
4.365,0.0,77.50018454357595,0,90,3.0,3,3.805022184636626e-06
4.37,0.0,77.5001143557486,0,90,3.0,3,2.357850486457688e-06
4.375,0.0,77.50007014318696,0,90,3.0,3,1.446251277527444e-06
4.38,0.0,77.50004258742786,0,90,3.0,3,8.780912960048095e-07
4.385,0.0,77.50002559444704,0,90,3.0,3,5.277205574886991e-07
4.39,0.0,77.50001522574371,0,90,3.0,3,3.139328599872053e-07
4.395,0.0,77.5000089656071,0,90,3.0,3,1.8485787822822944e-07
4.4,0.0,77.50000522575824,0,90,3.0,3,1.0774759265793186e-07
4.405,0.0,77.50000301500023,0,90,3.0,3,6.21649532309e-08
4.41,0.001684486749771458,77.50000172184403,0,90,3.0,3,3.5501938745040105e-08
4.415,0.004172395771277602,77.50000097334923,0,90,3.0,3,2.0069056299970978e-08
4.42,0.009438687428818865,77.50000054464309,0,90,3.0,3,1.1229754354363397e-08
4.425,0.019500507867137046,77.50000030166417,0,90,3.0,3,6.219879850570728e-09
4.43,0.03679496976339974,77.50000016538796,0,90,3.0,3,3.410061017066911e-09
4.435,0.06340728953298436,77.50000008975371,0,90,3.0,3,1.850592000373956e-09
4.44,0.09979255396093453,77.5000000482136,0,90,3.0,3,9.940947034620061e-10
4.445,0.14343835518453557,77.50000002563627,0,90,3.0,3,5.285828498842617e-10
4.45,0.18829581417209276,77.50000001349301,0,90,3.0,3,2.782063422704802e-10
4.455,0.2257481735193119,77.50000000702961,0,90,3.0,3,1.449404628390804e-10
4.46,0.24718154073554727,77.50000000362512,0,90,3.0,3,7.474470069225681e-11
4.465,0.24718154074102772,77.50000000185047,0,90,3.0,3,3.8153947355464515e-11
4.47,0.22574817354072055,77.50000000093499,0,90,3.0,3,1.927812319859795e-11
4.475,0.18829581422840957,77.50000000046764,0,90,3.0,3,9.641991672436131e-12
4.48,0.14343835532456656,77.50000000023151,0,90,3.0,3,4.773382147739296e-12
4.485,0.09979255431561854,77.50000000011345,0,90,3.0,3,2.3390773853908783e-12
4.49,0.06340729067170194,77.50000000005502,0,90,3.0,3,1.1345243187064363e-12
4.495,0.03679497683410042,77.50000000002642,0,90,3.0,3,5.447005961971242e-13
4.5,0.019500578284482293,77.50000000001256,0,90,3.0,3,2.590184653245066e-13
4.505,0.009439396781978427,77.50000000000591,0,90,3.0,3,1.2189104250565017e-13
4.51,0.004178588733610924,77.50000000000276,0,90,3.0,3,5.684341886080802e-14
4.515,0.0017299316936037381,77.50000000000126,0,90,3.0,3,2.6077650920679964e-14
4.52,0.0008997325756988589,77.50000000000058,0,90,3.0,3,1.2013299862335714e-14
4.525,0.001634769674224814,77.50000000000026,0,90,3.0,3,5.274131646879094e-15
4.53,0.00614904736476635,77.50000000000011,0,90,3.0,3,2.344058509724042e-15
4.535,0.02168080359963608,77.50000000000006,0,90,3.0,3,1.172029254862021e-15
4.54,0.06433400338904088,77.50000000000003,0,90,3.0,3,5.860146274310105e-16
4.545,0.1593410769217493,77.50000000000001,0,90,3.0,3,2.9300731371550523e-16
4.55,0.3291989194808569,77.5,0,90,3.0,3,0.0
4.555,0.5672906802982638,77.5,0,90,3.0,3,0.0
4.56,0.815339152120446,77.5,0,90,3.0,3,0.0
4.565,0.9768711246313155,77.50000284322633,1,90,3.0,3,5.862322322426144e-08
4.57,0.9726380909165361,77.50000534910116,0,90,3.0,3,1.102907455352232e-07
4.575,0.7921091683291741,77.50001063505204,0,90,3.0,3,2.1927942341171353e-07
4.58,0.49139090102639077,77.50002307583767,0,90,3.0,3,4.757904675148218e-07
4.585,0.15739335672107918,77.5000554713907,0,90,3.0,3,1.143740014331155e-06
4.59,-0.11102342218909485,77.50014526993121,0,90,3.0,3,2.9952563136014092e-06
4.595,-0.2314207883647528,77.5003988898635,0,90,3.0,3,8.224533268130659e-06
4.6,-0.2029124434754801,77.5011054659756,0,90,3.0,3,2.279311289893738e-05
4.605,-0.11151350554305876,77.50300976888175,0,90,3.0,3,6.205709034543127e-05
4.61,-0.039430666652076896,77.50792185780857,0,90,3.0,3,0.00016333727440347813
4.615,-0.006087703519843621,77.51997904089026,0,90,3.0,3,0.0004119389874281015
4.62,0.005350271385530551,77.54805187102536,0,90,3.0,3,0.000990760227327109
4.625,0.010381647827441833,77.60993273918042,0,90,3.0,3,0.0022666544160911822
4.63,0.015115203303506243,77.73890414692885,0,90,3.0,3,0.0049258586995638304
4.635,0.021170964062928475,77.99279598451152,0,90,3.0,3,0.01016074194869107
4.64,0.029082821134029553,78.46442565053172,0,90,3.0,3,0.01988506495941697
4.645,0.03923107061708144,79.29027244272471,0,90,3.0,3,0.03691283387061265
4.65,0.051969043308817596,80.65176405432197,0,90,3.0,3,0.06498482586230872
4.655,0.06760532616283861,82.76179436299392,0,90,3.0,3,0.10849060542255515
4.66,0.08636519236693461,85.82984126010565,0,90,3.0,3,0.1717493043320753
4.665,0.10834733138818661,90.00401066771741,0,90,3.0,3,0.257814652942627
4.67,0.1334809643017884,95.29777724070067,0,90,3.0,3,0.3669644791897045
4.675,0.16148868344343945,101.52070486511198,0,90,3.0,3,0.4952722652600408
4.68,0.191860907532018,108.24076061437154,0,90,3.0,3,0.633830115760238
4.685,0.22384764873847726,114.80477932285345,0,90,3.0,3,0.7691707076877
4.69,0.25647215537198226,120.42962228136281,0,90,3.0,3,0.8851468511621198
4.695,0.2885689161419028,124.35209848293255,0,90,3.0,3,0.9660226491326298
4.7,0.31884566517832524,126.0,0,90,3.0,3,1.0
4.705,0.3459657668955683,125.13199699060715,0,90,3.0,3,0.982103030734168
4.71,0.3686441789190902,121.89956504594475,0,90,3.0,3,0.9154549494009228
4.715,0.3857476379544367,116.80934959217932,0,90,3.0,3,0.8105020534469962
4.72,0.3963882865005728,110.59911497723489,0,90,3.0,3,0.6824559789120596
4.725,0.4,104.06935062625563,0,90,3.0,3,0.5478216623970232
4.73,0.39638828650057273,97.92347769263611,0,90,3.0,3,0.421102632837858
4.735,0.38574763795443656,92.65949215512845,0,90,3.0,3,0.3125668485593494
4.74,0.36864417891908974,88.53181629485155,0,90,3.0,3,0.22746012979075364
4.745,0.345965766895568,85.57626122980984,0,90,3.0,3,0.16652085009917206
4.75,0.3188456651783249,83.67383914290984,0,90,3.0,3,0.12729565243113075
4.755,0.28856891614190205,82.62499201165721,0,90,3.0,3,0.1056699383846848
4.76,0.2564721553719815,82.2123239726345,0,90,3.0,3,0.09716131902339162
4.765,0.22384764873847685,82.24122011682826,0,90,3.0,3,0.09775711581089194
4.77,0.19186090753201765,82.5580522820505,0,90,3.0,3,0.10428973777423704
4.775,0.16148868344343878,83.05182219454407,0,90,3.0,3,0.11447056071224893
4.78,0.1334809643017881,83.64676889072895,0,90,3.0,3,0.12673750290162783
4.785,0.10834733138818531,84.29215130262087,0,90,3.0,3,0.1400443567550694
4.79,0.08636519236690572,84.95297587109219,0,90,3.0,3,0.15366960558952975
4.795,0.06760532616242629,85.6032141410097,0,90,3.0,3,0.16707658022700414
4.8,0.05196904332202373,86.22161625213593,0,90,3.0,3,0.17982713921929755
4.805,0.03923107185803287,86.78956826301784,0,90,3.0,3,0.19153748995913075
4.81,0.02908287038705761,87.29030500025087,0,90,3.0,3,0.20186195876805912
4.815,0.02117220077308346,87.70890109634271,0,90,3.0,3,0.21049280611015905
4.82,0.0151361834125735,88.03263653005703,0,90,3.0,4,0.21716776350633057
4.825,0.010626454858290009,88.25148247455117,0,90,3.0,4,0.22168005102167357
4.83,0.007326255555493652,88.35855638009744,0,90,3.0,4,0.22388776041438022
4.835,0.004960179211183015,88.35045923154104,0,90,3.0,4,0.22372080889775336
4.84,0.0032978759379303545,88.22744713680183,0,90,3.0,4,0.2211844770474604
4.845,0.002153242296767213,87.99341542663203,0,90,3.0,4,0.21635908096148507
4.85,0.001380616732225004,87.65569305578572,0,90,3.0,4,0.20939573310898388
4.855,0.0008693106590991584,87.22466123620943,0,90,3.0,4,0.20050847909710162
4.86,0.000537524815942247,86.71322360224083,0,90,3.0,4,0.189963373242079
4.865,0.0003263951340288585,86.13616550482689,0,90,3.0,4,0.17806526814076065
4.87,0.00019463030985187395,85.50944672085147,0,90,3.0,4,0.1651432313577623
4.875,0.00011397219555062695,84.84947457720351,0,90,3.0,4,0.15153555829285587
4.88,6.55403863487943e-05,84.17240320268115,0,90,3.0,4,0.1375753237666217
4.885,3.701184389455385e-05,83.49349969202193,0,90,3.0,4,0.12357731323756552
4.89,2.0525516217290957e-05,82.8266100918151,0,90,3.0,4,0.10982701220237316
4.895,1.1178128483661116e-05,82.18374823881719,0,90,3.0,4,0.09657212863540593
4.9,5.978135409912517e-06,81.57481966179543,0,90,3.0,4,0.08401690024320475
4.905,3.1396702713238487e-06,81.00748205938964,0,90,3.0,4,0.07231921771937412
4.91,1.6192875458531019e-06,80.48713423047259,0,90,3.0,4,0.061590396504589515
4.915,8.201353897972012e-07,80.01701749313209,0,90,3.0,4,0.051897267899630665
4.92,4.0791415086824765e-07,79.59840805263835,0,90,3.0,4,0.04326614541522367
4.925,1.9923866938774793e-07,79.23087565482302,0,90,3.0,4,0.03568815783140255
4.93,9.556527981051257e-08,78.91258311223406,0,90,3.0,4,0.029125424994516702
4.935,4.501406988770349e-08,78.64060262096777,0,90,3.0,4,0.023517579813768435
4.94,0.0,78.41122774696173,0,90,3.0,4,0.018788200968283056
4.945,0.0,78.22026402057521,0,90,3.0,4,0.01485080454794257
4.95,0.0,78.06328569392375,0,90,3.0,4,0.0116141380190463
4.955,0.0,77.93585088962875,0,90,3.0,4,0.00898661628100522
4.96,0.0,77.83367169477451,0,90,3.0,4,0.006879828758237296
4.965,0.0,77.75273943637394,0,90,3.0,4,0.005211122399462747
4.97,0.0,77.68940824197168,0,90,3.0,4,0.0039053245767356024
4.975,0.0,77.64044198158881,0,90,3.0,4,0.0028957109605939712
4.98,0.0,77.60303083963844,0,90,3.0,4,0.00212434720903991
4.985,0.0,77.57478418147271,0,90,3.0,4,0.0015419418860352196
4.99,0.0,77.55370620498225,0,90,3.0,4,0.001107344432623672
4.995,0.0,77.53816026664151,0,90,3.0,4,0.0007868096214744733
5.0,0.0,77.5268269037557,0,90,3.0,4,0.0005531320362000976
5.005,0.0,77.51865958225872,0,90,3.0,4,0.00038473365481898506
5.01,0.0,77.51284119666562,0,90,3.0,4,0.00026476694155915014
5.015,0.0,77.50874341903805,0,90,3.0,4,0.00018027668119700757
5.02,0.0,77.505890189993,0,90,3.0,4,0.00012144721635044119
5.025,0.0,77.50392599307456,0,90,3.0,4,8.09483108156721e-05
5.03,0.0,77.50258905913398,0,90,3.0,4,5.338266255632296e-05
5.035,0.0,77.5016892993909,0,90,3.0,4,3.483091527636903e-05
5.04,0.0,77.50109054476202,0,90,3.0,4,2.2485459010757733e-05
5.045,0.0,77.50069655045753,0,90,3.0,4,1.436186510378067e-05
5.05,0.0,77.50044018362493,0,90,3.0,4,9.075951029515017e-06
5.055,0.0,77.50027522469445,0,90,3.0,4,5.674735968003793e-06
5.06,0.0,77.50017026019599,0,90,3.0,4,3.510519504872493e-06
5.065,0.0,77.50010421040284,0,90,3.0,4,2.1486680997647275e-06
5.07,0.0,77.50006310753771,0,90,3.0,4,1.3011863445954827e-06
5.075,0.0,77.5000378114743,0,90,3.0,4,7.796180268049977e-07
5.08,0.0,77.50002241497207,0,90,3.0,4,4.6216437247672616e-07
5.085,0.0,77.5000131469499,0,90,3.0,4,2.710711318914693e-07
5.09,0.0,77.50000762928833,0,90,3.0,4,1.57304914093458e-07
5.095,0.0,77.50000438041506,0,90,3.0,4,9.031783636216751e-08
5.1,0.001684486749771458,77.50000248839153,0,90,3.0,4,5.1307041859058467e-08
5.105,0.004172395771277602,77.50000139860276,0,90,3.0,4,2.8837170360667496e-08
5.11,0.009438687428818865,77.50000077775401,0,90,3.0,4,1.6036165165526644e-08
5.115,0.019500507867137046,77.50000042791977,0,90,3.0,4,8.823088092895821e-09
5.12,0.03679496976339974,77.50000023294568,0,90,3.0,4,4.803003722119365e-09
5.125,0.06340728953298436,77.50000012546401,0,90,3.0,4,2.586886855929198e-09
5.13,0.09979255396093453,77.50000006685839,0,90,3.0,4,1.3785235221371999e-09
5.135,0.14343835518453557,77.50000003525047,0,90,3.0,4,7.268137248980359e-10
5.14,0.18829581417209276,77.50000001838849,0,90,3.0,4,3.791441387650209e-10
5.145,0.2257481735193119,77.50000000949072,0,90,3.0,4,1.9568493446490017e-10
5.15,0.24718154073554727,77.50000000484647,0,90,3.0,4,9.99272142695359e-11
5.155,0.24718154074102772,77.50000000244863,0,90,3.0,4,5.048721120437756e-11
5.16,0.22574817354072055,77.50000000122404,0,90,3.0,4,2.5237891959571327e-11
5.165,0.18829581422840957,77.50000000060538,0,90,3.0,4,1.2482111564280523e-11
5.17,0.14343835532456656,77.50000000029624,0,90,3.0,4,6.108030461713422e-12
5.175,0.09979255431561854,77.50000000014343,0,90,3.0,4,2.9573228173305944e-12
5.18,0.06340729067170194,77.50000000006871,0,90,3.0,4,1.4166903618144677e-12
5.185,0.03679497683410042,77.50000000003256,0,90,3.0,4,6.712797557222225e-13
5.19,0.019500578284482293,77.50000000001526,0,90,3.0,4,3.146898549304526e-13
5.195,0.009439396781978427,77.50000000000708,0,90,3.0,4,1.4591764223032162e-13
5.2,0.004178588733610924,77.50000000000325,0,90,3.0,4,6.70986748408507e-14
5.205,0.0017299316936037381,77.50000000000148,0,90,3.0,4,3.047276062641254e-14
5.21,0.0008997325756988589,77.50000000000067,0,90,3.0,4,1.3771343744628746e-14
5.215,0.001634769674224814,77.5000000000003,0,90,3.0,4,6.15315358802561e-15
5.22,0.00614904736476635,77.50000000000013,0,90,3.0,4,2.637065823439547e-15
5.225,0.02168080359963608,77.50000000000006,0,90,3.0,4,1.172029254862021e-15
5.23,0.06433400338904088,77.50000000000003,0,90,3.0,4,5.860146274310105e-16
5.235,0.1593410769217493,77.50000000000001,0,90,3.0,4,2.9300731371550523e-16
5.24,0.3291989194808569,77.5,0,90,3.0,4,0.0
5.245,0.5672906802982638,77.5,0,90,3.0,4,0.0
5.25,0.815339152120446,77.5,0,90,3.0,4,0.0
5.255,0.9768711246313155,77.50000284590683,1,90,3.0,4,5.867849143580372e-08
5.26,0.9726380909165361,77.50000620454384,0,90,3.0,4,1.279287389057647e-07
5.265,0.7921091683291741,77.50001485828533,0,90,3.0,4,3.06356398467185e-07
5.27,0.49139090102639077,77.50004110438331,0,90,3.0,4,8.47513058019591e-07
5.275,0.15739335672107918,77.50013076213497,0,90,3.0,4,2.6961264942768786e-06
5.28,-0.11102342218909485,77.5004494825599,0,90,3.0,4,9.267681647444764e-06
5.285,-0.2314207883647528,77.5015589661188,0,90,3.0,4,3.2143631315322414e-05
5.29,-0.2029124434754801,77.5052175459013,0,90,3.0,4,0.00010757826600624445
5.295,-0.11151350554305876,77.51646564059375,0,90,3.0,4,0.0003394977442010446
5.3,-0.039430666652076896,77.54846474100408,0,90,3.0,4,0.0009992730103934465
5.305,-0.006087703519843621,77.63237182235686,0,90,3.0,4,0.002729315924883692
5.31,0.005350271385530551,77.8346877800114,0,90,3.0,4,0.006900778969307072
5.315,0.010381647827441833,78.28243410896945,0,90,3.0,4,0.016132662040607305
5.32,0.015115203303506243,79.19029108423398,0,90,3.0,4,0.03485136256152529
5.325,0.021170964062928475,80.87323691731447,0,90,3.0,4,0.06955127664565922
5.33,0.029082821134029553,83.71773945614594,0,90,3.0,4,0.12820081352878218
5.335,0.03923107061708144,88.08476141493827,0,90,3.0,4,0.2182425034007891
5.34,0.051969043308817596,94.14082921914031,0,90,3.0,4,0.3431098808070168
5.345,0.06760532616283861,101.66075344659448,0,90,3.0,4,0.49815986487823677
5.35,0.08636519236693461,109.89637848788419,0,90,3.0,4,0.6679665667604988
5.355,0.10834733138818661,117.61967189185137,0,90,3.0,4,0.8272097297288942
5.36,0.1334809643017884,123.39251895920344,0,90,3.0,4,0.9462375043134731
5.365,0.16148868344343945,126.0,0,90,3.0,4,1.0
5.37,0.191860907532018,124.87296442908382,0,90,3.0,4,0.976762153176986
5.375,0.22384764873847726,120.30021686273133,0,90,3.0,4,0.8824786982006461
5.38,0.25647215537198226,113.32335946796991,0,90,3.0,4,0.7386259684117507
5.385,0.2885689161419028,105.36763648293541,0,90,3.0,4,0.5745904429471218
5.39,0.31884566517832524,97.78841963142564,0,90,3.0,4,0.41831793054485855
5.395,0.3459657668955683,91.52952526924612,0,90,3.0,4,0.28926856225249736
5.4,0.3686441789190902,87.00059676071308,0,90,3.0,4,0.1958885930043934
5.405,0.3857476379544367,84.15740367561432,0,90,3.0,4,0.13726605516730553
5.41,0.3963882865005728,82.68782985773649,0,90,3.0,4,0.10696556407704101
5.415,0.4,82.19790601931109,0,90,3.0,4,0.09686404163528023
5.42,0.39638828650057273,82.33508188176637,0,90,3.0,4,0.09969240993332723
5.425,0.38574763795443656,82.83817540477975,0,90,3.0,4,0.11006547226349994
5.43,0.36864417891908974,83.53579413597762,0,90,3.0,4,0.12444936362840464
5.435,0.345965766895568,84.32208637457715,0,90,3.0,4,0.14066157473354957
5.44,0.3188456651783249,85.13045992484066,0,90,3.0,4,0.15732907061527143
5.445,0.28856891614190205,85.91446775428722,0,90,3.0,4,0.17349418050076734
5.45,0.2564721553719815,86.63709729820755,0,90,3.0,4,0.18839375872592887
5.455,0.22384764873847685,87.26629555257269,0,90,3.0,4,0.2013669186097461
5.46,0.19186090753201765,87.77410402168786,0,90,3.0,4,0.21183719632346107
5.465,0.16148868344343878,88.1374572071066,0,90,3.0,4,0.21932901457951767
5.47,0.1334809643017881,88.33947616553674,0,90,3.0,4,0.22349435392859252
5.475,0.10834733138818531,88.370627803718,0,90,3.0,4,0.22413665574676278
5.48,0.08636519236690572,88.22943022962616,0,90,3.0,4,0.22122536555930228
5.485,0.06760532616242629,87.92255902280364,0,90,3.0,4,0.21489812418151835
5.49,0.05196904332202373,87.4643214547078,0,90,3.0,4,0.20544992690119177
5.495,0.03923107185803287,86.87555008771182,0,90,3.0,4,0.19331031108684155
5.5,0.02908287038705761,86.18203333435652,0,90,3.0,4,0.17901099658467048
5.505,0.02117220077308346,85.41264718597564,0,90,3.0,4,0.1631473646592916
5.51,0.0151361834125735,84.5973760413798,0,90,3.0,4,0.14633765033772791
5.515,0.010626454858290009,83.76540995306897,0,90,3.0,4,0.12918371037255605
5.52,0.007326255555493652,82.94348250088538,0,90,3.0,4,0.11223675259557486
5.525,0.004960179211183015,82.15457284595149,0,90,3.0,4,0.09597057414332973
5.53,0.0032978759379303545,81.41704439676907,0,90,3.0,4,0.08076380199523858
5.535,0.002153242296767213,80.74423883237593,0,90,3.0,4,0.06689152231702944
5.54,0.001380616732225004,80.1444953314543,0,90,3.0,4,0.05452567693720194
5.545,0.0008693106590991584,79.6215264610567,0,90,3.0,4,0.04374281363003512
5.55,0.000537524815942247,79.1750576675656,0,90,3.0,4,0.03453727149619786
5.555,0.0003263951340288585,78.80162755946155,0,90,3.0,4,0.026837681638382488
5.56,0.00019463030985187395,78.4954498134256,0,90,3.0,4,0.02052473842114627
5.565,0.00011397219555062695,78.24925157690515,0,90,3.0,4,0.015448486121755716
5.57,6.55403863487943e-05,78.05502382198966,0,90,3.0,4,0.011443790144116787
5.575,3.701184389455385e-05,77.90464226572584,0,90,3.0,4,0.008343139499501863
5.58,2.0525516217290957e-05,77.79033976819916,0,90,3.0,4,0.00598638697317857
5.585,1.1178128483661116e-05,77.7050300273915,0,90,3.0,4,0.004227423245185594
5.59,5.978135409912517e-06,77.64249646006887,0,90,3.0,4,0.002938071341626178
5.595,3.1396702713238487e-06,77.5974689625508,0,90,3.0,4,0.0020096693309444593
5.6,1.6192875458531019e-06,77.56561517226245,0,90,3.0,4,0.0013528901497413253
5.605,8.201353897972012e-07,77.54347282522139,0,90,3.0,4,0.0008963469117811515
5.61,4.0791415086824765e-07,77.52834700099051,0,90,3.0,4,0.0005844742472269558
5.615,1.9923866938774793e-07,77.51819164760497,0,90,3.0,4,0.00037508551762814547
5.62,9.556527981051257e-08,77.51148980378764,0,90,3.0,4,0.000236903170879177
5.625,4.501406988770349e-08,77.50714214810645,0,90,3.0,4,0.00014726078570006815
5.63,0.0,77.50436938942745,0,90,3.0,4,9.009050365881597e-05
5.635,0.0,77.502630802931,0,90,3.0,4,5.4243359401948275e-05
5.64,0.0,77.50155894768903,0,90,3.0,4,3.2143251320290405e-05
5.645,0.0,77.5009091811648,0,90,3.0,4,1.8746003397949344e-05
5.65,0.0,77.50052184914884,0,90,3.0,4,1.0759776264726544e-05
5.655,0.0,77.50029479165876,0,90,3.0,4,6.078178531136464e-06
5.66,0.0,77.5001638932488,0,90,3.0,4,3.37924224322471e-06
5.665,0.001684486749771458,77.50008967731557,0,90,3.0,4,1.849016815909992e-06
5.67,0.004172395771277602,77.50004829251203,0,90,3.0,4,9.957218976031766e-07
5.675,0.009438687428818865,77.50002559485397,0,90,3.0,4,5.277289477531273e-07
5.68,0.019500507867137046,77.50001335061208,0,90,3.0,4,2.7527035214363197e-07
5.685,0.03679496976339974,77.50000685370425,0,90,3.0,4,1.4131348967969914e-07
5.69,0.06340728953298436,77.50000346278243,0,90,3.0,4,7.13975758881321e-08
5.695,0.09979255396093453,77.5000017218714,0,90,3.0,4,3.550250307712632e-08
5.7,0.14343835518453557,77.50000084265903,0,90,3.0,4,1.7374413074349766e-08
5.705,0.18829581417209276,77.5000004058623,0,90,3.0,4,8.368294739861103e-09
5.71,0.2257481735193119,77.50000019238942,0,90,3.0,4,3.96679220055788e-09
5.715,0.24718154073554727,77.50000008975515,0,90,3.0,4,1.8506215941126413e-09
5.72,0.24718154074102772,77.500000041211,0,90,3.0,4,8.497112475262988e-10
5.725,0.22574817354072055,77.5000000186227,0,90,3.0,4,3.839731923023661e-10
5.73,0.18829581422840957,77.50000000828224,0,90,3.0,4,1.7076788551384732e-10
5.735,0.14343835532456656,77.50000000362517,0,90,3.0,4,7.474587272151167e-11
5.74,0.09979255431561854,77.50000000156166,0,90,3.0,4,3.21991597188243e-11
5.745,0.06340729067170194,77.50000000066208,0,90,3.0,4,1.3651210746005388e-11
5.75,0.03679497683410042,77.50000000027626,0,90,3.0,4,5.696062178629422e-12
5.755,0.019500578284482293,77.50000000011345,0,90,3.0,4,2.3390773853908783e-12
5.76,0.009439396781978427,77.50000000004586,0,90,3.0,4,9.455346013599354e-13
5.765,0.004178588733610924,77.50000000001823,0,90,3.0,4,3.759283834969932e-13
5.77,0.0017299316936037381,77.50000000000713,0,90,3.0,4,1.4708967148518363e-13
5.775,0.0008997325756988589,77.50000000000276,0,90,3.0,4,5.684341886080802e-14
5.78,0.001634769674224814,77.50000000000104,0,90,3.0,4,2.1389533901231882e-14
5.785,0.00614904736476635,77.50000000000038,0,90,3.0,4,7.911197470318642e-15
5.79,0.02168080359963608,77.50000000000014,0,90,3.0,4,2.930073137155052e-15
5.795,0.06433400338904088,77.50000000000006,0,90,3.0,4,1.172029254862021e-15
5.8,0.1593410769217493,77.50000000000001,0,90,3.0,4,2.9300731371550523e-16
5.805,0.3291989194808569,77.5,0,90,3.0,4,0.0
5.81,0.5672906802982638,77.5,0,90,3.0,4,0.0
5.815,0.815339152120446,77.5,0,90,3.0,4,0.0
5.82,0.9768711246313155,77.50000284159387,1,90,3.0,4,5.8589564302105686e-08
5.825,0.9726380909165361,77.50000524787401,0,90,3.0,4,1.0820358792696744e-07
5.83,0.7921091683291741,77.50001020135224,0,90,3.0,4,2.1033715957508826e-07
5.835,0.49139090102639077,77.50002150542502,0,90,3.0,4,4.434108252529974e-07
5.84,0.15739335672107918,77.50004994250548,0,90,3.0,4,1.029742381114815e-06
5.845,-0.11102342218909485,77.50012616702794,0,90,3.0,4,2.6013820194499933e-06
5.85,-0.2314207883647528,77.50033515612391,0,90,3.0,4,6.91043554453601e-06
5.855,-0.2029124434754801,77.50090303081406,0,90,3.0,4,1.8619192042434434e-05
5.86,-0.11151350554305876,77.50240249680841,0,90,3.0,4,4.953601666834777e-05
5.865,-0.039430666652076896,77.50620751786776,0,90,3.0,4,0.0001279900591291654
5.87,-0.006087703519843621,77.5154305665507,0,90,3.0,4,0.0003181560113547483
5.875,0.005350271385530551,77.53671277936931,0,90,3.0,4,0.0007569645230785578
5.88,0.010381647827441833,77.58336925368212,0,90,3.0,4,0.0017189536841674593
5.885,0.015115203303506243,77.68041720673176,0,90,3.0,4,0.0037199424068404302
5.89,0.021170964062928475,77.87175652575355,0,90,3.0,4,0.0076650830052279175
5.895,0.029082821134029553,78.22901047082749,0,90,3.0,4,0.015031143728401848
5.9,0.03923107061708144,78.86012402198301,0,90,3.0,4,0.028043794267690964
5.905,0.051969043308817596,79.91389549240841,0,90,3.0,4,0.049771041080585866
5.91,0.06760532616283861,81.57482242680061,0,90,3.0,4,0.0840169572536208
5.915,0.08636519236693461,84.0421715252154,0,90,3.0,4,0.1348901345405236
5.92,0.10834733138818661,87.48945991030922,0,90,3.0,4,0.20596824557338603
5.925,0.1334809643017884,92.00641812482755,0,90,3.0,4,0.2991014046356195
5.93,0.16148868344343945,97.53425909127935,0,90,3.0,4,0.41307750703668766
5.935,0.191860907532018,103.81376504638375,0,90,3.0,4,0.5425518566264691
5.94,0.22384764873847726,110.36973877181947,0,90,3.0,4,0.6777265726148345
5.945,0.25647215537198226,116.55051103954558,0,90,3.0,4,0.8051651760731048
5.95,0.2885689161419028,121.62632944907975,0,90,3.0,4,0.9098212257542216
5.955,0.31884566517832524,124.92946092995325,0,90,3.0,4,0.9779270294835722
5.96,0.3459657668955683,126.0,0,90,3.0,4,1.0
5.965,0.3686441789190902,124.6938252063791,0,90,3.0,4,0.9730685609562701
5.97,0.3857476379544367,121.217996840846,0,90,3.0,4,0.9014019967184742
5.975,0.3963882865005728,116.0818526852693,0,90,3.0,4,0.7955021172220473
5.98,0.4,109.9799438267282,0,90,3.0,4,0.6696895634376949
5.985,0.39638828650057273,103.64408632484154,0,90,3.0,4,0.5390533262853925
5.99,0.38574763795443656,97.70790999607995,0,90,3.0,4,0.4166579380635041
5.995,0.36864417891908974,92.61737317677957,0,90,3.0,4,0.3116984160160735
6.0,0.345965766895568,88.60086034957897,0,90,3.0,4,0.22888371854801992
6.005,0.3188456651783249,85.69201554683798,0,90,3.0,4,0.16890753704820574
6.01,0.28856891614190205,83.78511991060593,0,90,3.0,4,0.12959010124960677
6.015,0.2564721553719815,82.69962175115714,0,90,3.0,4,0.10720869590014719
6.02,0.22384764873847685,82.23556131460678,0,90,3.0,4,0.09764043947642853
6.025,0.19186090753201765,82.2106215981608,0,90,3.0,5,0.09712621851877935
6.03,0.16148868344343878,82.47796263165895,0,90,3.0,5,0.10263840477647328
6.035,0.1334809643017881,82.92928438636176,0,90,3.0,5,0.11194400796622181
6.04,0.10834733138818531,83.48930152774871,0,90,3.0,5,0.1234907531494579
6.045,0.08636519236690572,84.10702158041188,0,90,3.0,5,0.13622724908065736
6.05,0.06760532616242629,84.74732780110544,0,90,3.0,5,0.14942943919805035
6.055,0.05196904332202373,85.38449416816793,0,90,3.0,5,0.16256689006531821
6.06,0.03923107185803287,85.99794855016432,0,90,3.0,5,0.1752154340240067
6.065,0.02908287038705761,86.56992629687204,0,90,3.0,5,0.18700878962622763
6.07,0.02117220077308346,87.08445158300941,0,90,3.0,5,0.19761755841256518
6.075,0.0151361834125735,87.52713026604603,0,90,3.0,5,0.2067449539390934
6.08,0.010626454858290009,87.88537120331262,0,90,3.0,5,0.21413136501675498
6.085,0.007326255555493652,88.1487839356451,0,90,3.0,5,0.21956255537412575
6.09,0.004960179211183015,88.30959800302992,0,90,3.0,5,0.22287830934082306
6.095,0.0032978759379303545,88.36301228718621,0,90,3.0,5,0.2239796347873445
6.1,0.002153242296767213,88.30742168835918,0,90,3.0,5,0.22283343687338525
6.105,0.001380616732225004,88.14449333257545,0,90,3.0,5,0.2194740893314526
6.11,0.0008693106590991584,87.8790822595265,0,90,3.0,5,0.2140016960727113
6.115,0.000537524815942247,87.51899071950872,0,90,3.0,5,0.20657712823729324
6.12,0.0003263951340288585,87.0745871119695,0,90,3.0,5,0.19741416725710323
6.125,0.00019463030985187395,86.55831033385357,0,90,3.0,5,0.18676928523409422
6.13,0.00011397219555062695,85.98409251928744,0,90,3.0,5,0.17492974266572048
6.135,6.55403863487943e-05,85.36673745743582,0,90,3.0,5,0.1622007723182643
6.14,3.701184389455385e-05,84.72129317056762,0,90,3.0,5,0.14889264269211588
6.145,2.0525516217290957e-05,84.06245528666152,0,90,3.0,5,0.13530835642601066
6.15,1.1178128483661116e-05,83.40403329311125,0,90,3.0,5,0.12173264521878875
6.155,5.978135409912517e-06,82.75850508583088,0,90,3.0,5,0.10842278527486343
6.16,3.1396702713238487e-06,82.13667716646533,0,90,3.0,5,0.09560159106114088
6.165,1.6192875458531019e-06,81.54745919615713,0,90,3.0,5,0.08345276693107495
6.17,8.201353897972012e-07,80.99775317592832,0,90,3.0,5,0.07211862218408915
6.175,4.0791415086824765e-07,80.49244998191267,0,90,3.0,5,0.06169999962706538
6.18,1.9923866938774793e-07,80.03451987045568,0,90,3.0,5,0.05225814165888004
6.185,9.556527981051257e-08,79.62517922034833,0,90,3.0,5,0.043818128254604724
6.19,4.501406988770349e-08,79.26411332828589,0,90,3.0,5,0.036373470686306954
6.195,0.0,78.9497344579457,0,90,3.0,5,0.02989143212259165
6.2,0.0,78.67945534241619,0,90,3.0,5,0.024318666853942073
6.205,0.0,78.44996061991971,0,90,3.0,5,0.01958681690556098
6.21,0.0,78.2574618470744,0,90,3.0,5,0.015617770042771045
6.215,0.0,78.0979253726538,0,90,3.0,5,0.01232835819904752
6.22,0.0,77.96726608808848,0,90,3.0,5,0.009634352331721219
6.225,0.0,77.86150358080003,0,90,3.0,5,0.007453682078351193
6.23,0.0,77.77688026614771,0,90,3.0,5,0.005708871466963173
6.235,0.0,77.70994351493611,0,90,3.0,5,0.004328732266724004
6.24,0.0,77.65759556235399,0,90,3.0,5,0.0032493930382265926
6.245,0.0,77.61711608993805,0,90,3.0,5,0.0024147647409907425
6.25,0.0,77.58616287958085,0,90,3.0,5,0.0017765542181619428
6.255,0.0,77.56275594951525,0,90,3.0,5,0.0012939371034072094
6.26,0.0,77.54525021688922,0,90,3.0,5,0.0009329941626642323
6.265,0.0,77.53230111287208,0,90,3.0,5,0.000666002327259309
6.27,0.0,77.52282681744146,0,90,3.0,5,0.0004706560297207259
6.275,0.0,77.5159699775533,0,90,3.0,5,0.0003292778876968474
6.28,0.0,77.51106099779811,0,90,3.0,5,0.00022806181027033642
6.285,0.0,77.50758429760151,0,90,3.0,5,0.00015637727013424795
6.29,0.0,77.50514834315162,0,90,3.0,5,0.00010615140518798961
6.295,0.0,77.50345979738647,0,90,3.0,5,7.133602858699334e-05
6.3,0.0,77.50230178579928,0,90,3.0,5,4.745950101599042e-05
6.305,0.0,77.5015160384165,0,90,3.0,5,3.1258524051487987e-05
6.31,0.0,77.50098852251757,0,90,3.0,5,2.0381907578837984e-05
6.315,0.0,77.50063810770203,0,90,3.0,5,1.3156859835685891e-05
6.32,0.0,77.50040778614562,0,90,3.0,5,8.407961765264303e-06
6.325,0.0,77.50025798948569,0,90,3.0,5,5.3193708389553834e-06
6.33,0.0,77.50016158558198,0,90,3.0,5,3.3316614840798852e-06
6.335,0.0,77.50010019228165,0,90,3.0,5,2.06582024020463e-06
6.34,0.0,77.50006150309721,0,90,3.0,5,1.2681050971999884e-06
6.345,0.0,77.50003737582321,0,90,3.0,5,7.706355301341262e-07
6.35,0.0,77.50002248617606,0,90,3.0,5,4.63632496170361e-07
6.355,0.0,77.50001339280381,0,90,3.0,5,2.761402847048997e-07
6.36,0.0,77.50000789693324,0,90,3.0,5,1.6282336578677638e-07
6.365,0.0,77.50000460974059,0,90,3.0,5,9.50461976431471e-08
6.37,0.0,77.50000266394692,0,90,3.0,5,5.49267405258621e-08
6.375,0.001684486749771458,77.50000152407277,0,90,3.0,5,3.1424180865683086e-08
6.38,0.004172395771277602,77.50000086321089,0,90,3.0,5,1.779816259550364e-08
6.385,0.009438687428818865,77.50000048401539,0,90,3.0,5,9.979698716895505e-09
6.39,0.019500507867137046,77.50000026867824,0,90,3.0,5,5.539757427127885e-09
6.395,0.03679496976339974,77.50000014765116,0,90,3.0,5,3.0443539007015697e-09
6.4,0.06340728953298436,77.50000008032899,0,90,3.0,5,1.6562677918739506e-09
6.405,0.09979255396093453,77.5000000432652,0,90,3.0,5,8.920660407385026e-10
6.41,0.14343835518453557,77.5000000230694,0,90,3.0,5,4.756578178297711e-10
6.415,0.18829581417209276,77.5000000121777,0,90,3.0,5,2.510864643349142e-10
6.42,0.2257481735193119,77.50000000636392,0,90,3.0,5,1.3121482823539128e-10
6.425,0.24718154073554727,77.50000000329243,0,90,3.0,5,6.788510647086312e-11
6.43,0.24718154074102772,77.5000000016863,0,90,3.0,5,3.4769126867423e-11
6.435,0.22574817354072055,77.50000000085505,0,90,3.0,5,1.7629957058948234e-11
6.44,0.18829581422840957,77.50000000042921,0,90,3.0,5,8.849699896149405e-12
6.445,0.14343835532456656,77.5000000002133,0,90,3.0,5,4.3980397788697334e-12
6.45,0.09979255431561854,77.50000000010493,0,90,3.0,5,2.1635660044752906e-12
6.455,0.06340729067170194,77.50000000005112,0,90,3.0,5,1.0539473074346723e-12
6.46,0.03679497683410042,77.50000000002464,0,90,3.0,5,5.080746819826861e-13
6.465,0.019500578284482293,77.50000000001177,0,90,3.0,5,2.4261005575643833e-13
6.47,0.009439396781978427,77.50000000000556,0,90,3.0,5,1.1456585966276254e-13
6.475,0.004178588733610924,77.5000000000026,0,90,3.0,5,5.3620338409937456e-14
6.48,0.0017299316936037381,77.50000000000121,0,90,3.0,5,2.4905621665817945e-14
6.485,0.0008997325756988589,77.50000000000055,0,90,3.0,5,1.1427285234904704e-14
6.49,0.001634769674224814,77.50000000000026,0,90,3.0,5,5.274131646879094e-15
6.495,0.00614904736476635,77.50000000000011,0,90,3.0,5,2.344058509724042e-15
6.5,0.02168080359963608,77.50000000000004,0,90,3.0,5,8.790219411465157e-16
6.505,0.06433400338904088,77.50000000000003,0,90,3.0,5,5.860146274310105e-16
6.51,0.1593410769217493,77.50000000000001,0,90,3.0,5,2.9300731371550523e-16
6.515,0.3291989194808569,77.5,0,90,3.0,5,0.0
6.52,0.5672906802982638,77.5,0,90,3.0,5,0.0
6.525,0.815339152120446,77.5,0,90,3.0,5,0.0
6.53,0.9768711246313155,77.5000028559769,1,90,3.0,5,5.888612169243417e-08
6.535,0.9726380909165361,77.50000532279577,0,90,3.0,5,1.0974836643597264e-07
6.54,0.7921091683291741,77.50001046219916,0,90,3.0,5,2.1571544653177382e-07
6.545,0.49139090102639077,77.50002236973569,0,90,3.0,5,4.612316636845095e-07
6.55,0.15739335672107918,77.50005283830866,0,90,3.0,5,1.0894496631291197e-06
6.555,-0.11102342218909485,77.50013587363745,0,90,3.0,5,2.8015182978772817e-06
6.56,-0.2314207883647528,77.5003669090899,0,90,3.0,5,7.5651358743344485e-06
6.565,-0.2029124434754801,77.50100252957115,0,90,3.0,5,2.0670712807275814e-05
6.57,-0.11151350554305876,77.50269808759987,0,90,3.0,5,5.563067216221545e-05
6.575,-0.039430666652076896,77.50703606177477,0,90,3.0,5,0.00014507343865504256
6.58,-0.006087703519843621,77.51761760128413,0,90,3.0,5,0.0003632495110129813
6.585,0.005350271385530551,77.54214594810216,0,90,3.0,5,0.0008689886206630927
6.59,0.010381647827441833,77.59607148804095,0,90,3.0,5,0.001980855423524708
6.595,0.015115203303506243,77.70836641529843,0,90,3.0,5,0.004296214748421203
6.6,0.021170964062928475,77.9296371645962,0,90,3.0,5,0.00885849823909693
6.605,0.029082821134029553,78.34181317749781,0,90,3.0,5,0.017356972731913653
6.61,0.03923107061708144,79.06694003244453,0,90,3.0,5,0.032308041906072886
6.615,0.051969043308817596,80.27039973466908,0,90,3.0,5,0.05712164401379555
6.62,0.06760532616283861,82.15204812412557,0,90,3.0,5,0.09591851802320765
6.625,0.08636519236693461,84.91878188632971,0,90,3.0,5,0.15296457497587032
6.63,0.10834733138818661,88.73551809123555,0,90,3.0,5,0.23166016682959892
6.635,0.1334809643017884,93.65914328335853,0,90,3.0,5,0.33317821202801096
6.64,0.16148868344343945,99.57021109016665,0,90,3.0,5,0.4550558987663227
6.645,0.191860907532018,106.12601860410251,0,90,3.0,5,0.5902271877134538
6.65,0.22384764873847726,112.76070620171899,0,90,3.0,5,0.7270248701385359
6.655,0.25647215537198226,118.74904589712469,0,90,3.0,5,0.8504957916932926
6.66,0.2885689161419028,123.33095343606797,0,90,3.0,5,0.9449681120838758
6.665,0.31884566517832524,125.86982346258154,0,90,3.0,5,0.9973159476820935
6.67,0.3459657668955683,126.0,0,90,3.0,5,1.0
6.675,0.3686441789190902,123.71659365765862,0,90,3.0,5,0.9529194568589406
6.68,0.3857476379544367,119.37750327034487,0,90,3.0,5,0.8634536756772139
6.685,0.3963882865005728,113.61693373312906,0,90,3.0,5,0.7446790460438981
6.69,0.4,107.1994396772741,0,90,3.0,5,0.6123595809747238
6.695,0.39638828650057273,100.86092501705839,0,90,3.0,5,0.48166855705275036
6.7,0.38574763795443656,95.1817546936844,0,90,3.0,5,0.3645722617254515
6.705,0.36864417891908974,90.51987078315264,0,90,3.0,5,0.26845094398252867
6.71,0.345965766895568,87.00790995248987,0,90,3.0,5,0.1960393804637086
6.715,0.3188456651783249,84.59832904861847,0,90,3.0,5,0.14635729997151478
6.72,0.28856891614190205,83.1310525189016,0,90,3.0,5,0.11610417564745562
6.725,0.2564721553719815,82.3997557140502,0,90,3.0,5,0.10102589101134435
6.73,0.22384764873847685,82.20156942287257,0,90,3.0,5,0.09693957572933126
6.735,0.19186090753201765,82.36525669130226,0,90,3.0,5,0.10031457095468585
6.74,0.16148868344343878,82.7606535757584,0,90,3.0,5,0.1084670840362556
6.745,0.1334809643017881,83.29581260087586,0,90,3.0,5,0.11950129073970851
6.75,0.10834733138818531,83.90842695672737,0,90,3.0,5,0.1321325145716983
6.755,0.08636519236690572,84.5563214845295,0,90,3.0,5,0.14549116462947434
6.76,0.06760532616242629,85.20957635581584,0,90,3.0,5,0.15896033723331632
6.765,0.05196904332202373,85.84509877246532,0,90,3.0,5,0.1720638922157798
6.77,0.03923107185803287,86.44344703944434,0,90,3.0,5,0.18440096988545024
6.775,0.02908287038705761,86.9873203919718,0,90,3.0,5,0.19561485344271767
6.78,0.02117220077308346,87.46110737664404,0,90,3.0,5,0.2053836572503925
6.785,0.0151361834125735,87.85101771835403,0,90,3.0,5,0.21342304573925833
6.79,0.010626454858290009,88.14547665780357,0,90,3.0,5,0.21949436407842413
6.795,0.007326255555493652,88.33558265324804,0,90,3.0,5,0.22341407532470184
6.8,0.004960179211183015,88.4155104714467,0,90,3.0,5,0.2250620715762205
6.805,0.0032978759379303545,88.38279169046189,0,90,3.0,5,0.22438745753529662
6.81,0.002153242296767213,88.23843584842453,0,90,3.0,5,0.22141104842112433
6.815,0.001380616732225004,87.98687694430782,0,90,3.0,5,0.21622426689294483
6.82,0.0008693106590991584,87.63574669193319,0,90,3.0,5,0.20898446787491118
6.825,0.000537524815942247,87.19548983856592,0,90,3.0,5,0.1999070069807406
6.83,0.0003263951340288585,86.67884832356206,0,90,3.0,5,0.18925460460952712
6.835,0.00019463030985187395,86.10024972200065,0,90,3.0,5,0.17732473653609598
6.84,0.00011397219555062695,85.47514083173311,0,90,3.0,5,0.16443589343779616
6.845,6.55403863487943e-05,84.8193091416906,0,90,3.0,5,0.15091359055032155
6.85,3.701184389455385e-05,84.14823329326723,0,90,3.0,5,0.13707697511891184
6.855,2.0525516217290957e-05,83.4764988703321,0,90,3.0,5,0.12322678083158957
6.86,1.1178128483661116e-05,82.81730856425602,0,90,3.0,5,0.10963522812899018
6.865,5.978135409912517e-06,82.18210679415621,0,90,3.0,5,0.096538284415592
6.87,3.1396702713238487e-06,81.58032915007796,0,90,3.0,5,0.0841304979397517
6.875,1.6192875458531019e-06,81.01927748638333,0,90,3.0,5,0.07256242239965631
6.88,8.201353897972012e-07,80.50411293388099,0,90,3.0,5,0.06194047286352556
6.885,4.0791415086824765e-07,80.0379521490593,0,90,3.0,5,0.05232891028988234
6.89,1.9923866938774793e-07,79.62204717610366,0,90,3.0,5,0.043753550022755945
6.895,9.556527981051257e-08,79.25602651946383,0,90,3.0,5,0.03620673236007898
6.9,4.501406988770349e-08,78.93817434270727,0,90,3.0,5,0.029653079231077746
6.905,0.0,78.66572586716714,0,90,3.0,5,0.024035584890044124
6.91,0.0,78.4351596525627,0,90,3.0,5,0.019281642320880477
6.915,0.0,78.24247104050093,0,90,3.0,5,0.01530868124744187
6.92,0.0,78.08341515681951,0,90,3.0,5,0.01202917849112397
6.925,0.0,77.9537120638225,0,90,3.0,5,0.009354887913865843
6.93,0.0,77.84921056697603,0,90,3.0,5,0.007200217875794358
6.935,0.0,77.7660105476462,0,90,3.0,5,0.005484753559715538
6.94,0.0,77.70054635288413,0,90,3.0,5,0.004134976348126429
6.945,0.0,77.64963566223828,0,90,3.0,5,0.003085271386356329
6.95,0.0,77.61049939044275,0,90,3.0,5,0.002278337947273288
6.955,0.0,77.58075865645289,0,90,3.0,5,0.0016651269371729105
6.96,0.0,77.55841477639846,0,90,3.0,5,0.0012044283793497855
6.965,0.0,77.5418177616279,0,90,3.0,5,0.0008622218892349844
6.97,0.0,77.52962806422242,0,90,3.0,5,0.00061088792211179
6.975,0.0,77.52077543867118,0,90,3.0,5,0.0004283595602305116
6.98,0.0,77.51441788504393,0,90,3.0,5,0.000297275980287135
6.985,0.0,77.50990278488175,0,90,3.0,5,0.00020418113158238505
6.99,0.0,77.50673158853434,0,90,3.0,5,0.00013879563988322056
6.995,0.0,77.50452879027938,0,90,3.0,5,9.337711916247929e-05
7.0,0.0,77.50301544414165,0,90,3.0,5,6.217410601345935e-05
7.005,0.0,77.50198712321371,0,90,3.0,5,4.097161265379787e-05
7.01,0.0,77.50129599324023,0,90,3.0,5,2.6721510107915127e-05
7.015,0.0,77.5008365369072,0,90,3.0,5,1.724818365362845e-05
7.02,0.0,77.50053440671559,0,90,3.0,5,1.1018695166751864e-05
7.025,0.0,77.50033788050787,0,90,3.0,5,6.966608409713219e-06
7.03,0.0,77.50021142619804,0,90,3.0,5,4.359303052273596e-06
7.035,0.0,77.5001309359467,0,90,3.0,5,2.6997102412392965e-06
7.04,0.0,77.50008025339538,0,90,3.0,5,1.6547091831267307e-06
7.045,0.0,77.5000486824436,0,90,3.0,5,1.0037617238191797e-06
7.05,0.0,77.50002922710189,0,90,3.0,5,6.026206575398581e-07
7.055,0.0,77.50001736615083,0,90,3.0,5,3.580649655356593e-07
7.06,0.0,77.5000102123529,0,90,3.0,5,2.1056397741565739e-07
7.065,0.0,77.5000059436399,0,90,3.0,5,1.2254927640373652e-07
7.07,0.0,77.50000342360457,0,90,3.0,5,7.058978490397177e-08
7.075,0.001684486749771458,77.50000195172728,0,90,3.0,5,4.024179968406109e-08
7.08,0.004172395771277602,77.500001101182,0,90,3.0,5,2.270478337299416e-08
7.085,0.009438687428818865,77.5000006148986,0,90,3.0,5,1.2678321567851602e-08
7.09,0.019500507867137046,77.50000033982265,0,90,3.0,5,7.006652541096309e-09
7.095,0.03679496976339974,77.50000018586842,0,90,3.0,5,3.832338469476678e-09
7.1,0.06340728953298436,77.50000010061513,0,90,3.0,5,2.0745386622759717e-09
7.105,0.09979255396093453,77.50000005390454,0,90,3.0,5,1.1114338773490858e-09
7.11,0.14343835518453557,77.50000002858195,0,90,3.0,5,5.893185779004665e-10
7.115,0.18829581417209276,77.50000001499902,0,90,3.0,5,3.092580853487946e-10
7.12,0.2257481735193119,77.50000000779002,0,90,3.0,5,1.6061899118868336e-10
7.125,0.24718154073554727,77.50000000400422,0,90,3.0,5,8.256125680024534e-11
7.13,0.24718154074102772,77.50000000203705,0,90,3.0,5,4.20011333845491e-11
7.135,0.22574817354072055,77.50000000102563,0,90,3.0,5,2.1146923845475444e-11
7.14,0.18829581422840957,77.50000000051108,0,90,3.0,5,1.053771503046443e-11
7.145,0.14343835532456656,77.50000000025204,0,90,3.0,5,5.196777716058201e-12
7.15,0.09979255431561854,77.50000000012302,0,90,3.0,5,2.5365643148351288e-12
7.155,0.06340729067170194,77.50000000005943,0,90,3.0,5,1.225356585958243e-12
7.16,0.03679497683410042,77.50000000002841,0,90,3.0,5,5.85721620117295e-13
7.165,0.019500578284482293,77.50000000001344,0,90,3.0,5,2.7718491877486797e-13
7.17,0.009439396781978427,77.5000000000063,0,90,3.0,5,1.298022399759688e-13
7.175,0.004178588733610924,77.50000000000291,0,90,3.0,5,6.006649931167857e-14
7.18,0.0017299316936037381,77.50000000000134,0,90,3.0,5,2.7542687489257492e-14
7.185,0.0008997325756988589,77.50000000000061,0,90,3.0,5,1.2599314489766724e-14
7.19,0.001634769674224814,77.50000000000027,0,90,3.0,5,5.567138960594599e-15
7.195,0.00614904736476635,77.50000000000011,0,90,3.0,5,2.344058509724042e-15
7.2,0.02168080359963608,77.50000000000006,0,90,3.0,5,1.172029254862021e-15
7.205,0.06433400338904088,77.50000000000003,0,90,3.0,5,5.860146274310105e-16
7.21,0.1593410769217493,77.50000000000001,0,90,3.0,5,2.9300731371550523e-16
7.215,0.3291989194808569,77.5,0,90,3.0,5,0.0
7.22,0.5672906802982638,77.5,0,90,3.0,5,0.0
7.225,0.815339152120446,77.5,0,90,3.0,5,0.0
7.23,0.9768711246313155,77.50000285893489,1,90,3.0,6,5.894711116478405e-08
7.235,0.9726380909165361,77.50000618812223,0,90,3.0,6,1.275901490302691e-07
7.24,0.7921091683291741,77.50001468035043,0,90,3.0,6,3.026876377767509e-07
7.245,0.49139090102639077,77.50004011217966,0,90,3.0,6,8.270552507500602e-07
7.25,0.15739335672107918,77.50012586528338,0,90,3.0,6,2.595160482057049e-06
7.255,-0.11102342218909485,77.50042726793068,0,90,3.0,6,8.809648055157877e-06
7.26,-0.2314207883647528,77.50146692328671,0,90,3.0,6,3.0245840963164848e-05
7.265,-0.2029124434754801,77.50487105184348,0,90,3.0,6,0.00010043405862845866
7.27,-0.11151350554305876,77.51528218449549,0,90,3.0,6,0.00031509658753587657
7.275,-0.039430666652076896,77.54479593010373,0,90,3.0,6,0.0009236274248192063
7.28,-0.006087703519843621,77.62204053299997,0,90,3.0,6,0.00251629964948402
7.285,0.005350271385530551,77.80824652760434,0,90,3.0,6,0.006355598507305966
7.29,0.010381647827441833,78.22092533119431,0,90,3.0,6,0.014864439818439355
7.295,0.015115203303506243,79.06031377637058,0,90,3.0,6,0.032171418069496444
7.3,0.021170964062928475,80.6240864071174,0,90,3.0,6,0.06441415272407017
7.305,0.029082821134029553,83.2856052670689,0,90,3.0,6,0.11929083024884335
7.31,0.03923107061708144,87.40944979650192,0,90,3.0,6,0.20431855250519418
7.315,0.051969043308817596,93.19661535878168,0,90,3.0,6,0.3236415537893131
7.32,0.06760532616283861,100.49390932475231,0,90,3.0,6,0.47410122319076925
7.325,0.08636519236693461,108.65132916743002,0,90,3.0,6,0.6422954467511345
7.33,0.10834733138818661,116.53176722628177,0,90,3.0,6,0.8047787056965314
7.335,0.1334809643017884,122.73557070070211,0,90,3.0,6,0.9326921793959199
7.34,0.16148868344343945,126.0,0,90,3.0,6,1.0
7.345,0.191860907532018,125.62298582495731,0,90,3.0,6,0.9922265118547899
7.35,0.22384764873847726,121.71803980938984,0,90,3.0,6,0.9117121610183472
7.355,0.25647215537198226,115.1748489499153,0,90,3.0,6,0.7768010092766041
7.36,0.2885689161419028,107.3452185843005,0,90,3.0,6,0.6153653316350618
7.365,0.31884566517832524,99.60678992267415,0,90,3.0,6,0.45581010149843615
7.37,0.3459657668955683,92.99679555401843,0,90,3.0,6,0.31952155781481306
7.375,0.3686441789190902,88.04208125889988,0,90,3.0,6,0.21736250018350275
7.38,0.3857476379544367,84.79591935806049,0,90,3.0,6,0.15043132697031933
7.385,0.3963882865005728,83.00191711258685,0,90,3.0,6,0.11344158995024438
7.39,0.4,82.28100953608437,0,90,3.0,6,0.09857751620792514
7.395,0.39638828650057273,82.2691592434131,0,90,3.0,6,0.09833318027655875
7.4,0.38574763795443656,82.6836701097863,0,90,3.0,6,0.10687979607806816
7.405,0.36864417891908974,83.33287140328397,0,90,3.0,6,0.12026538975843246
7.41,0.345965766895568,84.09661735200604,0,90,3.0,6,0.13601272890734092
7.415,0.3188456651783249,84.90017530817117,0,90,3.0,6,0.15258093418909632
7.42,0.28856891614190205,85.69329084161134,0,90,3.0,6,0.1689338317858009
7.425,0.2564721553719815,86.43743999716447,0,90,3.0,6,0.18427711334359742
7.43,0.22384764873847685,87.09984541959422,0,90,3.0,6,0.19793495710503542
7.435,0.19186090753201765,87.65172216748766,0,90,3.0,6,0.20931385912345696
7.44,0.16148868344343878,88.06865320462217,0,90,3.0,6,0.21791037535303434
7.445,0.1334809643017881,88.33175555080422,0,90,3.0,6,0.22333516599596326
7.45,0.10834733138818531,88.4288907394673,0,90,3.0,6,0.22533795339107848
7.455,0.08636519236690572,88.35553086478332,0,90,3.0,6,0.22382537865532615
7.46,0.06760532616242629,88.1150913912956,0,90,3.0,6,0.21886786373805375
7.465,0.05196904332202373,87.71866320849443,0,90,3.0,6,0.2106940867730811
7.47,0.03923107185803287,87.18416339903555,0,90,3.0,6,0.19967347214506298
7.475,0.02908287038705761,86.53499269797297,0,90,3.0,6,0.18628850923655602
7.48,0.02117220077308346,85.79833909740718,0,90,3.0,6,0.17109977520427175
7.485,0.0151361834125735,85.0032984901782,0,90,3.0,6,0.15470718536449887
7.49,0.010626454858290009,84.1789923168614,0,90,3.0,6,0.13771118179095662
7.495,0.007326255555493652,83.35284925367858,0,90,3.0,6,0.12067730419955845
7.5,0.004960179211183015,82.54918644393858,0,90,3.0,6,0.10410693698842434
7.505,0.0032978759379303545,81.78818142130838,0,90,3.0,6,0.08841611177955423
7.51,0.002153242296767213,81.08527579059167,0,90,3.0,6,0.07392321217714776
7.515,0.001380616732225004,80.45100306514775,0,90,3.0,6,0.06084542402366484
7.52,0.0008693106590991584,79.89119187830183,0,90,3.0,6,0.04930292532581083
7.525,0.000537524815942247,79.40746627281584,0,90,3.0,6,0.0393292015013575
7.53,0.0003263951340288585,78.99794884579315,0,90,3.0,6,0.03088554321222983
7.535,0.00019463030985187395,78.65806989536343,0,90,3.0,6,0.02387772980130774
7.54,0.00011397219555062695,78.38139429627614,0,90,3.0,6,0.018173078273734877
7.545,6.55403863487943e-05,78.16039438770699,0,90,3.0,6,0.013616379127979106
7.55,3.701184389455385e-05,77.98711800925507,0,90,3.0,6,0.010043670293918974
7.555,2.0525516217290957e-05,77.85372248948764,0,90,3.0,6,0.0072932472059306684
7.56,1.1178128483661116e-05,77.75286506567673,0,90,3.0,6,0.005213712694365561
7.565,5.978135409912517e-06,77.67795601393767,0,90,3.0,6,0.003669196163663384
7.57,3.1396702713238487e-06,77.62329179601988,0,90,3.0,6,0.0025420988870079324
7.575,1.6192875458531019e-06,77.5840917447069,0,90,3.0,6,0.0017338504063277539
7.58,8.201353897972012e-07,77.55646381545465,0,90,3.0,6,0.0011642023805082191
7.585,4.0791415086824765e-07,77.53732370552795,0,90,3.0,6,0.0007695609387206838
7.59,1.9923866938774793e-07,77.52428829121516,0,90,3.0,6,0.0005007895095908698
7.595,9.556527981051257e-08,77.5155599014792,0,90,3.0,6,0.00032082271091119944
7.6,4.501406988770349e-08,77.5098132846989,0,90,3.0,6,0.00020233576698748862
7.605,0.0,77.5060928379677,0,90,3.0,6,0.0001256255251072049
7.61,0.0,77.50372411028097,0,90,3.0,6,7.678577898907617e-05
7.615,0.0,77.50224090327806,0,90,3.0,6,4.62041913002962e-05
7.62,0.0,77.5013274597602,0,90,3.0,6,2.737030433412112e-05
7.625,0.0,77.50077413605054,0,90,3.0,6,1.59615680523253e-05
7.63,0.0,77.50044443770291,0,90,3.0,6,9.163663977530923e-06
7.635,0.0,77.50025118989846,0,90,3.0,6,5.179173164198389e-06
7.64,0.0,77.50013976264815,0,90,3.0,6,2.8817040854907656e-06
7.645,0.001684486749771458,77.50007655573768,0,90,3.0,6,1.578468818104401e-06
7.65,0.004172395771277602,77.50004128212503,0,90,3.0,6,8.511778355686025e-07
7.655,0.009438687428818865,77.50002191512834,0,90,3.0,6,4.518583163536681e-07
7.66,0.019500507867137046,77.50001145311617,0,90,3.0,6,2.361467252121281e-07
7.665,0.03679496976339974,77.50000589251896,0,90,3.0,6,1.2149523621298342e-07
7.67,0.06340728953298436,77.50000298453024,0,90,3.0,6,6.153670599430661e-08
7.675,0.09979255396093453,77.50000148815667,0,90,3.0,6,3.0683642678210616e-08
7.68,0.14343835518453557,77.50000073049794,0,90,3.0,6,1.506181329486279e-08
7.685,0.18829581417209276,77.50000035301001,0,90,3.0,6,7.278556882063396e-09
7.69,0.2257481735193119,77.50000016793945,0,90,3.0,6,3.4626690152079617e-09
7.695,0.24718154073554727,77.50000007865314,0,90,3.0,6,1.6217143183894223e-09
7.7,0.24718154074102772,77.50000003626411,0,90,3.0,6,7.477136435780492e-10
7.705,0.22574817354072055,77.50000001646023,0,90,3.0,6,3.393862693742777e-10
7.71,0.18829581422840957,77.50000000735515,0,90,3.0,6,1.516526743816752e-10
7.715,0.14343835532456656,77.50000000323554,0,90,3.0,6,6.671219819405994e-11
7.72,0.09979255431561854,77.50000000140119,0,90,3.0,6,2.8890521132348817e-11
7.725,0.06340729067170194,77.50000000059738,0,90,3.0,6,1.2317148446658694e-11
7.73,0.03679497683410042,77.50000000025072,0,90,3.0,6,5.1695280358826585e-12
7.735,0.019500578284482293,77.5000000001036,0,90,3.0,6,2.136023316986033e-12
7.74,0.009439396781978427,77.50000000004214,0,90,3.0,6,8.687666851664731e-13
7.745,0.004178588733610924,77.50000000001687,0,90,3.0,6,3.477996813803047e-13
7.75,0.0017299316936037381,77.50000000000665,0,90,3.0,6,1.3712742281885644e-13
7.755,0.0008997325756988589,77.50000000000259,0,90,3.0,6,5.332733109622195e-14
7.76,0.001634769674224814,77.50000000000098,0,90,3.0,6,2.0217504646369862e-14
7.765,0.00614904736476635,77.50000000000037,0,90,3.0,6,7.618190156603136e-15
7.77,0.02168080359963608,77.50000000000014,0,90,3.0,6,2.930073137155052e-15
7.775,0.06433400338904088,77.50000000000004,0,90,3.0,6,8.790219411465157e-16
7.78,0.1593410769217493,77.50000000000001,0,90,3.0,6,2.9300731371550523e-16
7.785,0.3291989194808569,77.5,0,90,3.0,6,0.0
7.79,0.5672906802982638,77.5,0,90,3.0,6,0.0
7.795,0.815339152120446,77.5,0,90,3.0,6,0.0
7.8,0.9768711246313155,77.50000284586159,1,90,3.0,6,5.8677558500516847e-08
7.805,0.9726380909165361,77.50000570245213,0,90,3.0,6,1.1757633254176457e-07
7.81,0.7921091683291741,77.50001225806744,0,90,3.0,6,2.527436586159141e-07
7.815,0.49139090102639077,77.50002942758579,0,90,3.0,6,6.067543461202937e-07
7.82,0.15739335672107918,77.50007969525397,0,90,3.0,6,1.6432011128453615e-06
7.825,-0.11102342218909485,77.50023533387187,0,90,3.0,6,4.8522447808367e-06
7.83,-0.2314207883647528,77.50071883774795,0,90,3.0,6,1.4821396865024148e-05
7.835,-0.2029124434754801,77.50217579271153,0,90,3.0,6,4.4861705392288955e-05
7.84,-0.11151350554305876,77.50635725002037,0,90,3.0,6,0.00013107732000766818
7.845,-0.039430666652076896,77.51768141331813,0,90,3.0,6,0.0003645652230542177
7.85,-0.006087703519843621,77.54648137072928,0,90,3.0,6,0.0009583787779233389
7.855,0.005350271385530551,77.61508024410816,0,90,3.0,6,0.002372788538312508
7.86,0.010381647827441833,77.76784731218491,0,90,3.0,6,0.005522624993503347
7.865,0.015115203303506243,78.08549326951349,0,90,3.0,6,0.012072026175535917
7.87,0.021170964062928475,78.70138007120593,0,90,3.0,6,0.024770723117648087
7.875,0.029082821134029553,79.81333731768606,0,90,3.0,6,0.047697676653320885
7.88,0.03923107061708144,81.67953161509834,0,90,3.0,6,0.08617590958965651
7.885,0.051969043308817596,84.58445788628454,0,90,3.0,6,0.1460712966244235
7.89,0.06760532616283861,88.76559186610127,0,90,3.0,6,0.23228024466188196
7.895,0.08636519236693461,94.30580224572596,0,90,3.0,6,0.34651138650981356
7.9,0.10834733138818661,101.01908127568012,0,90,3.0,6,0.4849295108387654
7.905,0.1334809643017884,108.37758909741606,0,90,3.0,6,0.6366513215962075
7.91,0.16148868344343945,115.53155299925712,0,90,3.0,6,0.7841557319434457
7.915,0.191860907532018,121.44932005335616,0,90,3.0,6,0.9061715474918796
7.92,0.22384764873847726,125.15631195469562,0,90,3.0,6,0.9826043701999098
7.925,0.25647215537198226,126.0,0,90,3.0,6,1.0
7.93,0.2885689161419028,123.8427949295679,0,90,3.0,6,0.9555215449395443
7.935,0.31884566517832524,119.10508764276156,0,90,3.0,6,0.8578368586136405
7.94,0.3459657668955683,112.64051130847515,0,90,3.0,6,0.7245466249170135
7.945,0.3686441789190902,105.4947173494078,0,90,3.0,6,0.5772106669980989
7.95,0.3857476379544367,98.64157127935391,0,90,3.0,6,0.4359086861722456
7.955,0.3963882865005728,92.7872202864701,0,90,3.0,6,0.3152004182777341
7.96,0.4,88.29055850091387,0,90,3.0,6,0.222485742286884
7.965,0.39638828650057273,85.19499150634792,0,90,3.0,6,0.15865961868758593
7.97,0.38574763795443656,83.32841126591062,0,90,3.0,6,0.1201734281631055
7.975,0.36864417891908974,82.41862451624381,0,90,3.0,6,0.10141493847925381
7.98,0.345965766895568,82.1853521137011,0,90,3.0,6,0.09660519822064124
7.985,0.3188456651783249,82.39306572658664,0,90,3.0,6,0.10088795312549777
7.99,0.28856891614190205,82.86818610804693,0,90,3.0,6,0.11068424965045211
7.995,0.2564721553719815,83.49352503596295,0,90,3.0,6,0.12357783579305044
8.0,0.22384764873847685,84.19327652565775,0,90,3.0,6,0.13800570155995362
8.005,0.19186090753201765,84.91762339581283,0,90,3.0,6,0.1529406885734603
8.01,0.16148868344343878,85.63113017574868,0,90,3.0,6,0.16765216857213774
8.015,0.1334809643017881,86.30565243766684,0,90,3.0,6,0.18155984407560488
8.02,0.10834733138818531,86.91685513029627,0,90,3.0,6,0.19416196144940762
8.025,0.08636519236690572,87.44305757969148,0,90,3.0,6,0.2050114964884842
8.03,0.06760532616242629,87.86533772288807,0,90,3.0,6,0.2137183035647025
8.035,0.05196904332202373,88.16817973634383,0,90,3.0,6,0.21996246879059445
8.04,0.03923107185803287,88.3402384667518,0,90,3.0,6,0.22351007147941854
8.045,0.02908287038705761,88.37498162664085,0,90,3.0,6,0.22422642529156384
8.05,0.02117220077308346,88.27108106749418,0,90,3.0,6,0.22208414572152949
8.055,0.0151361834125735,88.03249098378444,0,90,3.0,6,0.21716476255225653
8.06,0.010626454858290009,87.66819648788929,0,90,3.0,6,0.20965353583276886
8.065,0.007326255555493652,87.19165162443677,0,90,3.0,6,0.1998278685450881
8.07,0.004960179211183015,86.61995488836745,0,90,3.0,6,0.18804030697664836
8.075,0.0032978759379303545,85.97283240911523,0,90,3.0,6,0.1746975754456748
8.08,0.002153242296767213,85.27151291372265,0,90,3.0,6,0.16023737966438445
8.085,0.001380616732225004,84.53758349445417,0,90,3.0,6,0.14510481431864264
8.09,0.0008693106590991584,83.79191110989592,0,90,3.0,6,0.1297301259772355
8.095,0.000537524815942247,83.05370269529314,0,90,3.0,6,0.11450933392356989
8.1,0.0003263951340288585,82.33975866855332,0,90,3.0,6,0.09978883852687248
8.105,0.00019463030985187395,81.66395297564524,0,90,3.0,6,0.08585470052876794
8.11,0.00011397219555062695,81.03695029627794,0,90,3.0,6,0.07292681023253478
8.115,6.55403863487943e-05,80.46615012462807,0,90,3.0,6,0.06115773452841386
8.12,3.701184389455385e-05,79.95583016691808,0,90,3.0,6,0.05063567354470261
8.125,2.0525516217290957e-05,79.50744919237871,0,90,3.0,6,0.04139070499749928
8.13,1.1178128483661116e-05,79.12006270877623,0,90,3.0,6,0.03340335482012848
8.135,5.978135409912517e-06,78.7908034547283,0,90,3.0,6,0.02661450422120217
8.14,3.1396702713238487e-06,78.51538196065025,0,90,3.0,6,0.020935710528871037
8.145,1.6192875458531019e-06,78.28856917829346,0,90,3.0,6,0.016259158315329016
8.15,8.201353897972012e-07,78.1046320774523,0,90,3.0,6,0.012466640772212247
8.155,4.0791415086824765e-07,77.95770283268605,0,90,3.0,6,0.009437171807959853
8.16,1.9923866938774793e-07,77.8420716221398,0,90,3.0,6,0.007053023136903054
8.165,9.556527981051257e-08,77.75240126350023,0,90,3.0,6,0.005204149762891385
8.17,4.501406988770349e-08,77.68386837283725,0,90,3.0,6,0.0037911004708711957
8.175,0.0,77.63224022257143,0,90,3.0,6,0.0027266025272458896
8.18,0.0,77.593899037566,0,90,3.0,6,0.0019360626302268875
8.185,0.0,77.56582634489853,0,90,3.0,6,0.0013572442247118605
8.19,0.0,77.54555954431204,0,90,3.0,6,0.0009393720476709601
8.195,0.0,77.53113149901236,0,90,3.0,6,0.0006418865775744446
8.2,0.0,77.5210020517766,0,90,3.0,6,0.00043303199539392604
8.205,0.0,77.51398828420264,0,90,3.0,6,0.0002884182309822584
8.21,0.0,77.50919831335803,0,90,3.0,6,0.00018965594552633241
8.215,0.0,77.50597163128171,0,90,3.0,6,0.0001231264181795915
8.22,0.0,77.50382753172264,0,90,3.0,6,7.891817984814552e-05
8.225,0.0,77.50242206416318,0,90,3.0,6,4.9939467282149394e-05
8.23,0.0,77.50151319019876,0,90,3.0,6,3.119979791266787e-05
8.235,0.0,77.5009333454743,0,90,3.0,6,1.9244236583388782e-05
8.24,0.0,77.50056837159171,0,90,3.0,6,1.171900189095928e-05
8.245,0.0,77.50034171443933,0,90,3.0,6,7.045658542878787e-06
8.25,0.0,77.50020283146561,0,90,3.0,6,4.182092074523604e-06
8.255,0.0,77.50011886345717,0,90,3.0,6,2.450792931437352e-06
8.26,0.0,77.50006877053725,0,90,3.0,6,1.4179492217356982e-06
8.265,0.0,77.50003928235421,0,90,3.0,6,8.099454475996026e-07
8.27,0.0,77.50002215305511,0,90,3.0,6,4.567640229483398e-07
8.275,0.001684486749771458,77.50001233419412,0,90,3.0,6,2.5431328092204194e-07
8.28,0.004172395771277602,77.50000677998857,0,90,3.0,6,1.39793578701409e-07
8.285,0.009438687428818865,77.50000367949464,0,90,3.0,6,7.586586885858215e-08
8.29,0.019500507867137046,77.50000197146203,0,90,3.0,6,4.064870157768363e-08
8.295,0.03679496976339974,77.50000104286885,0,90,3.0,6,2.150245042272574e-08
8.3,0.06340728953298436,77.50000054464309,0,90,3.0,6,1.1229754354363397e-08
8.305,0.09979255396093453,77.50000028082472,0,90,3.0,6,5.7902004474018806e-09
8.31,0.14343835518453557,77.50000014295512,0,90,3.0,6,2.9475281688477126e-09
8.315,0.18829581417209276,77.50000007184642,0,90,3.0,6,1.481369382258656e-09
8.32,0.2257481735193119,77.50000003564934,0,90,3.0,6,7.350378541794027e-10
8.325,0.24718154073554727,77.5000000174638,0,90,3.0,6,3.6007844586886665e-10
8.33,0.24718154074102772,77.50000000844632,0,90,3.0,6,1.7415094795800654e-10
8.335,0.22574817354072055,77.50000000403308,0,90,3.0,6,8.315635465440153e-11
8.34,0.18829581422840957,77.50000000190128,0,90,3.0,6,3.920174150931116e-11
8.345,0.14343835532456656,77.50000000088491,0,90,3.0,6,1.824556542506451e-11
8.35,0.09979255431561854,77.50000000040662,0,90,3.0,6,8.383818267341751e-12
8.355,0.06340729067170194,77.50000000018447,0,90,3.0,6,3.803527939340973e-12
8.36,0.03679497683410042,77.50000000008262,0,90,3.0,6,1.7035445219419474e-12
8.365,0.019500578284482293,77.50000000003654,0,90,3.0,6,7.53321803562564e-13
8.37,0.009439396781978427,77.50000000001594,0,90,3.0,6,3.2875420598879686e-13
8.375,0.004178588733610924,77.50000000000688,0,90,3.0,6,1.4181553983830453e-13
8.38,0.0017299316936037381,77.50000000000293,0,90,3.0,6,6.035950662539408e-14
8.385,0.0008997325756988589,77.50000000000122,0,90,3.0,6,2.519862897953345e-14
8.39,0.001634769674224814,77.50000000000051,0,90,3.0,6,1.0548263293758189e-14
8.395,0.00614904736476635,77.50000000000021,0,90,3.0,6,4.395109705732579e-15
8.4,0.02168080359963608,77.50000000000009,0,90,3.0,6,1.7580438822930315e-15
8.405,0.06433400338904088,77.50000000000003,0,90,3.0,6,5.860146274310105e-16
8.41,0.1593410769217493,77.50000000000001,0,90,3.0,6,2.9300731371550523e-16
8.415,0.3291989194808569,77.5,0,90,3.0,6,0.0
8.42,0.5672906802982638,77.5,0,90,3.0,6,0.0
8.425,0.815339152120446,77.5,0,90,3.0,6,0.0
8.43,0.9768711246313155,77.50000284170193,1,90,3.0,6,5.859179232971918e-08
8.435,0.9726380909165361,77.50000503285692,0,90,3.0,7,1.0377024574791932e-07
8.44,0.7921091683291741,77.50000930409628,0,90,3.0,7,1.9183703672105056e-07
8.445,0.49139090102639077,77.50001840464809,0,90,3.0,7,3.7947728016951796e-07
8.45,0.15739335672107918,77.50003958615409,0,90,3.0,7,8.162093626403297e-07
8.455,-0.11102342218909485,77.5000921414233,0,90,3.0,7,1.8998231607182197e-06
8.46,-0.2314207883647528,77.50022652678895,0,90,3.0,7,4.6706554422650425e-06
8.465,-0.2029124434754801,77.50057050667888,0,90,3.0,7,1.1763024306875786e-05
8.47,-0.11151350554305876,77.5014346633525,0,90,3.0,7,2.958068768037068e-05
8.475,-0.039430666652076896,77.5035402483488,0,90,3.0,7,7.299481131543328e-05
8.48,-0.006087703519843621,77.5084824168074,0,90,3.0,7,0.00017489519190508197
8.485,0.005350271385530551,77.51961353181807,0,90,3.0,7,0.00040440271789827993
8.49,0.010381647827441833,77.54361522582357,0,90,3.0,7,0.0008992830066715927
8.495,0.015115203303506243,77.59309207295647,0,90,3.0,7,0.0019194241846694053
8.5,0.021170964062928475,77.69049761660041,0,90,3.0,7,0.003927785909286813
8.505,0.029082821134029553,77.8734934172902,0,90,3.0,7,0.0077008952018599135
8.51,0.03923107061708144,78.20133133287578,0,90,3.0,7,0.014460439853108902
8.515,0.051969043308817596,78.76097869260391,0,90,3.0,7,0.02599956067224564
8.52,0.06760532616283861,79.67056732260144,0,90,3.0,7,0.044753965414462735
8.525,0.08636519236693461,81.07668200469112,0,90,3.0,7,0.07374602071528087
8.53,0.10834733138818661,83.14162477864075,0,90,3.0,7,0.1163221603843453
8.535,0.1334809643017884,86.01784071349742,0,90,3.0,7,0.1756255817215963
8.54,0.16148868344343945,89.80969422797408,0,90,3.0,7,0.25380812841183664
8.545,0.191860907532018,94.52758547167707,0,90,3.0,7,0.35108423652942417
8.55,0.22384764873847726,100.04479939843002,0,90,3.0,7,0.46484122470989725
8.555,0.25647215537198226,106.07132404484602,0,90,3.0,7,0.589099464842186
8.56,0.2885689161419028,112.15872126191934,0,90,3.0,7,0.7146128095241101
8.565,0.31884566517832524,117.74445800121651,0,90,3.0,7,0.8297826392003405
8.57,0.3459657668955683,122.23346230346327,0,90,3.0,7,0.922339428937387
8.575,0.3686441789190902,125.10210180274234,0,90,3.0,7,0.9814866351080894
8.58,0.3857476379544367,126.0,0,90,3.0,7,1.0
8.585,0.3963882865005728,124.82253010733184,0,90,3.0,7,0.9757222702542648
