Time,ECG,Pressure,R_Peaks,mean_hr,hrv_scale,Phase_Bin,Normalized_Pressure
0.0,0.001684486749771458,77.5,0,90,1.0,0,0.0
0.005,0.004172395771277602,77.5,0,90,1.0,0,0.0
0.01,0.009438687428818865,77.5,0,90,1.0,0,0.0
0.015,0.019500507867137046,77.5,0,90,1.0,0,0.0
0.02,0.03679496976339974,77.5,0,90,1.0,0,0.0
0.025,0.06340728953298436,77.5,0,90,1.0,0,0.0
0.03,0.09979255396093453,77.5,0,90,1.0,0,0.0
0.035,0.14343835518453557,77.5,0,90,1.0,0,0.0
0.04,0.18829581417209276,77.5,0,90,1.0,0,0.0
0.045,0.2257481735193119,77.5,0,90,1.0,0,0.0
0.05,0.24718154073554727,77.5,0,90,1.0,0,0.0
0.055,0.24718154074102772,77.5,0,90,1.0,0,0.0
0.06,0.22574817354072055,77.5,0,90,1.0,0,0.0
0.065,0.18829581422840957,77.5,0,90,1.0,0,0.0
0.07,0.14343835532456656,77.5,0,90,1.0,0,0.0
0.075,0.09979255431561854,77.5,0,90,1.0,0,0.0
0.08,0.06340729067170194,77.5,0,90,1.0,0,0.0
0.085,0.03679497683410042,77.5,0,90,1.0,0,0.0
0.09,0.019500578284482293,77.5,0,90,1.0,0,0.0
0.095,0.009439396781978427,77.5,0,90,1.0,0,0.0
0.1,0.004178588733610924,77.5,0,90,1.0,0,0.0
0.105,0.0017299316936037381,77.5,0,90,1.0,0,0.0
0.11,0.0008997325756988589,77.5,0,90,1.0,0,0.0
0.115,0.001634769674224814,77.5,0,90,1.0,0,0.0
0.12,0.00614904736476635,77.5,0,90,1.0,0,0.0
0.125,0.02168080359963608,77.5,0,90,1.0,0,0.0
0.13,0.06433400338904088,77.5,0,90,1.0,0,0.0
0.135,0.1593410769217493,77.5,0,90,1.0,0,0.0
0.14,0.3291989194808569,77.5,0,90,1.0,0,0.0
0.145,0.5672906802982638,77.5,0,90,1.0,0,0.0
0.15,0.815339152120446,77.5,0,90,1.0,0,0.0
0.155,0.9768711246313155,77.5,0,90,1.0,0,0.0
0.16,0.9726380909165361,77.5,0,90,1.0,0,0.0
0.165,0.7921091683291741,77.5,0,90,1.0,0,0.0
0.17,0.49139090102639077,77.5,0,90,1.0,0,0.0
0.175,0.15739335672107918,77.5,0,90,1.0,0,0.0
0.18,-0.11102342218909485,77.5,0,90,1.0,0,0.0
0.185,-0.2314207883647528,77.5,0,90,1.0,0,0.0
0.19,-0.2029124434754801,77.5,0,90,1.0,0,0.0
0.195,-0.11151350554305876,77.5,0,90,1.0,0,0.0
0.2,-0.039430666652076896,77.5,0,90,1.0,0,0.0
0.205,-0.006087703519843621,77.5,0,90,1.0,0,0.0
0.21,0.005350271385530551,77.5,0,90,1.0,0,0.0
0.215,0.010381647827441833,77.5,0,90,1.0,0,0.0
0.22,0.015115203303506243,77.5,0,90,1.0,0,0.0
0.225,0.021170964062928475,77.5,0,90,1.0,0,0.0
0.23,0.029082821134029553,77.5,0,90,1.0,0,0.0
0.235,0.03923107061708144,77.5,0,90,1.0,0,0.0
0.24,0.051969043308817596,77.5,0,90,1.0,0,0.0
0.245,0.06760532616283861,77.5,0,90,1.0,0,0.0
0.25,0.08636519236693461,77.5,0,90,1.0,0,0.0
0.255,0.10834733138818661,77.5,0,90,1.0,0,0.0
0.26,0.1334809643017884,77.5,0,90,1.0,0,0.0
0.265,0.16148868344343945,77.5,0,90,1.0,0,0.0
0.27,0.191860907532018,77.5,0,90,1.0,0,0.0
0.275,0.22384764873847726,77.5,0,90,1.0,0,0.0
0.28,0.25647215537198226,77.5,0,90,1.0,0,0.0
0.285,0.2885689161419028,77.5,0,90,1.0,0,0.0
0.29,0.31884566517832524,77.5,0,90,1.0,0,0.0
0.295,0.3459657668955683,77.5,0,90,1.0,0,0.0
0.3,0.3686441789190902,77.5,0,90,1.0,0,0.0
0.305,0.3857476379544367,77.5,0,90,1.0,0,0.0
0.31,0.3963882865005728,77.5,0,90,1.0,0,0.0
0.315,0.4,77.5,0,90,1.0,0,0.0
0.32,0.39638828650057273,77.5,0,90,1.0,0,0.0
0.325,0.38574763795443656,77.5,0,90,1.0,0,0.0
0.33,0.36864417891908974,77.5,0,90,1.0,0,0.0
0.335,0.345965766895568,77.5,0,90,1.0,0,0.0
0.34,0.3188456651783249,77.5,0,90,1.0,0,0.0
0.345,0.28856891614190205,77.5,0,90,1.0,0,0.0
0.35,0.2564721553719815,77.5,0,90,1.0,0,0.0
0.355,0.22384764873847685,77.5,0,90,1.0,0,0.0
0.36,0.19186090753201765,77.5,0,90,1.0,0,0.0
0.365,0.16148868344343878,77.5,0,90,1.0,0,0.0
0.37,0.1334809643017881,77.5,0,90,1.0,0,0.0
0.375,0.10834733138818531,77.5,0,90,1.0,0,0.0
0.38,0.08636519236690572,77.5,0,90,1.0,0,0.0
0.385,0.06760532616242629,77.5,0,90,1.0,0,0.0
0.39,0.05196904332202373,77.5,0,90,1.0,0,0.0
0.395,0.03923107185803287,77.5,0,90,1.0,0,0.0
0.4,0.02908287038705761,77.5,0,90,1.0,0,0.0
0.405,0.02117220077308346,77.5,0,90,1.0,0,0.0
0.41,0.0151361834125735,77.5,0,90,1.0,0,0.0
0.415,0.010626454858290009,77.5,0,90,1.0,0,0.0
0.42,0.007326255555493652,77.5,0,90,1.0,0,0.0
0.425,0.004960179211183015,77.5,0,90,1.0,0,0.0
0.43,0.0032978759379303545,77.5,0,90,1.0,0,0.0
0.435,0.002153242296767213,77.5,0,90,1.0,0,0.0
0.44,0.001380616732225004,77.5,0,90,1.0,0,0.0
0.445,0.0008693106590991584,77.5,0,90,1.0,0,0.0
0.45,0.000537524815942247,77.5,0,90,1.0,0,0.0
0.455,0.0003263951340288585,77.5,0,90,1.0,0,0.0
0.46,0.00019463030985187395,77.5,0,90,1.0,0,0.0
0.465,0.00011397219555062695,77.5,0,90,1.0,0,0.0
0.47,6.55403863487943e-05,77.5,0,90,1.0,0,0.0
0.475,3.701184389455385e-05,77.5,0,90,1.0,0,0.0
0.48,2.0525516217290957e-05,77.5,0,90,1.0,0,0.0
0.485,1.1178128483661116e-05,77.5,0,90,1.0,0,0.0
0.49,5.978135409912517e-06,77.5,0,90,1.0,0,0.0
0.495,3.1396702713238487e-06,77.5,0,90,1.0,0,0.0
0.5,1.6192875458531019e-06,77.5,0,90,1.0,0,0.0
0.505,8.201353897972012e-07,77.5,0,90,1.0,0,0.0
0.51,4.0791415086824765e-07,77.5,0,90,1.0,0,0.0
0.515,1.9923866938774793e-07,77.5,0,90,1.0,0,0.0
0.52,9.556527981051257e-08,77.5,0,90,1.0,0,0.0
0.525,4.501406988770349e-08,77.5,0,90,1.0,0,0.0
0.53,0.0,77.5,0,90,1.0,0,0.0
0.535,0.0,77.5,0,90,1.0,0,0.0
0.54,0.0,77.5,0,90,1.0,0,0.0
0.545,0.0,77.5,0,90,1.0,0,0.0
0.55,0.0,77.5,0,90,1.0,0,0.0
0.555,0.0,77.5,0,90,1.0,0,0.0
0.56,0.0,77.5,0,90,1.0,0,0.0
0.565,0.0,77.5,0,90,1.0,0,0.0
0.57,0.0,77.5,0,90,1.0,0,0.0
0.575,0.0,77.5,0,90,1.0,0,0.0
0.58,0.0,77.5,0,90,1.0,0,0.0
0.585,0.0,77.5,0,90,1.0,0,0.0
0.59,0.0,77.5,0,90,1.0,0,0.0
0.595,0.0,77.5,0,90,1.0,0,0.0
0.6,0.0,77.5,0,90,1.0,0,0.0
0.605,0.0,77.5,0,90,1.0,0,0.0
0.61,0.0,77.5,0,90,1.0,0,0.0
0.615,0.0,77.5,0,90,1.0,0,0.0
0.62,0.0,77.5,0,90,1.0,0,0.0
0.625,0.0,77.5,0,90,1.0,0,0.0
0.63,0.0,77.5,0,90,1.0,0,0.0
0.635,0.0,77.5,0,90,1.0,0,0.0
0.64,0.0,77.5,0,90,1.0,0,0.0
0.645,0.0,77.5,0,90,1.0,0,0.0
0.65,0.0,77.5,0,90,1.0,0,0.0
0.655,0.0,77.5,0,90,1.0,0,0.0
0.66,0.0,77.5,0,90,1.0,0,0.0
0.665,0.001684486749771458,77.5,0,90,1.0,0,0.0
0.67,0.004172395771277602,77.5,0,90,1.0,0,0.0
0.675,0.009438687428818865,77.5,0,90,1.0,0,0.0
0.68,0.019500507867137046,77.5,0,90,1.0,0,0.0
0.685,0.03679496976339974,77.5,0,90,1.0,0,0.0
0.69,0.06340728953298436,77.5,0,90,1.0,0,0.0
0.695,0.09979255396093453,77.5,0,90,1.0,0,0.0
0.7,0.14343835518453557,77.5,0,90,1.0,0,0.0
0.705,0.18829581417209276,77.5,0,90,1.0,0,0.0
0.71,0.2257481735193119,77.5,0,90,1.0,0,0.0
0.715,0.24718154073554727,77.5,0,90,1.0,0,0.0
0.72,0.24718154074102772,77.5,0,90,1.0,0,0.0
0.725,0.22574817354072055,77.5,0,90,1.0,0,0.0
0.73,0.18829581422840957,77.5,0,90,1.0,0,0.0
0.735,0.14343835532456656,77.5,0,90,1.0,0,0.0
0.74,0.09979255431561854,77.5,0,90,1.0,0,0.0
0.745,0.06340729067170194,77.5,0,90,1.0,0,0.0
0.75,0.03679497683410042,77.5,0,90,1.0,0,0.0
0.755,0.019500578284482293,77.5,0,90,1.0,0,0.0
0.76,0.009439396781978427,77.5,0,90,1.0,0,0.0
0.765,0.004178588733610924,77.5,0,90,1.0,0,0.0
0.77,0.0017299316936037381,77.5,0,90,1.0,0,0.0
0.775,0.0008997325756988589,77.5,0,90,1.0,0,0.0
0.78,0.001634769674224814,77.5,0,90,1.0,0,0.0
0.785,0.00614904736476635,77.5,0,90,1.0,0,0.0
0.79,0.02168080359963608,77.5,0,90,1.0,0,0.0
0.795,0.06433400338904088,77.5,0,90,1.0,0,0.0
0.8,0.1593410769217493,77.5,0,90,1.0,0,0.0
0.805,0.3291989194808569,77.5,0,90,1.0,0,0.0
0.81,0.5672906802982638,77.5,0,90,1.0,0,0.0
0.815,0.815339152120446,77.5,0,90,1.0,0,0.0
0.82,0.9768711246313155,77.50000284143212,1,90,1.0,0,5.8586229292860976e-08
0.825,0.9726380909165361,77.50000583146736,0,90,1.0,0,1.202364404603547e-07
0.83,0.7921091683291741,77.50001291995002,0,90,1.0,0,2.6639072213640117e-07
0.835,0.49139090102639077,77.50003226688011,0,90,1.0,0,6.652964971509232e-07
0.84,0.15739335672107918,77.50009146729056,0,90,1.0,0,1.8859235166891051e-06
0.845,-0.11102342218909485,77.50028231969486,0,90,1.0,0,5.821024636312247e-06
0.85,-0.2314207883647528,77.50089563317056,0,90,1.0,0,1.8466663310466604e-05
0.855,-0.2029124434754801,77.50279477482674,0,90,1.0,0,5.7624223231740184e-05
0.86,-0.11151350554305876,77.50836230615555,0,90,1.0,0,0.00017241868361952817
0.865,-0.039430666652076896,77.52367979111813,0,90,1.0,0,0.00048824311583767037
0.87,-0.006087703519843621,77.5630506413428,0,90,1.0,0,0.001300013223562846
0.875,0.005350271385530551,77.65735119887681,0,90,1.0,0,0.0032443546160167086
0.88,0.010381647827441833,77.86746710715887,0,90,1.0,0,0.007576641384719037
0.885,0.015115203303506243,78.30236463021275,0,90,1.0,0,0.016543600622943303
0.89,0.021170964062928475,79.13733108826858,0,90,1.0,0,0.03375940388182642
0.895,0.029082821134029553,80.62181224102206,0,90,1.0,0,0.06436726270148568
0.9,0.03923107061708144,83.06062494683303,0,90,1.0,0,0.11465206075944392
0.905,0.051969043308817596,86.75239811914301,0,90,1.0,0,0.19077109524006206
0.91,0.06760532616283861,91.8807685365827,0,90,1.0,0,0.2965106914759321
0.915,0.08636519236693461,98.378581699193,0,90,1.0,0,0.43048622060191766
0.92,0.10834733138818661,105.81484382460435,0,90,1.0,0,0.5838112128784403
0.925,0.1334809643017884,113.37028529184028,0,90,1.0,0,0.7395935111719645
0.93,0.16148868344343945,119.95121217066642,0,90,1.0,0,0.8752827251683799
0.935,0.191860907532018,124.43853022744858,0,90,1.0,0,0.9678047469577027
0.94,0.22384764873847726,126.0,0,90,1.0,0,1.0
0.945,0.25647215537198226,124.34766027518786,0,90,1.0,0,0.9659311396945951
0.95,0.2885689161419028,119.83188579232352,0,90,1.0,0,0.872822387470588
0.955,0.31884566517832524,113.33063921599614,0,90,1.0,0,0.7387760663091988
0.96,0.3459657668955683,105.98251867436208,0,90,1.0,0,0.5872684262755069
0.965,0.3686441789190902,98.87536492166085,0,90,1.0,0,0.4407291736424917
0.97,0.3857476379544367,92.80643509047863,0,90,1.0,0,0.3155965998036831
0.975,0.3963882865005728,88.18058983620915,0,90,1.0,0,0.22021834713833302
0.98,0.4,85.04411319426126,0,90,1.0,0,0.1555487256548713
0.985,0.39638828650057273,83.20164974082076,0,90,1.0,0,0.11755978847053104
0.99,0.38574763795443656,82.35075838790847,0,90,1.0,0,0.10001563686409218
0.995,0.36864417891908974,82.18664603062561,0,90,1.0,0,0.09663187692011567
1.0,0.345965766895568,82.4593416048419,0,90,1.0,0,0.10225446607921435
1.005,0.3188456651783249,82.98936010076446,0,90,1.0,0,0.11318268248998882
1.01,0.28856891614190205,83.65844156520596,0,90,1.0,0,0.12697817660218477
1.015,0.2564721553719815,84.39128642988611,0,90,1.0,0,0.14208837999765173
1.02,0.22384764873847685,85.13833014088996,0,90,1.0,0,0.15749134311113325
1.025,0.19186090753201765,85.86358501918068,0,90,1.0,0,0.1724450519418696
1.03,0.16148868344343878,86.53774164025361,0,90,1.0,0,0.1863451884588374
1.035,0.1334809643017881,87.13514770436207,0,90,1.0,0,0.1986628392651973
1.04,0.10834733138818531,87.63311023993182,0,90,1.0,0,0.20893010803983142
1.045,0.08636519236690572,88.01234649405333,0,90,1.0,0,0.21674941224852232
1.05,0.06760532616242629,88.25784561540895,0,90,1.0,0,0.22181124980224648
1.055,0.05196904332202373,88.35972160168467,0,90,1.0,0,0.22391178560174574
1.06,0.03923107185803287,88.31383084039841,0,90,1.0,0,0.22296558433811153
1.065,0.02908287038705761,88.12203891912183,0,90,1.0,0,0.21901111173447083
1.07,0.02117220077308346,87.79209127073761,0,90,1.0,0,0.21220806743788898
1.075,0.0151361834125735,87.33709330329839,0,90,1.0,0,0.20282666604738944
1.08,0.010626454858290009,86.77464665719775,0,90,1.0,0,0.19122982798345875
1.085,0.007326255555493652,86.12572038682296,0,90,1.0,0,0.1778499048829477
1.09,0.004960179211183015,85.41335773775471,0,90,1.0,0,0.16316201521143728
1.095,0.0032978759379303545,84.6613292794557,0,90,1.0,0,0.1476562738032103
1.1,0.002153242296767213,83.89284106707322,0,90,1.0,0,0.13181115602212826
1.105,0.001380616732225004,83.12939330715007,0,90,1.0,0,0.11606996509587768
1.11,0.0008693106590991584,82.38986307038944,0,90,1.0,0,0.10082191897710183
1.115,0.000537524815942247,81.68985722228209,0,90,1.0,0,0.08638880870684713
1.12,0.0003263951340288585,81.04135260089133,0,90,1.0,0,0.07301757939982123
1.125,0.00019463030985187395,80.45261306492628,0,90,1.0,0,0.060878619895387266
1.13,0.00011397219555062695,79.92835023724436,0,90,1.0,0,0.050069077056584727
1.135,6.55403863487943e-05,79.47007850466264,0,90,1.0,0,0.040620175353868825
1.14,3.701184389455385e-05,79.07660594892458,0,90,1.0,0,0.03250733915308413
1.145,2.0525516217290957e-05,78.74460118423498,0,90,1.0,0,0.025661880087319185
1.15,1.1178128483661116e-05,78.46918052638576,0,90,1.0,0,0.01998310363681971
1.155,5.978135409912517e-06,78.2444689160559,0,90,1.0,0,0.015349874557853478
1.16,3.1396702713238487e-06,78.06409971428411,0,90,1.0,0,0.0116309219440023
1.165,1.6192875458531019e-06,77.92163107405308,0,90,1.0,0,0.008693424207280032
1.17,8.201353897972012e-07,77.8108685318973,0,90,1.0,0,0.006409660451490697
1.175,4.0791415086824765e-07,77.72609363393019,0,90,1.0,0,0.004661724410931766
1.18,1.9923866938774793e-07,77.66220615385751,0,90,1.0,0,0.0033444567805672376
1.185,9.556527981051257e-08,77.6147925595831,0,90,1.0,0,0.0023668568986204967
1.19,4.501406988770349e-08,77.58013598383405,0,90,1.0,0,0.001652288326475351
1.195,0.0,77.55518344728331,0,90,1.0,0,0.0011378030367693226
1.2,0.0,77.53748499883328,0,90,1.0,0,0.0007728865738820285
1.205,0.0,77.52511733723763,0,90,1.0,1,0.0005178832420130192
1.21,0.0,77.51660187395179,0,90,1.0,1,0.0003423066794182526
1.215,0.0,77.51082450507081,0,90,1.0,1,0.00022318567156319368
1.22,0.0,77.5069618779409,0,90,1.0,1,0.000143543875070011
1.225,0.0,77.5044168452331,0,90,1.0,1,9.106897387824837e-05
1.23,0.0,77.50276417401062,0,90,1.0,1,5.699327856952372e-05
1.235,0.0,77.50170642025451,0,90,1.0,1,3.518392277334391e-05
1.24,0.0,77.50103913993615,0,90,1.0,1,2.1425565693892532e-05
1.245,0.0,77.50062420823656,0,90,1.0,1,1.2870272918739032e-05
1.25,0.0,77.50036987278257,0,90,1.0,1,7.626242939602552e-06
1.255,0.0,77.50021619352097,0,90,1.0,1,4.4575983705135985e-06
1.26,0.0,77.5001246523284,0,90,1.0,1,2.5701511009343053e-06
1.265,0.0,77.50007089662091,0,90,1.0,1,1.4617859981804828e-06
1.27,0.0,77.5000397757244,0,90,1.0,1,8.201180289290147e-07
1.275,0.001684486749771458,77.50002201294153,0,90,1.0,1,4.5387508305690605e-07
1.28,0.004172395771277602,77.50001201726069,0,90,1.0,1,2.4777857086603747e-07
1.285,0.009438687428818865,77.50000647143071,0,90,1.0,1,1.3343156100295487e-07
1.29,0.019500507867137046,77.50000343765706,0,90,1.0,1,7.087952694418323e-08
1.295,0.03679496976339974,77.50000180132557,0,90,1.0,1,3.714073333876794e-08
1.3,0.06340728953298436,77.50000093108493,0,90,1.0,1,1.9197627350352085e-08
1.305,0.09979255396093453,77.50000047473779,0,90,1.0,1,9.788408013114397e-09
1.31,0.14343835518453557,77.50000023877328,0,90,1.0,1,4.923160454335133e-09
1.315,0.18829581417209276,77.50000011846365,0,90,1.0,1,2.4425494021417445e-09
1.32,0.2257481735193119,77.50000005797648,0,90,1.0,1,1.1953913139991856e-09
1.325,0.24718154073554727,77.50000002798892,0,90,1.0,1,5.770910896918047e-10
1.33,0.24718154074102772,77.50000001332869,0,90,1.0,1,2.7481829870198784e-10
1.335,0.22574817354072055,77.50000000626119,0,90,1.0,1,1.290966783645419e-10
1.34,0.18829581422840957,77.5000000029013,0,90,1.0,1,5.982066617547126e-11
1.345,0.14343835532456656,77.50000000132616,0,90,1.0,1,2.734344251593095e-11
1.35,0.09979255431561854,77.50000000059795,0,90,1.0,1,1.2328868739207313e-11
1.355,0.06340729067170194,77.50000000026596,0,90,1.0,1,5.483631876185681e-12
1.36,0.03679497683410042,77.50000000011669,0,90,1.0,1,2.4058830529180133e-12
1.365,0.019500578284482293,77.5000000000505,0,90,1.0,1,1.0413479929449055e-12
1.37,0.009439396781978427,77.50000000002156,0,90,1.0,1,4.444920949064214e-13
1.375,0.004178588733610924,77.50000000000908,0,90,1.0,1,1.8723167346420783e-13
1.38,0.0017299316936037381,77.50000000000377,0,90,1.0,1,7.764693813460889e-14
1.385,0.0008997325756988589,77.50000000000155,0,90,1.0,1,3.193779719499007e-14
1.39,0.001634769674224814,77.50000000000063,0,90,1.0,1,1.289232180348223e-14
1.395,0.00614904736476635,77.50000000000024,0,90,1.0,1,4.9811243331635886e-15
1.4,0.02168080359963608,77.5000000000001,0,90,1.0,1,2.0510511960085364e-15
1.405,0.06433400338904088,77.50000000000004,0,90,1.0,1,8.790219411465157e-16
1.41,0.1593410769217493,77.50000000000001,0,90,1.0,1,2.9300731371550523e-16
1.415,0.3291989194808569,77.5,0,90,1.0,1,0.0
1.42,0.5672906802982638,77.5,0,90,1.0,1,0.0
1.425,0.815339152120446,77.5,0,90,1.0,1,0.0
1.43,0.9768711246313155,77.50000284154457,1,90,1.0,1,5.8588547859734405e-08
1.435,0.9726380909165361,77.5000053717146,0,90,1.0,1,1.1075700192038508e-07
1.44,0.7921091683291741,77.50001074298208,0,90,1.0,1,2.2150478524466606e-07
1.445,0.49139090102639077,77.50002348679206,0,90,1.0,1,4.842637538073627e-07
1.45,0.15739335672107918,77.50005697009982,0,90,1.0,1,1.1746412333992601e-06
1.455,-0.11102342218909485,77.50015058918197,0,90,1.0,1,3.1049315870189172e-06
1.46,-0.2314207883647528,77.50041701098533,0,90,1.0,1,8.598164645990409e-06
1.465,-0.2029124434754801,77.50116397212096,0,90,1.0,1,2.3999425174501196e-05
1.47,-0.11151350554305876,77.50318753865302,0,90,1.0,1,6.572244645408506e-05
1.475,-0.039430666652076896,77.5084286730719,0,90,1.0,1,0.00017378707364751163
1.48,-0.006087703519843621,77.52133349932207,0,90,1.0,1,0.0004398659654034723
1.485,0.005350271385530551,77.55144481044628,0,90,1.0,1,0.001060717741160502
1.49,0.010381647827441833,77.61790113559184,0,90,1.0,1,0.002430951249316211
1.495,0.015115203303506243,77.75645242828497,0,90,1.0,1,0.005287678933710787
1.5,0.021170964062928475,78.02903573913586,0,90,1.0,1,0.010907953384244619
1.505,0.029082821134029553,78.53459389389398,0,90,1.0,1,0.02133183286379348
1.51,0.03923107061708144,79.41759052329515,0,90,1.0,1,0.03953794893392055
1.515,0.051969043308817596,80.86806634460993,0,90,1.0,1,0.0694446668991738
1.52,0.06760532616283861,83.10540651559467,0,90,1.0,1,0.11557539207411682
1.525,0.08636519236693461,86.3392095926369,0,90,1.0,1,0.18225174417808052
1.53,0.10834733138818661,90.70649228025296,0,90,1.0,1,0.27229880990212285
1.535,0.1334809643017884,96.1949399697833,0,90,1.0,1,0.3854626797893465
1.54,0.16148868344343945,102.57400864906828,0,90,1.0,1,0.5169898690529542
1.545,0.191860907532018,109.36346526476575,0,90,1.0,1,0.656978665252902
1.55,0.22384764873847726,115.86591368470812,0,90,1.0,1,0.7910497666950127
1.555,0.25647215537198226,121.27294452158014,0,90,1.0,1,0.9025349385892814
1.56,0.2885689161419028,124.82763298613727,0,90,1.0,1,0.9758274842502531
1.565,0.31884566517832524,126.0,0,90,1.0,1,1.0
1.57,0.3459657668955683,124.61989252433693,0,90,1.0,1,0.9715441757595243
1.575,0.3686441789190902,120.92169697246845,0,90,1.0,1,0.8952927210818238
1.58,0.3857476379544367,115.48501558588413,0,90,1.0,1,0.7831961976470954
1.585,0.3963882865005728,109.09225998185437,0,90,1.0,1,0.6513868037495746
1.59,0.4,102.5515725266867,0,90,1.0,1,0.5165272685914784
1.595,0.39638828650057273,96.54013006952228,0,90,1.0,1,0.392580001433449
1.6,0.38574763795443656,91.50802050032742,0,90,1.0,1,0.2888251649552045
1.605,0.36864417891908974,87.65583209467765,0,90,1.0,1,0.2093985998902608
1.61,0.345965766895568,84.9730956654149,0,90,1.0,1,0.15408444670958563
1.615,0.3188456651783249,83.30975988570115,0,90,1.0,1,0.11978886362270422
1.62,0.28856891614190205,82.45172028278404,0,90,1.0,1,0.10209732541822758
1.625,0.2564721553719815,82.18025697684484,0,90,1.0,1,0.09650014385247103
1.63,0.22384764873847685,82.30741319769757,0,90,1.0,1,0.09912192160201176
1.635,0.19186090753201765,82.68926270610598,0,90,1.0,1,0.1069951073423913
1.64,0.16148868344343878,83.2241320744651,0,90,1.0,1,0.11802334174154852
1.645,0.1334809643017881,83.8435168279006,0,90,1.0,1,0.13079416140001238
1.65,0.10834733138818531,84.50150236715587,0,90,1.0,1,0.14436087354960547
1.655,0.08636519236690572,85.16587686988788,0,90,1.0,1,0.15805931690490477
1.66,0.06760532616242629,85.81199492104422,0,90,1.0,1,0.1713813385782313
1.665,0.05196904332202373,86.41920641796344,0,90,1.0,1,0.18390116325697808
1.67,0.03923107185803287,86.96917992923366,0,90,1.0,1,0.19524082328316827
1.675,0.02908287038705761,87.44541920646472,0,90,1.0,1,0.20506018982401486
1.68,0.02117220077308346,87.83342707600346,0,90,1.0,1,0.21306035208254556
1.685,0.0151361834125735,88.1211518756908,0,90,1.0,1,0.21899282217919175
1.69,0.010626454858290009,88.29949305211028,0,90,1.0,1,0.22266995983732535
1.695,0.007326255555493652,88.36273532154763,0,90,1.0,1,0.22397392415562128
1.7,0.004960179211183015,88.30883732354,0,90,1.0,1,0.22286262522762895
1.705,0.0032978759379303545,88.13953589889951,0,90,1.0,1,0.2193718742041136
1.71,0.002153242296767213,87.86025153974062,0,90,1.0,1,0.21361343380908487
1.715,0.001380616732225004,87.47979971200948,0,90,1.0,1,0.2057690662269996
1.72,0.0008693106590991584,87.00992868416755,0,90,1.0,1,0.19608100379726903
1.725,0.000537524815942247,86.46471740998916,0,90,1.0,1,0.18483953422658067
1.73,0.0003263951340288585,85.85987641344444,0,90,1.0,1,0.17236858584421524
1.735,0.00019463030985187395,85.21199997402755,0,90,1.0,1,0.15901030874283606
1.74,0.00011397219555062695,84.53781895883367,0,90,1.0,1,0.14510966925430244
1.745,6.55403863487943e-05,83.85350054309895,0,90,1.0,1,0.1310000111979164
1.75,3.701184389455385e-05,83.17403435574212,0,90,1.0,1,0.11699039908746645
1.755,2.0525516217290957e-05,82.51273515971924,0,90,1.0,1,0.10335536411792251
1.76,1.1178128483661116e-05,81.88088111637717,0,90,1.0,1,0.09032744569849831
1.765,5.978135409912517e-06,81.28749514724962,0,90,1.0,1,0.07809268344844567
1.77,3.1396702713238487e-06,80.73926599081013,0,90,1.0,1,0.0667889895012397
1.775,1.6192875458531019e-06,80.24059617216766,0,90,1.0,1,0.05650713757046714
1.78,8.201353897972012e-07,79.79375691779815,0,90,1.0,1,0.047293957068003066
1.785,4.0791415086824765e-07,79.39912541232576,0,90,1.0,1,0.039157224996407405
1.79,1.9923866938774793e-07,79.05547776723587,0,90,1.0,1,0.032071706540945794
1.795,9.556527981051257e-08,78.76031144478318,0,90,1.0,1,0.025985802985220293
1.8,4.501406988770349e-08,78.51017324373844,0,90,1.0,1,0.02082831430388527
1.805,0.0,78.30097276926729,0,90,1.0,1,0.016514902459119376
1.81,0.0,78.12826599064017,0,90,1.0,1,0.01295393795134378
1.815,0.0,77.98749847302761,0,90,1.0,1,0.010051514907785854
1.82,0.0,77.87420266617133,0,90,1.0,1,0.007715518890130479
1.825,0.0,77.78414786970576,0,90,1.0,1,0.005858718963005411
1.83,0.0,77.71344492859065,0,90,1.0,1,0.004400926362693753
1.835,0.0,77.6586102266577,0,90,1.0,1,0.0032703139517051565
1.84,0.0,77.61659513782196,0,90,1.0,1,0.0024040234602466038
1.845,0.0,77.58478784625699,0,90,1.0,1,0.0017482030156079722
1.85,0.0,77.56099450010981,0,90,1.0,1,0.001257618558965237
1.855,0.0,77.54340618910628,0,90,1.0,1,0.000894972971263469
1.86,0.0,77.53055741054968,0,90,1.0,1,0.0006300497020551748
1.865,0.0,77.521280672553,0,90,1.0,1,0.0004387767536701931
1.87,0.0,77.51466081314214,0,90,1.0,1,0.0003022848070544963
1.875,0.0,77.50999159166291,0,90,1.0,1,0.0002060121992352594
1.88,0.0,77.5067362035906,0,90,1.0,1,0.00013889079568259346
1.885,0.0,77.50449261953548,0,90,1.0,1,9.263133062852165e-05
1.89,0.0,77.50296406680117,0,90,1.0,1,6.11147794055557e-05
1.895,0.0,77.50193455126167,0,90,1.0,1,3.988765487978404e-05
1.9,0.0,77.5012490401714,0,90,1.0,1,2.5753405595913737e-05
1.905,0.0,77.50079776775692,0,90,1.0,1,1.644881973034083e-05
1.91,0.0,77.50050405794217,0,90,1.0,1,1.0392947261154929e-05
1.915,0.0,77.50031505643443,0,90,1.0,1,6.496008957339617e-06
1.92,0.0,77.5001948050246,0,90,1.0,1,4.016598445477752e-06
1.925,0.0,77.5001191559859,0,90,1.0,1,2.456824451536301e-06
1.93,0.0,77.5000721000363,0,90,1.0,1,1.4865986867166095e-06
1.935,0.0,77.50004315777153,0,90,1.0,1,8.898509593601591e-07
1.94,0.0,77.5000255556216,0,90,1.0,1,5.269200330859189e-07
1.945,0.0,77.50001496986195,0,90,1.0,1,3.086569474418735e-07
1.95,0.0,77.50000867467178,0,90,1.0,1,1.788592118673384e-07
1.955,0.0,77.5000049726995,0,90,1.0,1,1.0252988660148421e-07
1.96,0.001684486749771458,77.50000281991028,0,90,1.0,1,5.8142479971494826e-08
1.965,0.004172395771277602,77.50000158191183,0,90,1.0,1,3.261673879895864e-08
1.97,0.009438687428818865,77.50000087787598,0,90,1.0,1,1.810053559499475e-08
1.975,0.019500507867137046,77.50000048193445,0,90,1.0,1,9.936792776926202e-09
1.98,0.03679496976339974,77.50000026172589,0,90,1.0,1,5.3964100450534765e-09
1.985,0.06340728953298436,77.50000014060777,0,90,1.0,1,2.899129220768185e-09
1.99,0.09979255396093453,77.5000000747267,0,90,1.0,1,1.540756690617142e-09
1.995,0.14343835518453557,77.50000003928676,0,90,1.0,1,8.100362992053372e-10
2.0,0.18829581417209276,77.50000002043245,0,90,1.0,1,4.212876737040357e-10
2.005,0.2257481735193119,77.50000001051232,0,90,1.0,1,2.1674893724059412e-10
2.01,0.24718154073554727,77.50000000535033,0,90,1.0,1,1.1031608158463286e-10
2.015,0.24718154074102772,77.50000000269381,0,90,1.0,1,5.5542466387911174e-11
2.02,0.22574817354072055,77.5000000013417,0,90,1.0,1,2.766399251713571e-11
2.025,0.18829581422840957,77.50000000066107,0,90,1.0,1,1.3630407226731589e-11
2.03,0.14343835532456656,77.50000000032222,0,90,1.0,1,6.643647831185366e-12
2.035,0.09979255431561854,77.50000000015537,0,90,1.0,1,3.2034489608516187e-12
2.04,0.06340729067170194,77.50000000007411,0,90,1.0,1,1.5280331410263597e-12
2.045,0.03679497683410042,77.50000000003497,0,90,1.0,1,7.210909990538583e-13
2.05,0.019500578284482293,77.50000000001633,0,90,1.0,1,3.3666540345911553e-13
2.055,0.009439396781978427,77.50000000000753,0,90,1.0,1,1.5529387626921778e-13
2.06,0.004178588733610924,77.50000000000344,0,90,1.0,1,7.090776991915227e-14
2.065,0.0017299316936037381,77.50000000000155,0,90,1.0,1,3.193779719499007e-14
2.07,0.0008997325756988589,77.5000000000007,0,90,1.0,1,1.4357358372059756e-14
2.075,0.001634769674224814,77.50000000000031,0,90,1.0,1,6.446160901741115e-15
2.08,0.00614904736476635,77.50000000000013,0,90,1.0,1,2.637065823439547e-15
2.085,0.02168080359963608,77.50000000000006,0,90,1.0,1,1.172029254862021e-15
2.09,0.06433400338904088,77.50000000000003,0,90,1.0,1,5.860146274310105e-16
2.095,0.1593410769217493,77.50000000000001,0,90,1.0,1,2.9300731371550523e-16
2.1,0.3291989194808569,77.5,0,90,1.0,1,0.0
2.105,0.5672906802982638,77.5,0,90,1.0,1,0.0
2.11,0.815339152120446,77.5,0,90,1.0,1,0.0
2.115,0.9768711246313155,77.50000284150002,1,90,1.0,1,5.858762928180591e-08
2.12,0.9726380909165361,77.5000055087254,0,90,1.0,1,1.1358196688794948e-07
2.125,0.7921091683291741,77.50001136395807,0,90,1.0,1,2.3430841373428661e-07
2.13,0.49139090102639077,77.50002585890292,0,90,1.0,1,5.331732559967612e-07
2.135,0.15739335672107918,77.50006577270929,0,90,1.0,1,1.356138335905626e-06
2.14,-0.11102342218909485,77.50018247875063,0,90,1.0,1,3.76244846661487e-06
2.145,-0.2314207883647528,77.50052776496497,0,90,1.0,1,1.0881751855078582e-05
2.15,-0.2029124434754801,77.50152756139154,0,90,1.0,1,3.1496111165786474e-05
2.155,-0.11151350554305876,77.50430755613382,0,90,1.0,1,8.88155903881271e-05
2.16,-0.039430666652076896,77.5116563600092,0,90,1.0,1,0.00024033731977727622
2.165,-0.006087703519843621,77.53002739545968,0,90,1.0,1,0.0006191215558697577
2.17,0.005350271385530551,77.57333096905042,0,90,1.0,1,0.0015119787433075698
2.175,0.010381647827441833,77.66940490223725,0,90,1.0,1,0.0034928845822112743
2.18,0.015115203303506243,77.86976747664984,0,90,1.0,1,0.007624071683501874
2.185,0.021170964062928475,78.26211431813414,0,90,1.0,1,0.01571369728111625
2.19,0.029082821134029553,78.98267513398078,0,90,1.0,1,0.03057062131919128
2.195,0.03923107061708144,80.22218766058688,0,90,1.0,1,0.05612758063065738
2.2,0.051969043308817596,82.21612057642412,0,90,1.0,1,0.09723959951389932
2.205,0.06760532616283861,85.20932922752098,0,90,1.0,1,0.15895524180455634
2.21,0.08636519236693461,89.39039798617173,0,90,1.0,1,0.24516284507570588
2.215,0.10834733138818661,94.8028006534978,0,90,1.0,1,0.35675877636077935
2.22,0.1334809643017884,101.25612781731577,0,90,1.0,1,0.48981706839826333
2.225,0.16148868344343945,108.27370857382006,0,90,1.0,1,0.6345094551303105
2.23,0.191860907532018,115.11341104223824,0,90,1.0,1,0.775534248293572
2.235,0.22384764873847726,120.88000833622657,0,90,1.0,1,0.8944331615716817
2.24,0.25647215537198226,124.71329532894552,0,90,1.0,1,0.9734700067823818
2.245,0.2885689161419028,126.0,0,90,1.0,1,1.0
2.25,0.31884566517832524,124.53834900968857,0,90,1.0,1,0.9698628661791459
2.255,0.3459657668955683,120.59493192202842,0,90,1.0,1,0.8885552973614108
2.26,0.3686441789190902,114.83222413300682,0,90,1.0,1,0.7697365800619963
2.265,0.3857476379544367,108.13422420586735,0,90,1.0,1,0.6316334887807702
2.27,0.3963882865005728,101.3936098555063,0,90,1.0,1,0.492651749598068
2.275,0.4,95.33064507931,0,90,1.0,1,0.3676421665837114
2.28,0.39638828650057273,90.39185276201252,0,90,1.0,1,0.2658113971548973
2.285,0.38574763795443656,86.73955542986523,0,90,1.0,1,0.19050629752299453
2.29,0.36864417891908974,84.31059562557269,0,90,1.0,1,0.14042465207366367
2.295,0.345965766895568,82.9065602268215,0,90,1.0,1,0.11147546859425768
2.3,0.3188456651783249,82.28033336831763,0,90,1.0,1,0.09856357460448717
2.305,0.28856891614190205,82.19778113694667,0,90,1.0,1,0.09686146674116852
2.31,0.2564721553719815,82.46927305071628,0,90,1.0,1,0.1024592381590986
2.315,0.22384764873847685,82.95682150774277,0,90,1.0,1,0.11251178366479946
2.32,0.19186090753201765,83.56687754099825,0,90,1.0,1,0.12509025857728348
2.325,0.16148868344343878,84.23787322707521,0,90,1.0,1,0.1389252211768085
2.33,0.1334809643017881,84.92832444149448,0,90,1.0,1,0.15316132869060786
2.335,0.10834733138818531,85.60801881012263,0,90,1.0,1,0.16717564556953876
2.34,0.08636519236690572,86.25260772478875,0,90,1.0,1,0.18046613865543806
2.345,0.06760532616242629,86.84089403560439,0,90,1.0,1,0.19259575331143078
2.35,0.05196904332202373,87.35388295636871,0,90,1.0,1,0.20317284446121045
2.355,0.03923107185803287,87.77481720348132,0,90,1.0,1,0.21185190110270763
2.36,0.02908287038705761,88.08966243795557,0,90,1.0,1,0.21834355542176428
2.365,0.02117220077308346,88.28771551986046,0,90,1.0,1,0.22242712412083412
2.37,0.0151361834125735,88.36214631799686,0,90,1.0,1,0.22396177975251258
2.375,0.010626454858290009,88.31036736727964,0,90,1.0,1,0.22289417252122967
2.38,0.007326255555493652,88.13417633763018,0,90,1.0,1,0.21926136778618927
2.385,0.004960179211183015,87.83965035915766,0,90,1.0,1,0.213188667199127
2.39,0.0032978759379303545,87.43679744267308,0,90,1.0,1,0.20488242149841407
2.395,0.002153242296767213,86.9389917989111,0,90,1.0,1,0.1946183876064145
2.4,0.001380616732225004,86.36223716698538,0,90,1.0,1,0.18272653952547177
2.405,0.0008693106590991584,85.72431461211428,0,90,1.0,1,0.16957349715699555
2.41,0.000537524815942247,85.04387789533241,0,90,1.0,2,0.15554387413056525
2.415,0.0003263951340288585,84.33956014461978,0,90,1.0,2,0.14102185865195427
2.42,0.00019463030985187395,83.62915046826862,0,90,1.0,2,0.1263742364591468
2.425,0.00011397219555062695,82.92888923969679,0,90,1.0,2,0.11193586061230489
2.43,6.55403863487943e-05,82.25291740154772,0,90,1.0,2,0.09799829693912823
2.435,3.701184389455385e-05,81.61289990625842,0,90,1.0,2,0.08480205992285401
2.44,2.0525516217290957e-05,81.01782800176962,0,90,1.0,2,0.07253253611896114
2.445,1.1178128483661116e-05,80.47399100328275,0,90,1.0,2,0.0613194021295412
2.45,5.978135409912517e-06,79.9850966673004,0,90,1.0,2,0.05123910654227622
2.455,3.1396702713238487e-06,79.55251108450634,0,90,1.0,2,0.04231981617538835
2.46,1.6192875458531019e-06,79.17558445710158,0,90,1.0,2,0.034548133136115024
2.465,8.201353897972012e-07,78.85202811529082,0,90,1.0,2,0.027876868356511774
2.47,4.0791415086824765e-07,78.57831019218708,0,90,1.0,2,0.022233199838908767
2.475,1.9923866938774793e-07,78.35004180586505,0,90,1.0,2,0.01752663517247519
2.48,9.556527981051257e-08,78.16233155760507,0,90,1.0,2,0.013656320775362298
2.485,4.501406988770349e-08,78.01009280593172,0,90,1.0,2,0.01051737744189113
2.49,0.0,77.88829476616297,0,90,1.0,2,0.008006077652844772
2.495,0.0,77.79215442099877,0,90,1.0,2,0.006023802494820002
2.5,0.0,77.71727110655786,0,90,1.0,2,0.004479816630058962
2.505,0.0,77.65970925268655,0,90,1.0,2,0.003292974282196985
2.51,0.0,77.61603707332719,0,90,1.0,2,0.0023925169758183882
2.515,0.0,77.58333012691409,0,90,1.0,2,0.0017181469466823053
2.52,0.0,77.55914879585012,0,90,1.0,2,0.0012195628010334112
2.525,0.0,77.54149811404007,0,90,1.0,2,0.0008556312173209687
2.53,0.0,77.52877725728622,0,90,1.0,2,0.0005933455110561316
2.535,0.0,77.51972463735181,0,90,1.0,2,0.0004066935536456509
2.54,0.0,77.51336310074132,0,90,1.0,2,0.00027552785033640716
2.545,0.0,77.50894837231351,0,90,1.0,2,0.0001845025219280774
2.55,0.0,77.50592269592266,0,90,1.0,2,0.00012211744170440163
2.555,0.0,77.50387465835057,0,90,1.0,2,7.988986289831832e-05
2.56,0.0,77.50250545138663,0,90,1.0,2,5.1658791476807595e-05
2.565,0.0,77.50160131633649,0,90,1.0,2,3.301683168021236e-05
2.57,0.0,77.50101159546982,0,90,1.0,2,2.0857638552975802e-05
2.575,0.0,77.5006316481158,0,90,1.0,2,1.3023672490711779e-05
2.58,0.0,77.50038983616128,0,90,1.0,2,8.037858995371654e-06
2.585,0.0,77.50023780863849,0,90,1.0,2,4.903270896659603e-06
2.59,0.0,77.50014338764066,0,90,1.0,2,2.9564461992214493e-06
2.595,0.0,77.50008545439401,0,90,1.0,2,1.7619462682629541e-06
2.6,0.0,77.5000503379664,0,90,1.0,2,1.0378962144255338e-06
2.605,0.0,77.50002930863025,0,90,1.0,2,6.04301654562995e-07
2.61,0.0,77.50001686684932,0,90,1.0,2,3.47770089106656e-07
2.615,0.0,77.50000959424924,0,90,1.0,2,1.9781957185729233e-07
2.62,0.001684486749771458,77.50000539419466,0,90,1.0,2,1.1122050843190777e-07
2.625,0.004172395771277602,77.50000299764929,0,90,1.0,2,6.180720184911667e-08
2.63,0.009438687428818865,77.50000164654504,0,90,1.0,2,3.394938235689233e-08
2.635,0.019500507867137046,77.50000089393305,0,90,1.0,2,1.8431609246878916e-08
2.64,0.03679496976339974,77.50000047970579,0,90,1.0,2,9.890841025930826e-09
2.645,0.06340728953298436,77.5000002544389,0,90,1.0,2,5.246162926755695e-09
2.65,0.09979255396093453,77.50000013339228,0,90,1.0,2,2.750356222265706e-09
2.655,0.14343835518453557,77.50000006912201,0,90,1.0,2,1.4251960711243151e-09
2.66,0.18829581417209276,77.50000003540305,0,90,1.0,2,7.299597444253993e-10
2.665,0.2257481735193119,77.5000000179227,0,90,1.0,2,3.695402380433678e-10
2.67,0.24718154073554727,77.5000000089682,0,90,1.0,2,1.8491134854689477e-10
2.675,0.24718154074102772,77.50000000443552,0,90,1.0,2,9.145402877151092e-11
2.68,0.22574817354072055,77.50000000216832,0,90,1.0,2,4.4707641941339216e-11
2.685,0.18829581422840957,77.50000000104771,0,90,1.0,2,2.160225721098934e-11
2.69,0.14343835532456656,77.50000000050038,0,90,1.0,2,1.0317080523236655e-11
2.695,0.09979255431561854,77.5000000002362,0,90,1.0,2,4.870074561265413e-12
2.7,0.06340729067170194,77.5000000001102,0,90,1.0,2,2.272271717863743e-12
2.705,0.03679497683410042,77.50000000005083,0,90,1.0,2,1.0480871611603622e-12
2.71,0.019500578284482293,77.50000000002316,0,90,1.0,2,4.776019213562735e-13
2.715,0.009439396781978427,77.50000000001044,0,90,1.0,2,2.1536037558089634e-13
2.72,0.004178588733610924,77.50000000000465,0,90,1.0,2,9.581339158497021e-14
2.725,0.0017299316936037381,77.50000000000205,0,90,1.0,2,4.2193053175032755e-14
2.73,0.0008997325756988589,77.5000000000009,0,90,1.0,2,1.845946076407683e-14
2.735,0.001634769674224814,77.50000000000038,0,90,1.0,2,7.911197470318642e-15
2.74,0.00614904736476635,77.50000000000016,0,90,1.0,2,3.2230804508705575e-15
2.745,0.02168080359963608,77.50000000000007,0,90,1.0,2,1.465036568577526e-15
2.75,0.06433400338904088,77.50000000000003,0,90,1.0,2,5.860146274310105e-16
2.755,0.1593410769217493,77.50000000000001,0,90,1.0,2,2.9300731371550523e-16
2.76,0.3291989194808569,77.5,0,90,1.0,2,0.0
2.765,0.5672906802982638,77.5,0,90,1.0,2,0.0
2.77,0.815339152120446,77.5,0,90,1.0,2,0.0
2.775,0.9768711246313155,77.50000285700571,1,90,1.0,2,5.890733424991792e-08
2.78,0.9726380909165361,77.5000055981037,0,90,1.0,2,1.1542481851411701e-07
2.785,0.7921091683291741,77.50001170193522,0,90,1.0,2,2.412770148805872e-07
2.79,0.49139090102639077,77.5000270882034,0,90,1.0,2,5.585196576478281e-07
2.795,0.15739335672107918,77.50007030382385,0,90,1.0,2,1.4495633782883385e-06
2.8,-0.11102342218909485,77.50019904185636,0,90,1.0,2,4.1039558012827685e-06
2.805,-0.2314207883647528,77.50058607134292,0,90,1.0,2,1.2083945214904703e-05
2.81,-0.2029124434754801,77.50172157287263,0,90,1.0,2,3.549634788918851e-05
2.815,-0.11151350554305876,77.50491227303426,0,90,1.0,2,0.00010128398008792904
2.82,-0.039430666652076896,77.51341548520728,0,90,1.0,2,0.00027660794241804996
2.825,-0.006087703519843621,77.53479767151332,0,90,1.0,2,0.0007174777631611781
2.83,0.005350271385530551,77.58538694566,0,90,1.0,2,0.001760555580618663
2.835,0.010381647827441833,77.69780421918405,0,90,1.0,2,0.004078437508949487
2.84,0.015115203303506243,77.93212374321509,0,90,1.0,2,0.008909767901341991
2.845,0.021170964062928475,78.38971621807644,0,90,1.0,2,0.018344664290235957
2.85,0.029082821134029553,79.22592550239746,0,90,1.0,2,0.035586092832937295
2.855,0.03923107061708144,80.65382694330745,0,90,1.0,2,0.06502735965582372
2.86,0.051969043308817596,82.92814688244911,0,90,1.0,2,0.1119205542773013
2.865,0.06760532616283861,86.29905479142072,0,90,1.0,2,0.1814238101323859
2.87,0.08636519236693461,90.93310591840898,0,90,1.0,2,0.27697125604966977
2.875,0.10834733138818661,96.81375736041753,0,90,1.0,2,0.3982218012457222
2.88,0.1334809643017884,103.65218979533569,0,90,1.0,2,0.5392204081512513
2.885,0.16148868344343945,110.85098906485283,0,90,1.0,2,0.6876492590691304
2.89,0.191860907532018,117.55776115670236,0,90,1.0,2,0.8259332197258218
2.895,0.22384764873847726,122.81835656489098,0,90,1.0,2,0.9343991044307418
2.9,0.25647215537198226,125.79775358536652,0,90,1.0,2,0.9958299708322994
2.905,0.2885689161419028,126.0,0,90,1.0,2,1.0
2.91,0.31884566517832524,123.40809829602208,0,90,1.0,2,0.9465587277530325
2.915,0.3459657668955683,118.49003065599916,0,90,1.0,2,0.8451552712577147
2.92,0.3686441789190902,112.06852813875727,0,90,1.0,2,0.71275315750015
2.925,0.3857476379544367,105.10477932098621,0,90,1.0,2,0.5691707076492002
2.93,0.3963882865005728,98.47443100842273,0,90,1.0,2,0.4324624950190253
2.935,0.4,92.8066072912793,0,90,1.0,2,0.3156001503356558
2.94,0.39638828650057273,88.42148372327156,0,90,1.0,2,0.2251852314076611
2.945,0.38574763795443656,85.35990241659837,0,90,1.0,2,0.16205984364120357
2.95,0.36864417891908974,83.46944358620377,0,90,1.0,2,0.12308131105574777
2.955,0.345965766895568,82.50409108932574,0,90,1.0,2,0.1031771358623864
2.96,0.3188456651783249,82.20538889595129,0,90,1.0,2,0.09701832775157294
2.965,0.28856891614190205,82.35118221387862,0,90,1.0,2,0.10002437554388899
2.97,0.2564721553719815,82.77370137387766,0,90,1.0,2,0.10873611080160117
2.975,0.22384764873847685,83.35697885227354,0,90,1.0,2,0.12076245056234107
2.98,0.19186090753201765,84.0246919330554,0,90,1.0,2,0.13452973057846174
2.985,0.16148868344343878,84.72653191551647,0,90,1.0,2,0.1490006580518861
2.99,0.1334809643017881,85.42725699479512,0,90,1.0,2,0.16344859783082713
2.995,0.10834733138818531,86.09955203844497,0,90,1.0,2,0.17731035130814368
3.0,0.08636519236690572,86.72019234262434,0,90,1.0,2,0.1901070586108112
3.005,0.06760532616242629,87.26848870696234,0,90,1.0,2,0.20141213828788337
3.01,0.05196904332202373,87.72606423286395,0,90,1.0,2,0.21084668521368966
3.015,0.03923107185803287,88.07728034294114,0,90,1.0,2,0.2180882544936317
3.02,0.02908287038705761,88.30988433026353,0,90,1.0,2,0.22288421299512431
3.025,0.02117220077308346,88.41562988670005,0,90,1.0,2,0.2250645337463927
3.03,0.0151361834125735,88.39073171494468,0,90,1.0,2,0.22455116938030265
3.035,0.010626454858290009,88.23608061227844,0,90,1.0,2,0.2213624868511019
3.04,0.007326255555493652,87.95718762032197,0,90,1.0,2,0.2156121158829273
3.045,0.004960179211183015,87.56385719193653,0,90,1.0,2,0.20750221014302134
3.05,0.0032978759379303545,87.06961485035202,0,90,1.0,2,0.19731164639901083
3.055,0.002153242296767213,86.49093547163766,0,90,1.0,2,0.18538011281727124
3.06,0.001380616732225004,85.84633343081921,0,90,1.0,2,0.17208934908905596
3.065,0.0008693106590991584,85.15538449808108,0,90,1.0,2,0.15784297934187785
3.07,0.000537524815942247,84.43775108996621,0,90,1.0,2,0.14304641422610748
3.075,0.0003263951340288585,83.71227751571944,0,90,1.0,2,0.12808819620040074
3.08,0.00019463030985187395,82.99621117057644,0,90,1.0,2,0.11332394166136998
3.085,0.00011397219555062695,82.30459074772966,0,90,1.0,2,0.09906372675731262
3.09,6.55403863487943e-05,81.64982534565863,0,90,1.0,2,0.08556340918883767
3.095,3.701184389455385e-05,81.04147079905813,0,90,1.0,2,0.0730200164754254
3.1,2.0525516217290957e-05,80.4861934573874,0,90,1.0,2,0.06157099912138971
3.105,1.1178128483661116e-05,79.98789840738041,0,90,1.0,2,0.05129687437897759
3.11,5.978135409912517e-06,79.54798972143004,0,90,1.0,2,0.04222659219443386
3.115,3.1396702713238487e-06,79.1657251050575,0,90,1.0,2,0.03434484752695885
3.12,1.6192875458531019e-06,78.83862619104653,0,90,1.0,2,0.027600540021577923
3.125,8.201353897972012e-07,78.5629081394647,0,90,1.0,2,0.021915631741540122
3.13,4.0791415086824765e-07,78.33389731528789,0,90,1.0,2,0.017193759078100723
3.135,1.9923866938774793e-07,78.14641264967727,0,90,1.0,2,0.013328095869634505
3.14,9.556527981051257e-08,77.9950938659425,0,90,1.0,2,0.010208120947267908
3.145,4.501406988770349e-08,77.87466719823882,0,90,1.0,2,0.007725096870903608
3.15,0.0,77.78014587226397,0,90,1.0,2,0.00577620355183448
3.155,0.0,77.7069680038797,0,90,1.0,2,0.004267381523292672
3.16,0.0,77.651078485453,0,90,1.0,2,0.0031150203186185305
3.165,0.0,77.6089638555516,0,90,1.0,2,0.0022466774340534693
3.17,0.0,77.57765022693218,0,90,1.0,2,0.0016010356068490341
3.175,0.0,77.55467432434818,0,90,1.0,2,0.0011273056566635917
3.18,0.0,77.53803685039938,0,90,1.0,2,0.0007842649566882334
3.185,0.0,77.52614605077103,0,90,1.0,2,0.0005390938303305668
3.19,0.0,77.5177577558228,0,90,1.0,2,0.0003661392953154532
3.195,0.0,77.51191654857978,0,90,1.0,2,0.000245702032572712
3.2,0.0,77.507901204888,0,90,1.0,2,0.0001629114409896965
3.205,0.0,77.5051762660216,0,90,1.0,2,0.00010672713446612442
3.21,0.0,77.50335058222204,0,90,1.0,2,6.908416952660915e-05
3.215,0.0,77.50214291231161,0,90,1.0,2,4.4183759002311787e-05
3.22,0.0,77.50135415677913,0,90,1.0,2,2.792075833256313e-05
3.225,0.0,77.50084550060859,0,90,1.0,2,1.7433002238989895e-05
3.23,0.0,77.50052160209725,0,90,1.0,2,1.075468241754972e-05
3.235,0.0,77.50031793999378,0,90,1.0,2,6.555463789233549e-06
3.24,0.0,77.50019148352861,0,90,1.0,2,3.948113991960669e-06
3.245,0.0,77.50011394574456,0,90,1.0,2,2.3493967950292517e-06
3.25,0.0,77.50006699543745,0,90,1.0,2,1.381349225776202e-06
3.255,0.0,77.50003891999467,0,90,1.0,2,8.024741168107361e-07
3.26,0.0,77.50002233987531,0,90,1.0,2,4.6061598587565985e-07
3.265,0.0,77.5000126697821,0,90,1.0,2,2.6123262050673147e-07
3.27,0.001684486749771458,77.50000709966693,0,90,1.0,2,1.4638488517110878e-07
3.275,0.004172395771277602,77.50000393085688,0,90,1.0,2,8.104859540891112e-08
3.28,0.009438687428818865,77.50000215038844,0,90,1.0,2,4.433790597441029e-08
3.285,0.019500507867137046,77.50000116232353,0,90,1.0,2,2.3965433568911375e-08
3.29,0.03679496976339974,77.50000062075121,0,90,1.0,2,1.2798993992939508e-08
3.295,0.06340728953298436,77.50000032755825,0,90,1.0,2,6.7537784391404165e-09
3.3,0.09979255396093453,77.50000017078115,0,90,1.0,2,3.52126080870971e-09
3.305,0.14343835518453557,77.50000008797753,0,90,1.0,2,1.8139696022472824e-09
3.31,0.18829581417209276,77.50000004478,0,90,1.0,2,9.232988623366931e-10
3.315,0.2257481735193119,77.50000002252042,0,90,1.0,2,4.6433865229362745e-10
3.32,0.24718154073554727,77.50000001119051,0,90,1.0,2,2.3073212527303918e-10
3.325,0.24718154074102772,77.50000000549419,0,90,1.0,2,1.1328219462137492e-10
3.33,0.22574817354072055,77.50000000266525,0,90,1.0,2,5.495352168734301e-11
3.335,0.18829581422840957,77.50000000127747,0,90,1.0,2,2.6339599459141628e-11
3.34,0.14343835532456656,77.50000000060498,0,90,1.0,2,1.247390735949649e-11
3.345,0.09979255431561854,77.5000000002831,0,90,1.0,2,5.83699869652658e-12
3.35,0.06340729067170194,77.50000000013088,0,90,1.0,2,2.698597359319803e-12
3.355,0.03679497683410042,77.50000000005979,0,90,1.0,2,1.2326817688011305e-12
3.36,0.019500578284482293,77.50000000002699,0,90,1.0,2,5.564208887457445e-13
3.365,0.009439396781978427,77.50000000001204,0,90,1.0,2,2.481771947170329e-13
3.37,0.004178588733610924,77.5000000000053,0,90,1.0,2,1.0929172801588345e-13
3.375,0.0017299316936037381,77.5000000000023,0,90,1.0,2,4.746718482191185e-14
3.38,0.0008997325756988589,77.500000000001,0,90,1.0,2,2.0510511960085366e-14
3.385,0.001634769674224814,77.50000000000043,0,90,1.0,2,8.790219411465157e-15
3.39,0.00614904736476635,77.50000000000017,0,90,1.0,2,3.516087764586063e-15
3.395,0.02168080359963608,77.50000000000007,0,90,1.0,2,1.465036568577526e-15
3.4,0.06433400338904088,77.50000000000003,0,90,1.0,2,5.860146274310105e-16
3.405,0.1593410769217493,77.50000000000001,0,90,1.0,2,2.9300731371550523e-16
3.41,0.3291989194808569,77.5,0,90,1.0,2,0.0
3.415,0.5672906802982638,77.5,0,90,1.0,2,0.0
3.42,0.815339152120446,77.5,0,90,1.0,2,0.0
3.425,0.9768711246313155,77.50000284866415,1,90,1.0,2,5.873534335187662e-08
3.43,0.9726380909165361,77.5000051058168,0,90,1.0,2,1.0527457313222953e-07
3.435,0.7921091683291741,77.50000957430125,0,90,1.0,2,1.9740827309592016e-07
3.44,0.49139090102639077,77.5000192818472,0,90,1.0,2,3.975638598261604e-07
3.445,0.15739335672107918,77.50004238154852,0,90,1.0,2,8.738463613375756e-07
3.45,-0.11102342218909485,77.50010098393257,0,90,1.0,2,2.0821429395662974e-06
3.455,-0.2314207883647528,77.50025390098935,0,90,1.0,2,5.235071945353224e-06
3.46,-0.2029124434754801,77.50065223244145,0,90,1.0,2,1.344809157635656e-05
3.465,-0.11151350554305876,77.50166776507878,0,90,1.0,2,3.438690884079208e-05
3.47,-0.039430666652076896,77.50417234055165,0,90,1.0,2,8.602764024016155e-05
3.475,-0.006087703519843621,77.510108421842,0,90,1.0,2,0.00020842106890733104
3.48,0.005350271385530551,77.52357843699788,0,90,1.0,2,0.00048615334016247844
3.485,0.010381647827441833,77.55277848453393,0,90,1.0,2,0.001088216175957344
3.49,0.015115203303506243,77.61316496400357,0,90,1.0,2,0.002333298226877799
3.495,0.021170964062928475,77.73218082230103,0,90,1.0,2,0.004787233449505819
3.5,0.029082821134029553,77.95555095968672,0,90,1.0,2,0.009392803292509654
3.505,0.03923107061708144,78.35445356436101,0,90,1.0,2,0.017617599265175442
3.51,0.051969043308817596,79.03174778384424,0,90,1.0,2,0.031582428532870896
3.515,0.06760532616283861,80.1240736075666,0,90,1.0,2,0.054104610465290734
3.52,0.08636519236693461,81.79555386436334,0,90,1.0,2,0.08856812091470807
3.525,0.10834733138818661,84.21884563394231,0,90,1.0,2,0.13853289966891358
3.53,0.1334809643017884,87.54128128862234,0,90,1.0,2,0.20703672760046068
3.535,0.16148868344343945,91.83821872914966,0,90,1.0,2,0.2956333758587559
3.54,0.191860907532018,97.06185531965835,0,90,1.0,2,0.40333722308573916
3.545,0.22384764873847726,102.99968719500932,0,90,1.0,2,0.5257667462888519
3.55,0.25647215537198226,109.25960362410099,0,90,1.0,2,0.6548371881257936
3.555,0.2885689161419028,115.29561625128811,0,90,1.0,2,0.7792910567275899
3.56,0.31884566517832524,120.47858111676223,0,90,1.0,2,0.8861563116858191
3.565,0.3459657668955683,124.20209954602316,0,90,1.0,2,0.9629298875468694
3.57,0.3686441789190902,126.0,0,90,1.0,2,1.0
3.575,0.3857476379544367,125.64429828531888,0,90,1.0,2,0.9926659440271934
3.58,0.3963882865005728,123.19538595966438,0,90,1.0,2,0.9421729063848325
3.585,0.4,118.98936513146,0,90,1.0,2,0.8554508274527836
3.59,0.39638828650057273,113.56635473578643,0,90,1.0,2,0.7436361801193079
3.595,0.38574763795443656,107.56103062609117,0,90,1.0,2,0.619815064455488
3.6,0.36864417891908974,101.5861011068479,0,90,1.0,2,0.49662064137830736
3.605,0.345965766895568,96.13795660346761,0,90,1.0,2,0.3842877650199508
3.61,0.3188456651783249,91.54311810108527,0,90,1.0,2,0.2895488268265004
3.615,0.28856891614190205,87.94947025429984,0,90,1.0,3,0.21545299493401732
3.62,0.2564721553719815,85.35341671541337,0,90,1.0,3,0.16192611784357472
3.625,0.22384764873847685,83.646989167333,0,90,1.0,3,0.12674204468727843
3.63,0.19186090753201765,82.66846492619491,0,90,1.0,3,0.10656628713803948
3.635,0.16148868344343878,82.24444734995778,0,90,1.0,3,0.09782365670016044
3.64,0.1334809643017881,82.21768642245108,0,90,1.0,3,0.09727188499899135
3.645,0.10834733138818531,82.46052458609033,0,90,1.0,3,0.10227885744516144
3.65,0.08636519236690572,82.8773024464563,0,90,1.0,3,0.1108722153908515
3.655,0.06760532616242629,83.40018792324622,0,90,1.0,3,0.12165335924219013
3.66,0.05196904332202373,83.98236408595713,0,90,1.0,3,0.13365699146303361
3.665,0.03923107185803287,84.5912275051745,0,90,1.0,3,0.14621087639535055
3.67,0.02908287038705761,85.20293090826489,0,90,1.0,3,0.1588233176961833
3.675,0.02117220077308346,85.79863121407236,0,90,1.0,3,0.17110579822829605
3.68,0.0151361834125735,86.36225875809158,0,90,1.0,3,0.1827269847029193
3.685,0.010626454858290009,86.87941776141984,0,90,1.0,3,0.19339005693649164
3.69,0.007326255555493652,87.3370239424003,0,90,1.0,3,0.20282523592577925
3.695,0.004960179211183015,87.72336626402566,0,90,1.0,3,0.21079105699021972
3.7,0.0032978759379303545,88.0283749476411,0,90,1.0,3,0.2170798958276515
3.705,0.002153242296767213,88.24395573178634,0,90,1.0,3,0.22152486044920294
3.71,0.001380616732225004,88.3643042981417,0,90,1.0,3,0.22400627418848873
3.715,0.0008693106590991584,88.38614919940129,0,90,1.0,3,0.2244566845237379
3.72,0.000537524815942247,88.30889337910872,0,90,1.0,3,0.22286378101255103
3.725,0.0003263951340288585,88.13463907974494,0,90,1.0,3,0.21927090886072048
3.73,0.00019463030985187395,87.86809205042462,0,90,1.0,3,0.21377509382318807
3.735,0.00011397219555062695,87.51635015716049,0,90,1.0,3,0.20652268365279358
3.74,6.55403863487943e-05,87.08858930151122,0,90,1.0,3,0.19770287219610763
3.745,3.701184389455385e-05,86.59566592728085,0,90,1.0,3,0.18753950365527522
3.75,2.0525516217290957e-05,86.04966009546001,0,90,1.0,3,0.17628165145278377
3.755,1.1178128483661116e-05,85.46338590027543,0,90,1.0,3,0.1641935237170191
3.76,5.978135409912517e-06,84.84989676778528,0,90,1.0,3,0.15154426325330478
3.765,3.1396702713238487e-06,84.2220119679011,0,90,1.0,3,0.13859818490517725
3.77,1.6192875458531019e-06,83.59188768943814,0,90,1.0,3,0.12560593174099255
3.775,8.201353897972012e-07,82.97065162366658,0,90,1.0,3,0.11279694069415636
3.78,4.0791415086824765e-07,82.36811462175282,0,90,1.0,3,0.10037349735572833
3.785,1.9923866938774793e-07,81.79256713225858,0,90,1.0,3,0.08850653880945532
3.79,9.556527981051257e-08,81.25066228233223,0,90,1.0,3,0.07733324293468513
3.795,4.501406988770349e-08,80.74738208861933,0,90,1.0,3,0.06695633172410995
3.8,0.0,80.28607873446397,0,90,1.0,3,0.05744492236008186
3.805,0.0,79.86857938189709,0,90,1.0,3,0.048836688286537984
3.81,0.0,79.49534073235793,0,90,1.0,3,0.04114104602799858
3.815,0.0,79.16563852258219,0,90,1.0,3,0.03434306232128217
3.82,0.0,78.87777725057971,0,90,1.0,3,0.028407778362468283
3.825,0.0,78.62930649821172,0,90,1.0,3,0.023284670066221005
3.83,0.0,78.41723202445405,0,90,1.0,3,0.018912000504207247
3.835,0.0,78.23821209460424,0,90,1.0,3,0.015220867929984254
3.84,0.0,78.08873203469501,0,90,1.0,3,0.01213880483907244
3.845,0.0,77.96525253041911,0,90,1.0,3,0.00959283567874448
3.85,0.0,77.86432953928083,0,90,1.0,3,0.007511949263522293
3.855,0.0,77.78270571628579,0,90,1.0,3,0.005828983840944119
3.86,0.0,77.71737488236141,0,90,1.0,3,0.004481956337348699
3.865,0.0,77.66562225546049,0,90,1.0,3,0.003414891865164761
3.87,0.0,77.62504392401856,0,90,1.0,3,0.0025782252374959933
3.875,0.0,77.59354941106356,0,90,1.0,3,0.001928853836362125
3.88,0.0,77.56935121694374,0,90,1.0,3,0.001429921998840083
3.885,0.0,77.55094501323765,0,90,1.0,3,0.0010504126440752874
3.89,0.0,77.53708376644407,0,90,1.0,3,0.0007646137411148447
3.895,0.0,77.52674856940591,0,90,1.0,3,0.000551516894967225
3.9,0.0,77.51911841333184,0,90,1.0,3,0.00039419408931626234
3.905,0.0,77.51354059343424,0,90,1.0,3,0.00027918749348954564
3.91,0.0,77.509502942787,0,90,1.0,3,0.00019593696468030093
3.915,0.0,77.50660865522913,0,90,1.0,3,0.00013626093255937252
3.92,0.0,77.50455410082121,0,90,1.0,3,9.38989860043252e-05
3.925,0.0,77.50310975912758,0,90,1.0,3,6.411874489860575e-05
3.93,0.0,77.50210419229508,0,90,1.0,3,4.338540814595119e-05
3.935,0.0,77.5014108429276,0,90,1.0,3,2.908954489892485e-05
3.94,0.0,77.5009373601135,0,90,1.0,3,1.932701264941785e-05
3.945,0.0,77.5006171188869,0,90,1.0,3,1.2724100760686775e-05
3.95,0.0,77.50040259258478,0,90,1.0,3,8.30087803663999e-06
3.955,0.0,77.50026025391386,0,90,1.0,3,5.3660600796901395e-06
3.96,0.0,77.50016671064509,0,90,1.0,3,3.437332888444365e-06
3.965,0.0,77.50010581907459,0,90,1.0,3,2.181836589501866e-06
3.97,0.0,77.50006655782953,0,90,1.0,3,1.372326381998232e-06
3.975,0.0,77.50004148288069,0,90,1.0,3,8.553171276209056e-07
3.98,0.0,77.50002561965213,0,90,1.0,3,5.282402502036779e-07
3.985,0.0,77.50001567877452,0,90,1.0,3,3.232737013796705e-07
3.99,0.0,77.500009507921,0,90,1.0,3,1.9603960839086754e-07
3.995,0.0,77.50000571338617,0,90,1.0,3,1.1780177676404698e-07
4.0,0.0,77.50000340201449,0,90,1.0,3,7.014462856148515e-08
4.005,0.0,77.50000200730472,0,90,1.0,3,4.138772608937345e-08
4.01,0.0,77.50000117361327,0,90,1.0,3,2.419821176425609e-08
4.015,0.001684486749771458,77.50000067994108,0,90,1.0,3,1.4019403736420292e-08
4.02,0.004172395771277602,77.50000039034815,0,90,1.0,3,8.048415432397436e-09
4.025,0.009438687428818865,77.50000022205856,0,90,1.0,3,4.5785270099868375e-09
4.03,0.019500507867137046,77.50000012517496,0,90,1.0,3,2.5809270871682247e-09
4.035,0.03679496976339974,77.50000006992009,0,90,1.0,3,1.441651361862578e-09
4.04,0.06340728953298436,77.5000000387009,0,90,1.0,3,7.979567796901017e-10
4.045,0.09979255396093453,77.50000002122633,0,90,1.0,3,4.376562342774387e-10
4.05,0.14343835518453557,77.5000000115362,0,90,1.0,3,2.3785982118648256e-10
4.055,0.18829581417209276,77.50000000621277,0,90,1.0,3,1.2809840244671315e-10
4.06,0.2257481735193119,77.50000000331545,0,90,1.0,3,6.835977831908223e-11
4.065,0.24718154073554727,77.50000000175321,0,90,1.0,3,3.61486053003956e-11
4.07,0.24718154074102772,77.50000000091867,0,90,1.0,3,1.8941750802452552e-11
4.075,0.22574817354072055,77.500000000477,0,90,1.0,3,9.835083492174649e-12
4.08,0.18829581422840957,77.50000000024542,0,90,1.0,3,5.060236307866776e-12
4.085,0.14343835532456656,77.50000000012513,0,90,1.0,3,2.5799293972650234e-12
4.09,0.09979255431561854,77.50000000006321,0,90,1.0,3,1.3032965314065673e-12
4.095,0.06340729067170194,77.50000000003165,0,90,1.0,3,6.525272876444302e-13
4.1,0.03679497683410042,77.5000000000157,0,90,1.0,3,3.237730816556333e-13
4.105,0.019500578284482293,77.50000000000772,0,90,1.0,3,1.5910297134751933e-13
4.11,0.009439396781978427,77.50000000000375,0,90,1.0,3,7.735393082089338e-14
4.115,0.004178588733610924,77.50000000000182,0,90,1.0,3,3.750493615558467e-14
4.12,0.0017299316936037381,77.50000000000087,0,90,1.0,3,1.787344613664582e-14
4.125,0.0008997325756988589,77.50000000000041,0,90,1.0,3,8.497212097749651e-15
4.13,0.001634769674224814,77.5000000000002,0,90,1.0,3,4.102102392017073e-15
4.135,0.00614904736476635,77.50000000000009,0,90,1.0,3,1.7580438822930315e-15
4.14,0.02168080359963608,77.50000000000004,0,90,1.0,3,8.790219411465157e-16
4.145,0.06433400338904088,77.50000000000001,0,90,1.0,3,2.9300731371550523e-16
4.15,0.1593410769217493,77.50000000000001,0,90,1.0,3,2.9300731371550523e-16
4.155,0.3291989194808569,77.5,0,90,1.0,3,0.0
4.16,0.5672906802982638,77.5,0,90,1.0,3,0.0
4.165,0.815339152120446,77.5,0,90,1.0,3,0.0
4.17,0.9768711246313155,77.50000284150002,1,90,1.0,3,5.858762928180591e-08
4.175,0.9726380909165361,77.5000055087254,0,90,1.0,3,1.1358196688794948e-07
4.18,0.7921091683291741,77.50001136395807,0,90,1.0,3,2.3430841373428661e-07
4.185,0.49139090102639077,77.50002585890292,0,90,1.0,3,5.331732559967612e-07
4.19,0.15739335672107918,77.50006577270929,0,90,1.0,3,1.356138335905626e-06
4.195,-0.11102342218909485,77.50018247875063,0,90,1.0,3,3.76244846661487e-06
4.2,-0.2314207883647528,77.50052776496497,0,90,1.0,3,1.0881751855078582e-05
4.205,-0.2029124434754801,77.50152756139154,0,90,1.0,3,3.1496111165786474e-05
4.21,-0.11151350554305876,77.50430755613382,0,90,1.0,3,8.88155903881271e-05
4.215,-0.039430666652076896,77.5116563600092,0,90,1.0,3,0.00024033731977727622
4.22,-0.006087703519843621,77.53002739545968,0,90,1.0,3,0.0006191215558697577
4.225,0.005350271385530551,77.57333096905042,0,90,1.0,3,0.0015119787433075698
4.23,0.010381647827441833,77.66940490223725,0,90,1.0,3,0.0034928845822112743
4.235,0.015115203303506243,77.86976747664984,0,90,1.0,3,0.007624071683501874
4.24,0.021170964062928475,78.26211431813414,0,90,1.0,3,0.01571369728111625
4.245,0.029082821134029553,78.98267513398078,0,90,1.0,3,0.03057062131919128
4.25,0.03923107061708144,80.22218766058688,0,90,1.0,3,0.05612758063065738
4.255,0.051969043308817596,82.21612057642412,0,90,1.0,3,0.09723959951389932
4.26,0.06760532616283861,85.20932922752098,0,90,1.0,3,0.15895524180455634
4.265,0.08636519236693461,89.39039798617173,0,90,1.0,3,0.24516284507570588
4.27,0.10834733138818661,94.8028006534978,0,90,1.0,3,0.35675877636077935
4.275,0.1334809643017884,101.25612781731577,0,90,1.0,3,0.48981706839826333
4.28,0.16148868344343945,108.27370857382006,0,90,1.0,3,0.6345094551303105
4.285,0.191860907532018,115.11341104223824,0,90,1.0,3,0.775534248293572
4.29,0.22384764873847726,120.88000833622657,0,90,1.0,3,0.8944331615716817
4.295,0.25647215537198226,124.71329532894552,0,90,1.0,3,0.9734700067823818
4.3,0.2885689161419028,126.0,0,90,1.0,3,1.0
4.305,0.31884566517832524,124.53834900968857,0,90,1.0,3,0.9698628661791459
4.31,0.3459657668955683,120.59493192202842,0,90,1.0,3,0.8885552973614108
4.315,0.3686441789190902,114.83222413300682,0,90,1.0,3,0.7697365800619963
4.32,0.3857476379544367,108.13422420586735,0,90,1.0,3,0.6316334887807702
4.325,0.3963882865005728,101.3936098555063,0,90,1.0,3,0.492651749598068
4.33,0.4,95.33064507931,0,90,1.0,3,0.3676421665837114
4.335,0.39638828650057273,90.39185276201252,0,90,1.0,3,0.2658113971548973
4.34,0.38574763795443656,86.73955542986523,0,90,1.0,3,0.19050629752299453
4.345,0.36864417891908974,84.31059562557269,0,90,1.0,3,0.14042465207366367
4.35,0.345965766895568,82.9065602268215,0,90,1.0,3,0.11147546859425768
4.355,0.3188456651783249,82.28033336831763,0,90,1.0,3,0.09856357460448717
4.36,0.28856891614190205,82.19778113694667,0,90,1.0,3,0.09686146674116852
4.365,0.2564721553719815,82.46927305071628,0,90,1.0,3,0.1024592381590986
4.37,0.22384764873847685,82.95682150774277,0,90,1.0,3,0.11251178366479946
4.375,0.19186090753201765,83.56687754099825,0,90,1.0,3,0.12509025857728348
4.38,0.16148868344343878,84.23787322707521,0,90,1.0,3,0.1389252211768085
4.385,0.1334809643017881,84.92832444149448,0,90,1.0,3,0.15316132869060786
4.39,0.10834733138818531,85.60801881012263,0,90,1.0,3,0.16717564556953876
4.395,0.08636519236690572,86.25260772478875,0,90,1.0,3,0.18046613865543806
4.4,0.06760532616242629,86.84089403560439,0,90,1.0,3,0.19259575331143078
4.405,0.05196904332202373,87.35388295636871,0,90,1.0,3,0.20317284446121045
4.41,0.03923107185803287,87.77481720348132,0,90,1.0,3,0.21185190110270763
4.415,0.02908287038705761,88.08966243795557,0,90,1.0,3,0.21834355542176428
4.42,0.02117220077308346,88.28771551986046,0,90,1.0,3,0.22242712412083412
4.425,0.0151361834125735,88.36214631799686,0,90,1.0,3,0.22396177975251258
4.43,0.010626454858290009,88.31036736727964,0,90,1.0,3,0.22289417252122967
4.435,0.007326255555493652,88.13417633763018,0,90,1.0,3,0.21926136778618927
4.44,0.004960179211183015,87.83965035915766,0,90,1.0,3,0.213188667199127
4.445,0.0032978759379303545,87.43679744267308,0,90,1.0,3,0.20488242149841407
4.45,0.002153242296767213,86.9389917989111,0,90,1.0,3,0.1946183876064145
4.455,0.001380616732225004,86.36223716698538,0,90,1.0,3,0.18272653952547177
4.46,0.0008693106590991584,85.72431461211428,0,90,1.0,3,0.16957349715699555
4.465,0.000537524815942247,85.04387789533241,0,90,1.0,3,0.15554387413056525
4.47,0.0003263951340288585,84.33956014461978,0,90,1.0,3,0.14102185865195427
4.475,0.00019463030985187395,83.62915046826862,0,90,1.0,3,0.1263742364591468
4.48,0.00011397219555062695,82.92888923969679,0,90,1.0,3,0.11193586061230489
4.485,6.55403863487943e-05,82.25291740154772,0,90,1.0,3,0.09799829693912823
4.49,3.701184389455385e-05,81.61289990625842,0,90,1.0,3,0.08480205992285401
4.495,2.0525516217290957e-05,81.01782800176962,0,90,1.0,3,0.07253253611896114
4.5,1.1178128483661116e-05,80.47399100328275,0,90,1.0,3,0.0613194021295412
4.505,5.978135409912517e-06,79.9850966673004,0,90,1.0,3,0.05123910654227622
4.51,3.1396702713238487e-06,79.55251108450634,0,90,1.0,3,0.04231981617538835
4.515,1.6192875458531019e-06,79.17558445710158,0,90,1.0,3,0.034548133136115024
4.52,8.201353897972012e-07,78.85202811529082,0,90,1.0,3,0.027876868356511774
4.525,4.0791415086824765e-07,78.57831019218708,0,90,1.0,3,0.022233199838908767
4.53,1.9923866938774793e-07,78.35004180586505,0,90,1.0,3,0.01752663517247519
4.535,9.556527981051257e-08,78.16233155760507,0,90,1.0,3,0.013656320775362298
4.54,4.501406988770349e-08,78.01009280593172,0,90,1.0,3,0.01051737744189113
4.545,0.0,77.88829476616297,0,90,1.0,3,0.008006077652844772
4.55,0.0,77.79215442099877,0,90,1.0,3,0.006023802494820002
4.555,0.0,77.71727110655786,0,90,1.0,3,0.004479816630058962
4.56,0.0,77.65970925268655,0,90,1.0,3,0.003292974282196985
4.565,0.0,77.61603707332719,0,90,1.0,3,0.0023925169758183882
4.57,0.0,77.58333012691409,0,90,1.0,3,0.0017181469466823053
4.575,0.0,77.55914879585012,0,90,1.0,3,0.0012195628010334112
4.58,0.0,77.54149811404007,0,90,1.0,3,0.0008556312173209687
4.585,0.0,77.52877725728622,0,90,1.0,3,0.0005933455110561316
4.59,0.0,77.51972463735181,0,90,1.0,3,0.0004066935536456509
4.595,0.0,77.51336310074132,0,90,1.0,3,0.00027552785033640716
4.6,0.0,77.50894837231351,0,90,1.0,3,0.0001845025219280774
4.605,0.0,77.50592269592266,0,90,1.0,3,0.00012211744170440163
4.61,0.0,77.50387465835057,0,90,1.0,3,7.988986289831832e-05
4.615,0.0,77.50250545138663,0,90,1.0,3,5.1658791476807595e-05
4.62,0.0,77.50160131633649,0,90,1.0,3,3.301683168021236e-05
4.625,0.0,77.50101159546982,0,90,1.0,3,2.0857638552975802e-05
4.63,0.0,77.5006316481158,0,90,1.0,3,1.3023672490711779e-05
4.635,0.0,77.50038983616128,0,90,1.0,3,8.037858995371654e-06
4.64,0.0,77.50023780863849,0,90,1.0,3,4.903270896659603e-06
4.645,0.0,77.50014338764066,0,90,1.0,3,2.9564461992214493e-06
4.65,0.0,77.50008545439401,0,90,1.0,3,1.7619462682629541e-06
4.655,0.001684486749771458,77.5000503379664,0,90,1.0,3,1.0378962144255338e-06
4.66,0.004172395771277602,77.50002930863025,0,90,1.0,3,6.04301654562995e-07
4.665,0.009438687428818865,77.50001686684932,0,90,1.0,3,3.47770089106656e-07
4.67,0.019500507867137046,77.50000959424924,0,90,1.0,3,1.9781957185729233e-07
4.675,0.03679496976339974,77.50000539419466,0,90,1.0,3,1.1122050843190777e-07
4.68,0.06340728953298436,77.50000299764929,0,90,1.0,3,6.180720184911667e-08
4.685,0.09979255396093453,77.50000164654504,0,90,1.0,3,3.394938235689233e-08
4.69,0.14343835518453557,77.50000089393305,0,90,1.0,3,1.8431609246878916e-08
4.695,0.18829581417209276,77.50000047970579,0,90,1.0,3,9.890841025930826e-09
4.7,0.2257481735193119,77.5000002544389,0,90,1.0,3,5.246162926755695e-09
4.705,0.24718154073554727,77.50000013339228,0,90,1.0,3,2.750356222265706e-09
4.71,0.24718154074102772,77.50000006912201,0,90,1.0,3,1.4251960711243151e-09
4.715,0.22574817354072055,77.50000003540305,0,90,1.0,3,7.299597444253993e-10
4.72,0.18829581422840957,77.5000000179227,0,90,1.0,3,3.695402380433678e-10
4.725,0.14343835532456656,77.5000000089682,0,90,1.0,3,1.8491134854689477e-10
4.73,0.09979255431561854,77.50000000443552,0,90,1.0,3,9.145402877151092e-11
4.735,0.06340729067170194,77.50000000216832,0,90,1.0,3,4.4707641941339216e-11
4.74,0.03679497683410042,77.50000000104771,0,90,1.0,3,2.160225721098934e-11
4.745,0.019500578284482293,77.50000000050038,0,90,1.0,3,1.0317080523236655e-11
4.75,0.009439396781978427,77.5000000002362,0,90,1.0,3,4.870074561265413e-12
4.755,0.004178588733610924,77.5000000001102,0,90,1.0,3,2.272271717863743e-12
4.76,0.0017299316936037381,77.50000000005083,0,90,1.0,3,1.0480871611603622e-12
4.765,0.0008997325756988589,77.50000000002316,0,90,1.0,3,4.776019213562735e-13
4.77,0.001634769674224814,77.50000000001044,0,90,1.0,3,2.1536037558089634e-13
4.775,0.00614904736476635,77.50000000000465,0,90,1.0,3,9.581339158497021e-14
4.78,0.02168080359963608,77.50000000000205,0,90,1.0,3,4.2193053175032755e-14
4.785,0.06433400338904088,77.5000000000009,0,90,1.0,3,1.845946076407683e-14
4.79,0.1593410769217493,77.50000000000038,0,90,1.0,3,7.911197470318642e-15
4.795,0.3291989194808569,77.50000000000016,0,90,1.0,3,3.2230804508705575e-15
4.8,0.5672906802982638,77.50000000000007,0,90,1.0,3,1.465036568577526e-15
4.805,0.815339152120446,77.50000000000003,0,90,1.0,3,5.860146274310105e-16
4.81,0.9768711246313155,77.50000000000001,0,90,1.0,3,2.9300731371550523e-16
4.815,0.9726380909165361,77.5,0,90,1.0,3,0.0
4.82,0.7921091683291741,77.5,0,90,1.0,4,0.0
4.825,0.49139090102639077,77.5,0,90,1.0,4,0.0
4.83,0.15739335672107918,77.50000284359693,1,90,1.0,4,5.8630864561995826e-08
4.835,-0.11102342218909485,77.50000548419933,0,90,1.0,4,1.1307627494144193e-07
4.84,-0.2314207883647528,77.50001124088986,0,90,1.0,4,2.317709249813767e-07
4.845,-0.2029124434754801,77.50002536697961,0,90,1.0,4,5.230305075000024e-07
4.85,-0.11151350554305876,77.50006389056809,0,90,1.0,4,1.3173313007395262e-06
4.855,-0.039430666652076896,77.50017550461766,0,90,1.0,4,3.6186519104816886e-06
4.86,-0.006087703519843621,77.50050312573545,0,90,1.0,4,1.037372650410024e-05
4.865,0.005350271385530551,77.50144560488555,0,90,1.0,4,2.9806286299926985e-05
4.87,0.010381647827441833,77.50405253381912,0,90,1.0,4,8.355739833237495e-05
4.875,0.015115203303506243,77.51091584732082,0,90,1.0,4,0.0002250690169240588
4.88,0.021170964062928475,77.52802210333864,0,90,1.0,4,0.0005777753265699489
4.885,0.029082821134029553,77.56826624200473,0,90,1.0,4,0.0014075513815407234
4.89,0.03923107061708144,77.65747108052543,0,90,1.0,4,0.003246826402586094
4.895,0.051969043308817596,77.84353029025743,0,90,1.0,4,0.007083098768194506
4.9,0.06760532616283861,78.208294728616,0,90,1.0,4,0.014604015023010236
4.905,0.08636519236693461,78.87971080766134,0,90,1.0,4,0.02844764551879051
4.91,0.10834733138818661,80.03860769687986,0,90,1.0,4,0.052342426739791025
4.915,0.1334809643017884,81.9114678020172,0,90,1.0,4,0.0909580990106639
4.92,0.16148868344343945,84.73967911802492,0,90,1.0,4,0.14927173439226646
4.925,0.191860907532018,88.71983424376735,0,90,1.0,4,0.23133678853128561
4.93,0.22384764873847726,93.92009701837561,0,90,1.0,4,0.3385587014098065
4.935,0.25647215537198226,100.19265177353559,0,90,1.0,4,0.46788972728939354
4.94,0.2885689161419028,107.11553201194583,0,90,1.0,4,0.6106295260195017
4.945,0.31884566517832524,113.99980843728613,0,90,1.0,4,0.7525733698409512
4.95,0.3459657668955683,119.98355460807562,0,90,1.0,4,0.8759495795479509
4.955,0.3686441789190902,124.2034706308707,0,90,1.0,4,0.9629581573375402
4.96,0.3857476379544367,126.0,0,90,1.0,4,1.0
4.965,0.3963882865005728,125.0896730388076,0,90,1.0,4,0.9812303719341774
4.97,0.4,121.64309031720336,0,90,1.0,4,0.9101668106639867
4.975,0.39638828650057273,116.23941024525399,0,90,1.0,4,0.7987507267062679
4.98,0.38574763795443656,109.71438740562652,0,90,1.0,4,0.6642141733118871
4.985,0.36864417891908974,102.95711288915504,0,90,1.0,4,0.5248889255495884
4.99,0.345965766895568,96.72341910788755,0,90,1.0,4,0.39635915686366086
4.995,0.3188456651783249,91.51813811820595,0,90,1.0,4,0.28903377563311244
5.0,0.28856891614190205,87.5651096594767,0,90,1.0,4,0.2075280342160145
5.005,0.2564721553719815,84.85055753012354,0,90,1.0,4,0.15155788721904204
5.01,0.22384764873847685,83.20599367449054,0,90,1.0,4,0.11764935411320707
5.015,0.19186090753201765,82.39522658019695,0,90,1.0,4,0.10093250680818448
5.02,0.16148868344343878,82.18134970860318,0,90,1.0,4,0.09652267440418925
5.025,0.1334809643017881,82.36490781207327,0,90,1.0,4,0.10030737756852103
5.03,0.10834733138818531,82.79649701173709,0,90,1.0,4,0.10920612395334202
5.035,0.08636519236690572,83.37281201706614,0,90,1.0,4,0.12108890756837398
5.04,0.06760532616242629,84.02539184144003,0,90,1.0,4,0.1345441616791758
5.045,0.05196904332202373,84.70859251846929,0,90,1.0,4,0.14863077357668636
5.05,0.03923107185803287,85.39005201648826,0,90,1.0,4,0.1626814848760465
5.055,0.02908287038705761,86.044472758779,0,90,1.0,4,0.17617469605729885
5.06,0.02117220077308346,86.65025529584166,0,90,1.0,4,0.1886650576462198
5.065,0.0151361834125735,87.18810890053072,0,90,1.0,4,0.19975482269135508
5.07,0.010626454858290009,87.64083038423249,0,90,1.0,4,0.2090892862728348
5.075,0.007326255555493652,87.99366494888493,0,90,1.0,4,0.21636422575020467
5.08,0.004960179211183015,88.23487689607546,0,90,1.0,4,0.2213376679603188
5.085,0.0032978759379303545,88.35631072246048,0,90,1.0,4,0.2238414581950614
5.09,0.002153242296767213,88.35381801207184,0,90,1.0,4,0.22379006210457403
5.095,0.001380616732225004,88.22748246937488,0,90,1.0,4,0.22118520555412116
5.1,0.0008693106590991584,87.98161207029037,0,90,1.0,4,0.21611571278949213
5.105,0.000537524815942247,87.62449423525337,0,90,1.0,4,0.20875245845883228
5.11,0.0003263951340288585,87.1679318019965,0,90,1.0,4,0.199338800041165
5.115,0.00019463030985187395,86.62659553682514,0,90,1.0,4,0.18817722756340485
5.12,0.00011397219555062695,86.01724256371354,0,90,1.0,4,0.1756132487363616
5.125,6.55403863487943e-05,85.35785865287932,0,90,1.0,4,0.16201770418307868
5.13,3.701184389455385e-05,84.66678530372789,0,90,1.0,4,0.1477687691490287
5.135,2.0525516217290957e-05,83.96189001381458,0,90,1.0,4,0.1332348456456615
5.14,1.1178128483661116e-05,83.25983064690726,0,90,1.0,4,0.11875939478159302
5.145,5.978135409912517e-06,82.57545348721757,0,90,1.0,4,0.10464852550964067
5.15,3.1396702713238487e-06,81.92135081114074,0,90,1.0,4,0.09116187239465445
5.155,1.6192875458531019e-06,81.30758917718623,0,90,1.0,4,0.07850699334404598
5.16,8.201353897972012e-07,80.74160562584288,0,90,1.0,4,0.06683722939882226
5.165,4.0791415086824765e-07,80.22825686325584,0,90,1.0,4,0.05625271883001725
5.17,1.9923866938774793e-07,79.76999719568829,0,90,1.0,4,0.046804065890480216
5.175,9.556527981051257e-08,79.36715499256925,0,90,1.0,4,0.03849804108390215
5.18,4.501406988770349e-08,79.01827487455601,0,90,1.0,4,0.03130463658878378
5.185,0.0,78.72049337182925,0,90,1.0,4,0.0251648117902938
5.19,0.0,78.46991891897598,0,90,1.0,4,0.01999832822630882
5.195,0.0,78.26199201676988,0,90,1.0,4,0.015711175603502697
5.2,0.0,78.09180740822781,0,90,1.0,4,0.01220221460263522
5.205,0.0,77.95438643595452,0,90,1.0,4,0.009368792493907593
5.21,0.0,77.8448937347729,0,90,1.0,4,0.007111211026245273
5.215,0.0,77.75879759554243,0,90,1.0,4,0.005336032897782116
5.22,0.0,77.69197742146481,0,90,1.0,4,0.003958297349789957
5.225,0.0,77.640784569316,0,90,1.0,4,0.0029027746250721038
5.23,0.0,77.60206455450907,0,90,1.0,4,0.0021044238043107246
5.235,0.0,77.5731492398329,0,90,1.0,4,0.0015082317491319794
5.24,0.0,77.55182743021956,0,90,1.0,4,0.0010686068086507364
5.245,0.0,77.53630149568863,0,90,1.0,4,0.0007484844471883127
5.25,0.0,77.52513647346169,0,90,1.0,4,0.0005182778033337254
5.255,0.0,77.51720676241366,0,90,1.0,4,0.0003547786064673088
5.26,0.0,77.511644181374,0,90,1.0,4,0.00024008621389681167
5.265,0.0,77.50778993342809,0,90,1.0,4,0.00016061718408424248
5.27,0.0,77.50515197226336,0,90,1.0,4,0.00010622623223428528
5.275,0.0,77.50336843577756,0,90,1.0,4,6.945228407339903e-05
5.28,0.0,77.50217719842811,0,90,1.0,4,4.489068923947381e-05
5.285,0.0,77.50139117811788,0,90,1.0,4,2.868408490484136e-05
5.29,0.0,77.50087878462313,0,90,1.0,4,1.8119270579912145e-05
5.295,0.0,77.50054877857231,0,90,1.0,4,1.1315022109465176e-05
5.3,0.0,77.50033878707026,0,90,1.0,4,6.985300417782878e-06
5.305,0.0,77.50020676236647,0,90,1.0,4,4.263141576790151e-06
5.31,0.0,77.50012474729766,0,90,1.0,4,2.5721092301349007e-06
5.315,0.0,77.50007440562757,0,90,1.0,4,1.5341366509712372e-06
5.32,0.0,77.5000438728055,0,90,1.0,4,9.045939279563829e-07
5.325,0.0,77.50002557407974,0,90,1.0,4,5.273006132535284e-07
5.33,0.0,77.50001473735715,0,90,1.0,4,3.038630339786548e-07
5.335,0.0,77.50000839564733,0,90,1.0,4,1.7310613046545994e-07
5.34,0.001684486749771458,77.50000472828614,0,90,1.0,4,9.74904359394451e-08
5.345,0.004172395771277602,77.50000263249952,0,90,1.0,4,5.4278340539238665e-08
5.35,0.009438687428818865,77.50000144893144,0,90,1.0,4,2.987487510067366e-08
5.355,0.019500507867137046,77.50000078839227,0,90,1.0,4,1.6255510733581387e-08
5.36,0.03679496976339974,77.50000042408398,0,90,1.0,4,8.743999558777732e-09
5.365,0.06340728953298436,77.50000022551548,0,90,1.0,4,4.649803676113958e-09
5.37,0.09979255396093453,77.5000001185539,0,90,1.0,4,2.4444102915911515e-09
5.375,0.14343835518453557,77.50000006161271,0,90,1.0,4,1.270365146410768e-09
5.38,0.18829581417209276,77.5000000316548,0,90,1.0,4,6.526764283671113e-10
5.385,0.2257481735193119,77.5000000160777,0,90,1.0,4,3.3149909850368374e-10
5.39,0.24718154073554727,77.50000000807279,0,90,1.0,4,1.664492507169945e-10
5.395,0.24718154074102772,77.50000000400718,0,90,1.0,4,8.262220232149817e-11
5.4,0.22574817354072055,77.50000000196638,0,90,1.0,4,4.054400801344189e-11
5.405,0.18829581422840957,77.50000000095392,0,90,1.0,4,1.9668408940467004e-11
5.41,0.14343835532456656,77.50000000045748,0,90,1.0,4,9.432491443129545e-12
5.415,0.09979255431561854,77.50000000021689,0,90,1.0,4,4.471877621926041e-12
5.42,0.06340729067170194,77.50000000010165,0,90,1.0,4,2.095881315007009e-12
5.425,0.03679497683410042,77.5000000000471,0,90,1.0,4,9.710262376531843e-13
5.43,0.019500578284482293,77.50000000002157,0,90,1.0,4,4.4478510222013693e-13
5.435,0.009439396781978427,77.50000000000976,0,90,1.0,4,2.0129602452255209e-13
5.44,0.004178588733610924,77.50000000000438,0,90,1.0,4,9.02462526243756e-14
5.445,0.0017299316936037381,77.50000000000193,0,90,1.0,4,3.984899466530871e-14
5.45,0.0008997325756988589,77.50000000000085,0,90,1.0,4,1.7580438822930315e-14
5.455,0.001634769674224814,77.50000000000037,0,90,1.0,4,7.618190156603136e-15
5.46,0.00614904736476635,77.50000000000016,0,90,1.0,4,3.2230804508705575e-15
5.465,0.02168080359963608,77.50000000000007,0,90,1.0,4,1.465036568577526e-15
5.47,0.06433400338904088,77.50000000000003,0,90,1.0,4,5.860146274310105e-16
5.475,0.1593410769217493,77.50000000000001,0,90,1.0,4,2.9300731371550523e-16
5.48,0.3291989194808569,77.5,0,90,1.0,4,0.0
5.485,0.5672906802982638,77.5,0,90,1.0,4,0.0
5.49,0.815339152120446,77.5,0,90,1.0,4,0.0
5.495,0.9768711246313155,77.50000284586159,1,90,1.0,4,5.8677558500516847e-08
5.5,0.9726380909165361,77.50000570245213,0,90,1.0,4,1.1757633254176457e-07
5.505,0.7921091683291741,77.50001225806744,0,90,1.0,4,2.527436586159141e-07
5.51,0.49139090102639077,77.50002942758579,0,90,1.0,4,6.067543461202937e-07
5.515,0.15739335672107918,77.50007969525397,0,90,1.0,4,1.6432011128453615e-06
5.52,-0.11102342218909485,77.50023533387187,0,90,1.0,4,4.8522447808367e-06
5.525,-0.2314207883647528,77.50071883774795,0,90,1.0,4,1.4821396865024148e-05
5.53,-0.2029124434754801,77.50217579271153,0,90,1.0,4,4.4861705392288955e-05
5.535,-0.11151350554305876,77.50635725002037,0,90,1.0,4,0.00013107732000766818
5.54,-0.039430666652076896,77.51768141331813,0,90,1.0,4,0.0003645652230542177
5.545,-0.006087703519843621,77.54648137072928,0,90,1.0,4,0.0009583787779233389
5.55,0.005350271385530551,77.61508024410816,0,90,1.0,4,0.002372788538312508
5.555,0.010381647827441833,77.76784731218491,0,90,1.0,4,0.005522624993503347
5.56,0.015115203303506243,78.08549326951349,0,90,1.0,4,0.012072026175535917
5.565,0.021170964062928475,78.70138007120593,0,90,1.0,4,0.024770723117648087
5.57,0.029082821134029553,79.81333731768606,0,90,1.0,4,0.047697676653320885
5.575,0.03923107061708144,81.67953161509834,0,90,1.0,4,0.08617590958965651
5.58,0.051969043308817596,84.58445788628454,0,90,1.0,4,0.1460712966244235
5.585,0.06760532616283861,88.76559186610127,0,90,1.0,4,0.23228024466188196
5.59,0.08636519236693461,94.30580224572596,0,90,1.0,4,0.34651138650981356
5.595,0.10834733138818661,101.01908127568012,0,90,1.0,4,0.4849295108387654
5.6,0.1334809643017884,108.37758909741606,0,90,1.0,4,0.6366513215962075
5.605,0.16148868344343945,115.53155299925712,0,90,1.0,4,0.7841557319434457
5.61,0.191860907532018,121.44932005335616,0,90,1.0,4,0.9061715474918796
5.615,0.22384764873847726,125.15631195469562,0,90,1.0,4,0.9826043701999098
5.62,0.25647215537198226,126.0,0,90,1.0,4,1.0
5.625,0.2885689161419028,123.8427949295679,0,90,1.0,4,0.9555215449395443
5.63,0.31884566517832524,119.10508764276156,0,90,1.0,4,0.8578368586136405
5.635,0.3459657668955683,112.64051130847515,0,90,1.0,4,0.7245466249170135
5.64,0.3686441789190902,105.4947173494078,0,90,1.0,4,0.5772106669980989
5.645,0.3857476379544367,98.64157127935391,0,90,1.0,4,0.4359086861722456
5.65,0.3963882865005728,92.7872202864701,0,90,1.0,4,0.3152004182777341
5.655,0.4,88.29055850091387,0,90,1.0,4,0.222485742286884
5.66,0.39638828650057273,85.19499150634792,0,90,1.0,4,0.15865961868758593
5.665,0.38574763795443656,83.32841126591062,0,90,1.0,4,0.1201734281631055
5.67,0.36864417891908974,82.41862451624381,0,90,1.0,4,0.10141493847925381
5.675,0.345965766895568,82.1853521137011,0,90,1.0,4,0.09660519822064124
5.68,0.3188456651783249,82.39306572658664,0,90,1.0,4,0.10088795312549777
5.685,0.28856891614190205,82.86818610804693,0,90,1.0,4,0.11068424965045211
5.69,0.2564721553719815,83.49352503596295,0,90,1.0,4,0.12357783579305044
5.695,0.22384764873847685,84.19327652565775,0,90,1.0,4,0.13800570155995362
5.7,0.19186090753201765,84.91762339581283,0,90,1.0,4,0.1529406885734603
5.705,0.16148868344343878,85.63113017574868,0,90,1.0,4,0.16765216857213774
5.71,0.1334809643017881,86.30565243766684,0,90,1.0,4,0.18155984407560488
5.715,0.10834733138818531,86.91685513029627,0,90,1.0,4,0.19416196144940762
5.72,0.08636519236690572,87.44305757969148,0,90,1.0,4,0.2050114964884842
5.725,0.06760532616242629,87.86533772288807,0,90,1.0,4,0.2137183035647025
5.73,0.05196904332202373,88.16817973634383,0,90,1.0,4,0.21996246879059445
5.735,0.03923107185803287,88.3402384667518,0,90,1.0,4,0.22351007147941854
5.74,0.02908287038705761,88.37498162664085,0,90,1.0,4,0.22422642529156384
5.745,0.02117220077308346,88.27108106749418,0,90,1.0,4,0.22208414572152949
5.75,0.0151361834125735,88.03249098378444,0,90,1.0,4,0.21716476255225653
5.755,0.010626454858290009,87.66819648788929,0,90,1.0,4,0.20965353583276886
5.76,0.007326255555493652,87.19165162443677,0,90,1.0,4,0.1998278685450881
5.765,0.004960179211183015,86.61995488836745,0,90,1.0,4,0.18804030697664836
5.77,0.0032978759379303545,85.97283240911523,0,90,1.0,4,0.1746975754456748
5.775,0.002153242296767213,85.27151291372265,0,90,1.0,4,0.16023737966438445
5.78,0.001380616732225004,84.53758349445417,0,90,1.0,4,0.14510481431864264
5.785,0.0008693106590991584,83.79191110989592,0,90,1.0,4,0.1297301259772355
5.79,0.000537524815942247,83.05370269529314,0,90,1.0,4,0.11450933392356989
5.795,0.0003263951340288585,82.33975866855332,0,90,1.0,4,0.09978883852687248
5.8,0.00019463030985187395,81.66395297564524,0,90,1.0,4,0.08585470052876794
5.805,0.00011397219555062695,81.03695029627794,0,90,1.0,4,0.07292681023253478
5.81,6.55403863487943e-05,80.46615012462807,0,90,1.0,4,0.06115773452841386
5.815,3.701184389455385e-05,79.95583016691808,0,90,1.0,4,0.05063567354470261
5.82,2.0525516217290957e-05,79.50744919237871,0,90,1.0,4,0.04139070499749928
5.825,1.1178128483661116e-05,79.12006270877623,0,90,1.0,4,0.03340335482012848
5.83,5.978135409912517e-06,78.7908034547283,0,90,1.0,4,0.02661450422120217
5.835,3.1396702713238487e-06,78.51538196065025,0,90,1.0,4,0.020935710528871037
5.84,1.6192875458531019e-06,78.28856917829346,0,90,1.0,4,0.016259158315329016
5.845,8.201353897972012e-07,78.1046320774523,0,90,1.0,4,0.012466640772212247
5.85,4.0791415086824765e-07,77.95770283268605,0,90,1.0,4,0.009437171807959853
5.855,1.9923866938774793e-07,77.8420716221398,0,90,1.0,4,0.007053023136903054
5.86,9.556527981051257e-08,77.75240126350023,0,90,1.0,4,0.005204149762891385
5.865,4.501406988770349e-08,77.68386837283725,0,90,1.0,4,0.0037911004708711957
5.87,0.0,77.63224022257143,0,90,1.0,4,0.0027266025272458896
5.875,0.0,77.593899037566,0,90,1.0,4,0.0019360626302268875
5.88,0.0,77.56582634489853,0,90,1.0,4,0.0013572442247118605
5.885,0.0,77.54555954431204,0,90,1.0,4,0.0009393720476709601
5.89,0.0,77.53113149901236,0,90,1.0,4,0.0006418865775744446
5.895,0.0,77.5210020517766,0,90,1.0,4,0.00043303199539392604
5.9,0.0,77.51398828420264,0,90,1.0,4,0.0002884182309822584
5.905,0.0,77.50919831335803,0,90,1.0,4,0.00018965594552633241
5.91,0.0,77.50597163128171,0,90,1.0,4,0.0001231264181795915
5.915,0.0,77.50382753172264,0,90,1.0,4,7.891817984814552e-05
5.92,0.0,77.50242206416318,0,90,1.0,4,4.9939467282149394e-05
5.925,0.0,77.50151319019876,0,90,1.0,4,3.119979791266787e-05
5.93,0.0,77.5009333454743,0,90,1.0,4,1.9244236583388782e-05
5.935,0.0,77.50056837159171,0,90,1.0,4,1.171900189095928e-05
5.94,0.0,77.50034171443933,0,90,1.0,4,7.045658542878787e-06
5.945,0.0,77.50020283146561,0,90,1.0,4,4.182092074523604e-06
5.95,0.0,77.50011886345717,0,90,1.0,4,2.450792931437352e-06
5.955,0.0,77.50006877053725,0,90,1.0,4,1.4179492217356982e-06
5.96,0.0,77.50003928235421,0,90,1.0,4,8.099454475996026e-07
5.965,0.0,77.50002215305511,0,90,1.0,4,4.567640229483398e-07
5.97,0.001684486749771458,77.50001233419412,0,90,1.0,4,2.5431328092204194e-07
5.975,0.004172395771277602,77.50000677998857,0,90,1.0,4,1.39793578701409e-07
5.98,0.009438687428818865,77.50000367949464,0,90,1.0,4,7.586586885858215e-08
5.985,0.019500507867137046,77.50000197146203,0,90,1.0,4,4.064870157768363e-08
5.99,0.03679496976339974,77.50000104286885,0,90,1.0,4,2.150245042272574e-08
5.995,0.06340728953298436,77.50000054464309,0,90,1.0,4,1.1229754354363397e-08
6.0,0.09979255396093453,77.50000028082472,0,90,1.0,4,5.7902004474018806e-09
6.005,0.14343835518453557,77.50000014295512,0,90,1.0,4,2.9475281688477126e-09
6.01,0.18829581417209276,77.50000007184642,0,90,1.0,4,1.481369382258656e-09
6.015,0.2257481735193119,77.50000003564934,0,90,1.0,4,7.350378541794027e-10
6.02,0.24718154073554727,77.5000000174638,0,90,1.0,4,3.6007844586886665e-10
6.025,0.24718154074102772,77.50000000844632,0,90,1.0,5,1.7415094795800654e-10
6.03,0.22574817354072055,77.50000000403308,0,90,1.0,5,8.315635465440153e-11
6.035,0.18829581422840957,77.50000000190128,0,90,1.0,5,3.920174150931116e-11
6.04,0.14343835532456656,77.50000000088491,0,90,1.0,5,1.824556542506451e-11
6.045,0.09979255431561854,77.50000000040662,0,90,1.0,5,8.383818267341751e-12
6.05,0.06340729067170194,77.50000000018447,0,90,1.0,5,3.803527939340973e-12
6.055,0.03679497683410042,77.50000000008262,0,90,1.0,5,1.7035445219419474e-12
6.06,0.019500578284482293,77.50000000003654,0,90,1.0,5,7.53321803562564e-13
6.065,0.009439396781978427,77.50000000001594,0,90,1.0,5,3.2875420598879686e-13
6.07,0.004178588733610924,77.50000000000688,0,90,1.0,5,1.4181553983830453e-13
6.075,0.0017299316936037381,77.50000000000293,0,90,1.0,5,6.035950662539408e-14
6.08,0.0008997325756988589,77.50000000000122,0,90,1.0,5,2.519862897953345e-14
6.085,0.001634769674224814,77.50000000000051,0,90,1.0,5,1.0548263293758189e-14
6.09,0.00614904736476635,77.50000000000021,0,90,1.0,5,4.395109705732579e-15
6.095,0.02168080359963608,77.50000000000009,0,90,1.0,5,1.7580438822930315e-15
6.1,0.06433400338904088,77.50000000000003,0,90,1.0,5,5.860146274310105e-16
6.105,0.1593410769217493,77.50000000000001,0,90,1.0,5,2.9300731371550523e-16
6.11,0.3291989194808569,77.5,0,90,1.0,5,0.0
6.115,0.5672906802982638,77.5,0,90,1.0,5,0.0
6.12,0.815339152120446,77.5,0,90,1.0,5,0.0
6.125,0.9768711246313155,77.50000284403532,1,90,1.0,5,5.8639903544616635e-08
6.13,0.9726380909165361,77.50000563434857,0,90,1.0,5,1.161721354257923e-07
6.135,0.7921091683291741,77.50001194034442,0,90,1.0,5,2.4619266848754496e-07
6.14,0.49139090102639077,77.50002813743002,0,90,1.0,5,5.801531963196297e-07
6.145,0.15739335672107918,77.50007456926916,0,90,1.0,5,1.5375107043195215e-06
6.15,-0.11102342218909485,77.50021555237494,0,90,1.0,5,4.444378864730322e-06
6.155,-0.2314207883647528,77.50064634651709,0,90,1.0,5,1.332673231106653e-05
6.16,-0.2029124434754801,77.50192715835341,0,90,1.0,5,3.973522378166224e-05
6.165,-0.11151350554305876,77.50556436458237,0,90,1.0,5,0.00011472916664678985
6.17,-0.039430666652076896,77.5153360380951,0,90,1.0,5,0.0003162069710329893
6.175,-0.006087703519843621,77.54004933030063,0,90,1.0,5,0.0008257593876419144
6.18,0.005350271385530551,77.59872426259801,0,90,1.0,5,0.002035551806144569
6.185,0.010381647827441833,77.72927397114614,0,90,1.0,5,0.004727298374147262
6.19,0.015115203303506243,78.0011213460085,0,90,1.0,5,0.01033239888677326
6.195,0.021170964062928475,78.53026214977955,0,90,1.0,5,0.02124251855215558
6.2,0.029082821134029553,79.49175422945842,0,90,1.0,5,0.041067097514606646
6.205,0.03923107061708144,81.12018821167895,0,90,1.0,5,0.0746430559109062
6.21,0.051969043308817596,83.68572301825407,0,90,1.0,5,0.12754068078874364
6.215,0.06760532616283861,87.43548636982642,0,90,1.0,5,0.204855389068586
6.22,0.08636519236693461,92.5008021671065,0,90,1.0,5,0.30929489004343297
6.225,0.10834733138818661,98.78935026029112,0,90,1.0,5,0.4389556754699199
6.23,0.1334809643017884,105.90117170753103,0,90,1.0,5,0.585591169227444
6.235,0.16148868344343945,113.11621193300405,0,90,1.0,5,0.7343548852165784
6.24,0.191860907532018,119.48749438013431,0,90,1.0,5,0.8657215336110167
6.245,0.22384764873847726,124.03653874510518,0,90,1.0,5,0.9595162627856737
6.25,0.25647215537198226,126.0,0,90,1.0,5,1.0
6.255,0.2885689161419028,125.04326482741723,0,90,1.0,5,0.9802735015962316
6.26,0.31884566517832524,121.35937653466117,0,90,1.0,5,0.9043170419517766
6.265,0.3459657668955683,115.61360140385835,0,90,1.0,5,0.7858474516259455
6.27,0.3686441789190902,108.75594891707162,0,90,1.0,5,0.6444525549911674
6.275,0.3857476379544367,101.77461151529064,0,90,1.0,5,0.5005074539235185
6.28,0.3963882865005728,95.47810717617381,0,90,1.0,5,0.37068262218915066
6.285,0.4,90.36949924832,0,90,1.0,5,0.26535049996536075
6.29,0.39638828650057273,86.62992216347705,0,90,1.0,5,0.18824581780365046
6.295,0.38574763795443656,84.18612234560806,0,90,1.0,5,0.1378581926929496
6.3,0.36864417891908974,82.81567309579101,0,90,1.0,5,0.1096015071297116
6.305,0.345965766895568,82.24668045311486,0,90,1.0,5,0.09786970006422396
6.31,0.3188456651783249,82.22677563441158,0,90,1.0,5,0.09745929143116662
6.315,0.28856891614190205,82.55618463062414,0,90,1.0,5,0.10425122949740505
6.32,0.2564721553719815,83.09295775268306,0,90,1.0,5,0.11531871655016625
6.325,0.22384764873847685,83.74288099322293,0,90,1.0,5,0.12871919573655516
6.33,0.19186090753201765,84.44470761789947,0,90,1.0,5,0.1431898477917416
6.335,0.16148868344343878,85.15701212826306,0,90,1.0,5,0.15787653872707344
6.34,0.1334809643017881,85.84902108131057,0,90,1.0,5,0.17214476456310449
6.345,0.10834733138818531,86.49535961413758,0,90,1.0,5,0.18547133225025947
6.35,0.08636519236690572,87.07368281210313,0,90,1.0,5,0.1973955218990336
6.355,0.06760532616242629,87.56407233300035,0,90,1.0,5,0.2075066460412444
6.36,0.05196904332202373,87.94934169797176,0,90,1.0,5,0.21545034428807755
6.365,0.03923107185803287,88.21569761819234,0,90,1.0,5,0.22094221893180077
6.37,0.02908287038705761,88.35343302302121,0,90,1.0,5,0.22378212418600435
6.375,0.02117220077308346,88.35747043745516,0,90,1.0,5,0.22386536984443636
6.38,0.0151361834125735,88.22765859398775,0,90,1.0,5,0.22118883698943825
6.385,0.010626454858290009,87.96877763919233,0,90,1.0,5,0.21585108534417166
6.39,0.007326255555493652,87.59024579975109,0,90,1.0,5,0.20804630514950698
6.395,0.004960179211183015,87.10555038207744,0,90,1.0,5,0.19805258519747296
6.4,0.0032978759379303545,86.53145038403952,0,90,1.0,5,0.18621547183586631
6.405,0.002153242296767213,85.88701624442398,0,90,1.0,5,0.17292816998812321
6.41,0.001380616732225004,85.1925832624303,0,90,1.0,5,0.1586099641738207
6.415,0.0008693106590991584,84.46869833167638,0,90,1.0,5,0.14368450168404903
6.42,0.000537524815942247,83.73513500639436,0,90,1.0,5,0.1285594846679249
6.425,0.0003263951340288585,83.0100405618299,0,90,1.0,5,0.11360908374907003
6.43,0.00019463030985187395,82.30926233944837,0,90,1.0,5,0.09916004823604879
6.435,0.00011397219555062695,81.6458814331628,0,90,1.0,5,0.08548209140541854
6.44,6.55403863487943e-05,81.02996195780577,0,90,1.0,5,0.07278272077950036
6.445,3.701184389455385e-05,80.46850585648903,0,90,1.0,5,0.06120630631936147
6.45,2.0525516217290957e-05,79.96558814237727,0,90,1.0,5,0.05083686891499528
6.455,1.1178128483661116e-05,79.52263674653703,0,90,1.0,5,0.04170385044406251
6.46,5.978135409912517e-06,79.13881522901951,0,90,1.0,5,0.03379000472205183
6.465,3.1396702713238487e-06,78.81146536827063,0,90,1.0,5,0.02704052305712643
6.47,1.6192875458531019e-06,78.53656943790337,0,90,1.0,5,0.02137256572996633
6.475,8.201353897972012e-07,78.30919783276481,0,90,1.0,5,0.016684491397212564
6.48,4.0791415086824765e-07,78.12391547782335,0,90,1.0,5,0.012864236656151455
6.485,1.9923866938774793e-07,77.97512900761184,0,90,1.0,5,0.009796474383749296
6.49,9.556527981051257e-08,77.85736504432592,0,90,1.0,5,0.007368351429400348
6.495,4.501406988770349e-08,77.76547726284619,0,90,1.0,5,0.005473757996828657
6.5,0.0,77.69478581665143,0,90,1.0,5,0.00401620240518417
6.505,0.0,77.6411568854654,0,90,1.0,5,0.00291045124670941
6.51,0.0,77.60103260291042,0,90,1.0,5,0.002083146451761279
6.515,0.0,77.57142261616407,0,90,1.0,5,0.0014726312611148655
6.52,0.0,77.54986831612662,0,90,1.0,5,0.0010282127036416499
6.525,0.0,77.53438970032784,0,90,1.0,5,0.0007090659861409428
6.53,0.0,77.52342323181401,0,90,1.0,5,0.00048295323327850095
6.535,0.0,77.5157572338132,0,90,1.0,5,0.0003248914188289516
6.54,0.0,77.5104695467323,0,90,1.0,5,0.0002158669429339278
6.545,0.0,77.50687053439142,0,90,1.0,5,0.0001416605029159711
6.55,0.0,77.50445315583923,0,90,1.0,5,9.18176461696771e-05
6.555,0.0,77.50285075573734,0,90,1.0,5,5.8778468811167315e-05
6.56,0.0,77.50180246507347,0,90,1.0,5,3.7164228318914934e-05
6.565,0.0,77.50112561130648,0,90,1.0,5,2.320848054592744e-05
6.57,0.0,77.50069426420308,0,90,1.0,5,1.4314725836628867e-05
6.575,0.0,77.50042293715272,0,90,1.0,5,8.720353664334793e-06
6.58,0.0,77.50025447295847,0,90,1.0,5,5.246865123178123e-06
6.585,0.0,77.5001512245073,0,90,1.0,5,3.1180310784715326e-06
6.59,0.0,77.50008876003304,0,90,1.0,5,1.8301037739641372e-06
6.595,0.0,77.50005145498665,0,90,1.0,5,1.0609275597237956e-06
6.6,0.0,77.50002946132142,0,90,1.0,5,6.074499261445715e-07
6.605,0.0,77.50001666064122,0,90,1.0,5,3.4351837571521924e-07
6.61,0.001684486749771458,77.50000930563341,0,90,1.0,5,1.9186873015014592e-07
6.615,0.004172395771277602,77.50000513351583,0,90,1.0,5,1.0584568716572885e-07
6.62,0.009438687428818865,77.50000279703956,0,90,1.0,5,5.767091868891811e-08
6.625,0.019500507867137046,77.50000150520984,0,90,1.0,5,3.103525438474236e-08
6.63,0.03679496976339974,77.50000080003728,0,90,1.0,5,1.649561411176899e-08
6.635,0.06340728953298436,77.50000041998922,0,90,1.0,5,8.659571552381805e-09
6.64,0.09979255396093453,77.50000021776135,0,90,1.0,5,4.48992482139972e-09
6.645,0.14343835518453557,77.50000011151626,0,90,1.0,5,2.2993042796198217e-09
6.65,0.18829581417209276,77.50000005640405,0,90,1.0,5,1.162970054736565e-09
6.655,0.2257481735193119,77.50000002817715,0,90,1.0,5,5.809722645692803e-10
6.66,0.24718154073554727,77.50000001390269,0,90,1.0,5,2.866534501175845e-10
6.665,0.24718154074102772,77.5000000067751,0,90,1.0,5,1.396927018504357e-10
6.67,0.22574817354072055,77.50000000326096,0,90,1.0,5,6.723638827829698e-11
6.675,0.18829581422840957,77.50000000155022,0,90,1.0,5,3.196328883128332e-11
6.68,0.14343835532456656,77.50000000072787,0,90,1.0,5,1.5007541601194463e-11
6.685,0.09979255431561854,77.50000000033754,0,90,1.0,5,6.9595097153706806e-12
6.69,0.06340729067170194,77.5000000001546,0,90,1.0,5,3.1876265659109813e-12
6.695,0.03679497683410042,77.50000000006995,0,90,1.0,5,1.4421819981077167e-12
6.7,0.019500578284482293,77.50000000003125,0,90,1.0,5,6.44323082860396e-13
6.705,0.009439396781978427,77.50000000001378,0,90,1.0,5,2.8421709430404007e-13
6.71,0.004178588733610924,77.50000000000601,0,90,1.0,5,1.239420937016587e-13
6.715,0.0017299316936037381,77.50000000000259,0,90,1.0,5,5.332733109622195e-14
6.72,0.0008997325756988589,77.5000000000011,0,90,1.0,5,2.25615631560939e-14
6.725,0.001634769674224814,77.50000000000045,0,90,1.0,5,9.376234038896167e-15
6.73,0.00614904736476635,77.50000000000018,0,90,1.0,5,3.809095078301568e-15
6.735,0.02168080359963608,77.50000000000007,0,90,1.0,5,1.465036568577526e-15
6.74,0.06433400338904088,77.50000000000003,0,90,1.0,5,5.860146274310105e-16
6.745,0.1593410769217493,77.50000000000001,0,90,1.0,5,2.9300731371550523e-16
6.75,0.3291989194808569,77.5,0,90,1.0,5,0.0
6.755,0.5672906802982638,77.5,0,90,1.0,5,0.0
6.76,0.815339152120446,77.5,0,90,1.0,5,0.0
6.765,0.9768711246313155,77.50000284586159,1,90,1.0,5,5.8677558500516847e-08
6.77,0.9726380909165361,77.50000516474043,0,90,1.0,5,1.0648949338368784e-07
6.775,0.7921091683291741,77.50000983043871,0,90,1.0,5,2.0268945801485502e-07
6.78,0.49139090102639077,77.50002017526417,0,90,1.0,5,4.1598482821943446e-07
6.785,0.15739335672107918,77.50004536729918,0,90,1.0,5,9.354082305069767e-07
6.79,-0.11102342218909485,77.50011076651302,0,90,1.0,5,2.2838456292325625e-06
6.795,-0.2314207883647528,77.5002850110043,0,90,1.0,5,5.8765155524584185e-06
6.8,-0.2029124434754801,77.50074708028492,0,90,1.0,5,1.5403717214929802e-05
6.805,-0.11151350554305876,77.50194280599986,0,90,1.0,5,4.005785566722263e-05
6.81,-0.039430666652076896,77.5049279313996,0,90,1.0,5,0.00010160683298158099
6.815,-0.006087703519843621,77.51207173356352,0,90,1.0,5,0.0002489017229590993
6.82,0.005350271385530551,77.52840128290548,0,90,1.0,5,0.000585593461968606
6.825,0.010381647827441833,77.56397906014128,0,90,1.0,5,0.0013191558792016167
6.83,0.015115203303506243,77.63776147081478,0,90,1.0,5,0.0028404426972119647
6.835,0.021170964062928475,77.78326220135963,0,90,1.0,5,0.005840457759992444
6.84,0.029082821134029553,78.05587747145417,0,90,1.0,5,0.011461391164003442
6.845,0.03923107061708144,78.54077600300882,0,90,1.0,5,0.0214592990311096
6.85,0.051969043308817596,79.35882370017484,0,90,1.0,5,0.03832626185927501
6.855,0.06760532616283861,80.66643122157606,0,90,1.0,5,0.06528724168198065
6.86,0.08636519236693461,82.64423704518795,0,90,1.0,5,0.10606674319975154
6.865,0.10834733138818661,85.47024105151274,0,90,1.0,5,0.16433486704149988
6.87,0.1334809643017884,89.27633401919208,0,90,1.0,5,0.24281101070499128
6.875,0.16148868344343945,94.09324311547192,0,90,1.0,5,0.3421287240303489
6.88,0.191860907532018,99.79635432434684,0,90,1.0,5,0.45971864586282135
6.885,0.22384764873847726,106.0707181121124,0,90,1.0,5,0.5890869713837609
6.89,0.25647215537198226,112.414152102772,0,90,1.0,5,0.7198794247994226
6.895,0.2885689161419028,118.19021013965265,0,90,1.0,5,0.8389734049412917
6.9,0.31884566517832524,122.72842191489322,0,90,1.0,5,0.9325447817503756
6.905,0.3459657668955683,125.45198838957337,0,90,1.0,5,0.9887007915375953
6.91,0.3686441789190902,126.0,0,90,1.0,5,1.0
6.915,0.3857476379544367,124.30867485172185,0,90,1.0,5,0.9651273165303473
6.92,0.3963882865005728,120.62657779142631,0,90,1.0,5,0.8892077895139446
6.925,0.4,115.45901429383217,0,90,1.0,5,0.782660088532622
6.93,0.39638828650057273,109.45894164673679,0,90,1.0,5,0.6589472504481813
6.935,0.38574763795443656,103.29703058022503,0,90,1.0,5,0.5318975377365985
6.94,0.36864417891908974,97.5464345552443,0,90,1.0,5,0.4133285475308104
6.945,0.345965766895568,92.6085121379603,0,90,1.0,5,0.31151571418474855
6.95,0.3188456651783249,88.68935253270487,0,90,1.0,5,0.23070829964339945
6.955,0.28856891614190205,85.82066001567553,0,90,1.0,5,0.17156000032320678
6.96,0.2564721553719815,83.90809160368029,0,90,1.0,5,0.13212560007588228
6.965,0.22384764873847685,82.78766537950541,0,90,1.0,5,0.10902402844341057
6.97,0.19186090753201765,82.27493168545303,0,90,1.0,5,0.0984521997000624
6.975,0.16148868344343878,82.19880493003672,0,90,1.0,5,0.09688257587704567
6.98,0.1334809643017881,82.4188702080318,0,90,1.0,5,0.10142000428931557
6.985,0.10834733138818531,82.82952231745624,0,90,1.0,5,0.10988705809188119
6.99,0.08636519236690572,83.35601376271482,0,90,1.0,5,0.12074255180855306
6.995,0.06760532616242629,83.9470769430105,0,90,1.0,5,0.13292942150537115
7.0,0.05196904332202373,84.56733781891765,0,90,1.0,5,0.1457183055446938
7.005,0.03923107185803287,85.19117318822897,0,90,1.0,5,0.15858089047894788
7.01,0.02908287038705761,85.79848598049588,0,90,1.0,5,0.1711028037215646
7.015,0.02117220077308346,86.372206845233,0,90,1.0,5,0.18293209990171125
7.02,0.0151361834125735,86.89707692639371,0,90,1.0,5,0.19375416343079813
7.025,0.010626454858290009,87.35925877048336,0,90,1.0,5,0.20328368598934773
7.03,0.007326255555493652,87.74641728003608,0,90,1.0,5,0.2112663356708471
7.035,0.004960179211183015,88.04802380897954,0,90,1.0,5,0.2174850269892688
7.04,0.0032978759379303545,88.25572651055214,0,90,1.0,5,0.22176755691860076
7.045,0.002153242296767213,88.36369161710158,0,90,1.0,5,0.2239936415897233
7.05,0.001380616732225004,88.36885916056198,0,90,1.0,5,0.22410018887756664
7.055,0.0008693106590991584,88.27108106749418,0,90,1.0,5,0.22208414572152949
7.06,0.000537524815942247,88.07312615119709,0,90,1.0,5,0.21800260105561003
7.065,0.0003263951340288585,87.78054918031154,0,90,1.0,5,0.21197008619199048
7.07,0.00019463030985187395,87.40143171379235,0,90,1.0,5,0.20415323121221338
7.075,0.00011397219555062695,86.94601125277715,0,90,1.0,5,0.19476311861396195
7.08,6.55403863487943e-05,86.42622234909373,0,90,1.0,5,0.18404582163079866
7.085,3.701184389455385e-05,85.85517831781087,0,90,1.0,5,0.17227171789300758
7.09,2.0525516217290957e-05,85.24662486818843,0,90,1.0,5,0.15972422408635945
7.095,1.1178128483661116e-05,84.61439720084722,0,90,1.0,5,0.14668860207932416
7.1,5.978135409912517e-06,83.97191003197823,0,90,1.0,5,0.13344144395831392
7.105,3.1396702713238487e-06,83.33170590892841,0,90,1.0,5,0.12024135894697759
7.11,1.6192875458531019e-06,82.70508154656905,0,90,1.0,5,0.10732126900142366
7.115,8.201353897972012e-07,82.10180531548804,0,90,1.0,5,0.09488258382449559
7.12,4.0791415086824765e-07,81.52993206595734,0,90,1.0,5,0.08309138280324412
7.125,1.9923866938774793e-07,80.99571476651627,0,90,1.0,5,0.07207659312404685
7.13,9.556527981051257e-08,80.50360648407369,0,90,1.0,5,0.06193003059945743
7.135,4.501406988770349e-08,80.05634142369696,0,90,1.0,5,0.05270807059168997
7.14,0.0,79.65508032520124,0,90,1.0,5,0.04443464588043794
7.145,0.0,79.29960357294775,0,90,1.0,5,0.03710522830820094
7.15,0.0,78.98853486620382,0,90,1.0,5,0.030691440540284973
7.155,0.0,78.71957905375766,0,90,1.0,5,0.025145959871291867
7.16,0.0,78.48975950713555,0,90,1.0,5,0.02040741251825867
7.165,0.0,78.2956428924812,0,90,1.0,5,0.016405008092395822
7.17,0.0,78.13354209041512,0,90,1.0,5,0.013062723513713799
7.175,0.0,77.99969101352993,0,90,1.0,5,0.010302907495462392
7.18,0.0,77.8903879331648,0,90,1.0,5,0.008049235735356758
7.185,0.0,77.80210645967149,0,90,1.0,5,0.006228999168484375
7.19,0.0,77.73157539738591,0,90,1.0,5,0.00477475046156516
7.195,0.0,77.67583025447672,0,90,1.0,5,0.0036253660716849866
7.2,0.0,77.63224022257143,0,90,1.0,5,0.0027266025272458896
7.205,0.0,77.59851499022419,0,90,1.0,5,0.002031236911838941
7.21,0.0,77.57269588798313,0,90,1.0,5,0.0014988842883119607
7.215,0.0,77.55313566904915,0,90,1.0,5,0.0010955808051372144
7.22,0.0,77.53847080207267,0,90,1.0,5,0.000793212413869408
7.225,0.0,77.52758958124467,0,90,1.0,5,0.0005688573452509103
7.23,0.0,77.51959872218865,0,90,1.0,6,0.00040409736471436886
7.235,0.0,77.51379047372285,0,90,1.0,6,0.0002843396643886512
7.24,0.0,77.50961168199261,0,90,1.0,6,0.00019817901015689758
7.245,0.0,77.50663572503977,0,90,1.0,6,0.0001368190729849794
7.25,0.0,77.50453780836098,0,90,1.0,6,9.35630589892589e-05
7.255,0.0,77.50307377943045,0,90,1.0,6,6.337689547322465e-05
7.26,0.0,77.50206237686946,0,90,1.0,6,4.2523234421866724e-05
7.265,0.0,77.50137066757361,0,90,1.0,6,2.826118708474768e-05
7.27,0.0,77.50090232923444,0,90,1.0,6,1.8604726483200586e-05
7.275,0.0,77.50058839191706,0,90,1.0,6,1.213179210438837e-05
7.28,0.0,77.50038004685945,0,90,1.0,6,7.836017720571185e-06
7.285,0.0,77.50024315117817,0,90,1.0,6,5.013426353978915e-06
7.29,0.0,77.50015409352449,0,90,1.0,6,3.177186071879237e-06
7.295,0.0,77.50009672999809,0,90,1.0,6,1.994432950338246e-06
7.3,0.0,77.50006014600001,0,90,1.0,6,1.240123711542446e-06
7.305,0.0,77.50003704427512,0,90,1.0,6,7.63799486961587e-07
7.31,0.0,77.50002259978108,0,90,1.0,6,4.6597486754397267e-07
7.315,0.0,77.50001365702623,0,90,1.0,6,2.815881696888121e-07
7.32,0.0,77.50000817479433,0,90,1.0,6,1.6855246043792484e-07
7.325,0.0,77.50000484692508,0,90,1.0,6,9.993659958680152e-08
7.33,0.0,77.50000284658763,0,90,1.0,6,5.8692528537181886e-08
7.335,0.0,77.50000165596667,0,90,1.0,6,3.414364268979794e-08
7.34,0.001684486749771458,77.50000095421755,0,90,1.0,6,1.967458875772058e-08
7.345,0.004172395771277602,77.50000054464309,0,90,1.0,6,1.1229754354363397e-08
7.35,0.009438687428818865,77.50000030792529,0,90,1.0,6,6.348975063898701e-09
7.355,0.019500507867137046,77.50000017244378,0,90,1.0,6,3.555541785392483e-09
7.36,0.03679496976339974,77.50000009565737,0,90,1.0,6,1.9723169077327295e-09
7.365,0.06340728953298436,77.50000005256034,0,90,1.0,6,1.0837183155447362e-09
7.37,0.09979255396093453,77.50000002860662,0,90,1.0,6,5.898272385970766e-10
7.375,0.14343835518453557,77.50000001542212,0,90,1.0,6,3.1798179210004633e-10
7.38,0.18829581417209276,77.5000000082355,0,90,1.0,6,1.6980418445903701e-10
7.385,0.2257481735193119,77.50000000435617,0,90,1.0,6,8.981787593172354e-11
7.39,0.24718154073554727,77.50000000228238,0,90,1.0,6,4.705931864121986e-11
7.395,0.24718154074102772,77.50000000118452,0,90,1.0,6,2.4423038620128507e-11
7.4,0.22574817354072055,77.50000000060892,0,90,1.0,6,1.2555070385395684e-11
7.405,0.18829581422840957,77.50000000031007,0,90,1.0,6,6.393126577958609e-12
7.41,0.14343835532456656,77.50000000015639,0,90,1.0,6,3.224545487439135e-12
7.415,0.09979255431561854,77.50000000007813,0,90,1.0,6,1.6109542108078477e-12
7.42,0.06340729067170194,77.50000000003867,0,90,1.0,6,7.972729006198897e-13
7.425,0.03679497683410042,77.50000000001896,0,90,1.0,6,3.90871756496484e-13
7.43,0.019500578284482293,77.50000000000921,0,90,1.0,6,1.898687392876474e-13
7.435,0.009439396781978427,77.50000000000442,0,90,1.0,6,9.112527456552213e-14
7.44,0.004178588733610924,77.5000000000021,0,90,1.0,6,4.336508242989477e-14
7.445,0.0017299316936037381,77.500000000001,0,90,1.0,6,2.0510511960085366e-14
7.45,0.0008997325756988589,77.50000000000047,0,90,1.0,6,9.669241352611673e-15
7.455,0.001634769674224814,77.50000000000021,0,90,1.0,6,4.395109705732579e-15
7.46,0.00614904736476635,77.5000000000001,0,90,1.0,6,2.0510511960085364e-15
7.465,0.02168080359963608,77.50000000000004,0,90,1.0,6,8.790219411465157e-16
7.47,0.06433400338904088,77.50000000000001,0,90,1.0,6,2.9300731371550523e-16
7.475,0.1593410769217493,77.50000000000001,0,90,1.0,6,2.9300731371550523e-16
7.48,0.3291989194808569,77.5,0,90,1.0,6,0.0
7.485,0.5672906802982638,77.5,0,90,1.0,6,0.0
7.49,0.815339152120446,77.5,0,90,1.0,6,0.0
7.495,0.9768711246313155,77.50000285066528,1,90,1.0,6,5.8776603762772095e-08
7.5,0.9726380909165361,77.50000533774794,0,90,1.0,6,1.1005665847620811e-07
7.505,0.7921091683291741,77.50001055134113,0,90,1.0,6,2.1755342544631426e-07
7.51,0.49139090102639077,77.50002272509559,0,90,1.0,6,4.685586719629616e-07
7.515,0.15739335672107918,77.50005414678377,0,90,1.0,6,1.1164285312949602e-06
7.52,-0.11102342218909485,77.500140505292,0,90,1.0,6,2.8970163297926024e-06
7.525,-0.2314207883647528,77.50038258369432,0,90,1.0,6,7.888323594182947e-06
7.53,-0.2029124434754801,77.5010527695429,0,90,1.0,6,2.1706588513294712e-05
7.535,-0.11151350554305876,77.50284972513398,0,90,1.0,6,5.875721925740811e-05
7.54,-0.039430666652076896,77.50746597756105,0,90,1.0,6,0.00015393768167121978
7.545,-0.006087703519843621,77.51876169890194,0,90,1.0,6,0.0003868391526173268
7.55,0.005350271385530551,77.54500396355465,0,90,1.0,6,0.000927916774322657
7.555,0.010381647827441833,77.60277510805538,0,90,1.0,6,0.0021190743928944885
7.56,0.015115203303506243,77.72313394409493,0,90,1.0,6,0.004600699878245889
7.565,0.021170964062928475,77.96019364845812,0,90,1.0,6,0.009488528834187958
7.57,0.029082821134029553,78.40119339193035,0,90,1.0,6,0.018581307050110282
7.575,0.03923107061708144,79.17526941030879,0,90,1.0,6,0.034541637325954354
7.58,0.051969043308817596,80.45579048450003,0,90,1.0,6,0.06094413370103151
7.585,0.06760532616283861,82.44931195947832,0,90,1.0,6,0.10204766926759427
7.59,0.08636519236693461,85.36455622127653,0,90,1.0,6,0.16215579837683566
7.595,0.10834733138818661,89.35900055276574,0,90,1.0,6,0.24451547531475742
7.6,0.1334809643017884,94.46913761169944,0,90,1.0,6,0.3498791260144214
7.605,0.16148868344343945,100.54136540845477,0,90,1.0,6,0.47507969914339726
7.61,0.191860907532018,107.18914743882308,0,90,1.0,6,0.612147369872641
7.615,0.22384764873847726,113.8027021799891,0,90,1.0,6,0.7485093232987443
7.62,0.25647215537198226,119.62609966806052,0,90,1.0,6,0.868579374599186
7.625,0.2885689161419028,123.89459021136328,0,90,1.0,6,0.9565894888940882
7.63,0.31884566517832524,126.0,0,90,1.0,6,1.0
7.635,0.3459657668955683,125.63555232071732,0,90,1.0,6,0.992485614860151
7.64,0.3686441789190902,122.8728829839707,0,90,1.0,6,0.9355233604942412
7.645,0.3857476379544367,118.14488894980822,0,90,1.0,6,0.8380389474187262
7.65,0.3963882865005728,112.14032116465883,0,90,1.0,6,0.7142334260754398
7.655,0.4,105.64571806451514,0,90,1.0,6,0.5803240838044358
7.66,0.39638828650057273,99.38474665898676,0,90,1.0,6,0.4512318898760156
7.665,0.38574763795443656,93.89946334087666,0,90,1.0,6,0.3381332647603436
7.67,0.36864417891908974,89.49722210145336,0,90,1.0,6,0.24736540415367753
7.675,0.345965766895568,86.26179009897115,0,90,1.0,6,0.18065546595816798
7.68,0.3188456651783249,84.10837075711324,0,90,1.0,6,0.1362550671569739
7.685,0.28856891614190205,82.85525798893129,0,90,1.0,6,0.11041769049342856
7.69,0.2564721553719815,82.28893368935184,0,90,1.0,6,0.09874090081137807
7.695,0.22384764873847685,82.20954302821511,0,90,1.0,6,0.09710397996319811
7.7,0.19186090753201765,82.45412614899202,0,90,1.0,6,0.1021469309070519
7.705,0.16148868344343878,82.9020248457851,0,90,1.0,6,0.11138195558319808
7.71,0.1334809643017881,83.46956389310165,0,90,1.0,6,0.1230837916103433
7.715,0.10834733138818531,84.1004855952502,0,90,1.0,6,0.13609248650000424
7.72,0.08636519236690572,84.75645137662403,0,90,1.0,6,0.14961755415719646
7.725,0.06760532616242629,85.40966434514888,0,90,1.0,6,0.16308586278657491
7.73,0.05196904332202373,86.0380544133898,0,90,1.0,6,0.17604235903896498
7.735,0.03923107185803287,86.62263152761466,0,90,1.0,6,0.18809549541473522
7.74,0.02908287038705761,87.14635512742458,0,90,1.0,6,0.1988939201530842
7.745,0.02117220077308346,87.59392038235315,0,90,1.0,6,0.20812206973924013
7.75,0.0151361834125735,87.95201971947535,0,90,1.0,6,0.21550556122629577
7.755,0.010626454858290009,88.20979239540345,0,90,1.0,6,0.22082046176089595
7.76,0.007326255555493652,88.35928803931012,0,90,1.0,6,0.2239028461713426
7.765,0.004960179211183015,88.3958424677883,0,90,1.0,6,0.22465654572759378
7.77,0.0032978759379303545,88.31830826653777,0,90,1.0,6,0.22305790240284062
7.775,0.002153242296767213,88.12911092076266,0,90,1.0,6,0.21915692620129187
7.78,0.001380616732225004,87.83412164429782,0,90,1.0,6,0.21307467307830563
7.785,0.0008693106590991584,87.44235443924178,0,90,1.0,6,0.20499699874725325
7.79,0.000537524815942247,86.96550861191454,0,90,1.0,6,0.19516512601885658
7.795,0.0003263951340288585,86.41738895346812,0,90,1.0,6,0.18386368976222928
7.8,0.00019463030985187395,85.81324358973214,0,90,1.0,6,0.171407084324374
7.805,0.00011397219555062695,85.16906367666229,0,90,1.0,6,0.15812502426107813
7.81,6.55403863487943e-05,84.5008894969962,0,90,1.0,6,0.14434823705146793
7.815,3.701184389455385e-05,83.82416428298873,0,90,1.0,6,0.1303951398554378
7.82,2.0525516217290957e-05,83.15317077049401,0,90,1.0,6,0.11656022207204154
7.825,1.1178128483661116e-05,82.50057687127921,0,90,1.0,6,0.10310467775833418
7.83,5.978135409912517e-06,81.8771068894783,0,90,1.0,6,0.09024962658718141
7.835,3.1396702713238487e-06,81.29134441020258,0,90,1.0,6,0.07817204969489863
7.84,1.6192875458531019e-06,80.74966329577829,0,90,1.0,6,0.06700336692326372
7.845,8.201353897972012e-07,80.25627492189922,0,90,1.0,6,0.05683041076080865
7.85,4.0791415086824765e-07,79.81337343151264,0,90,1.0,6,0.04769842126830195
7.855,1.9923866938774793e-07,79.42135668043277,0,90,1.0,6,0.03961560165840754
7.86,9.556527981051257e-08,79.07909874103451,0,90,1.0,6,0.032558736928546675
7.865,4.501406988770349e-08,78.78425013843707,0,90,1.0,6,0.026479384297671618
7.87,0.0,78.5335440627456,0,90,1.0,6,0.021310186860734128
7.875,0.0,78.32309016640502,0,90,1.0,6,0.016970931266082963
7.88,0.0,78.14864170879353,0,90,1.0,6,0.013374055851413066
7.885,0.0,78.00582625821215,0,90,1.0,6,0.010429407385817584
7.89,0.0,77.89033447553675,0,90,1.0,6,0.008048133516221589
7.895,0.0,77.79806535061086,0,90,1.0,6,0.006145677332182583
7.9,0.0,77.72522941908457,0,90,1.0,6,0.0046439055481354696
7.905,0.0,77.66841384122971,0,90,1.0,6,0.0034724503346331417
7.91,0.0,77.62461476063879,0,90,1.0,6,0.0025693765080163334
7.915,0.0,77.59124314265756,0,90,1.0,6,0.001881301910465172
7.92,0.0,77.5661104364004,0,90,1.0,6,0.0013631017814514075
7.925,0.0,77.54740005593854,0,90,1.0,6,0.0009773207410008
7.93,0.0,77.53362998903987,0,90,1.0,6,0.0006934018358735332
7.935,0.0,77.52361095963337,0,90,1.0,6,0.00048682390996646063
7.94,0.0,77.51640361595736,0,90,1.0,6,0.00033821888571872985
7.945,0.0,77.51127728584574,0,90,1.0,6,0.00023252135764404482
7.95,0.0,77.50767200055635,0,90,1.0,6,0.0001581855784815344
7.955,0.0,77.50516477853803,0,90,1.0,6,0.00010649027913466187
7.96,0.0,77.503440597138,0,90,1.0,6,7.094014717516253e-05
7.965,0.0,77.5022680623265,0,90,1.0,6,4.676417168027292e-05
7.97,0.0,77.50147950074185,0,90,1.0,6,3.0505169935078867e-05
7.975,0.0,77.50095502431975,0,90,1.0,6,1.9691223087647813e-05
7.98,0.0,77.50061003213925,0,90,1.0,6,1.2577982252566668e-05
7.985,0.0,77.50038559380044,0,90,1.0,6,7.95038763803906e-06
7.99,0.0,77.50024118284321,0,90,1.0,6,4.9728421280745995e-06
7.995,0.0,77.50014928006648,0,90,1.0,6,3.0779395150644987e-06
8.0,0.0,77.50009143158961,0,90,1.0,6,1.8851874146323622e-06
8.005,0.0,77.50005541530939,0,90,1.0,6,1.1425836987655202e-06
8.01,0.0,77.50003323550604,0,90,1.0,6,6.852681657310126e-07
8.015,0.0,77.50001972485731,0,90,1.0,6,4.06698088869403e-07
8.02,0.0,77.50001158415837,0,90,1.0,6,2.3884862622891006e-07
8.025,0.0,77.50000673215557,0,90,1.0,6,1.388073313198229e-07
8.03,0.0,77.5000038715319,0,90,1.0,6,7.982540004489884e-08
8.035,0.001684486749771458,77.50000220318306,0,90,1.0,6,4.542645480852894e-08
8.04,0.004172395771277602,77.5000012406731,0,90,1.0,6,2.5580888665065207e-08
8.045,0.009438687428818865,77.50000069135831,0,90,1.0,6,1.4254810500376349e-08
8.05,0.019500507867137046,77.50000038123086,0,90,1.0,6,7.860430144122352e-09
8.055,0.03679496976339974,77.50000020802328,0,90,1.0,6,4.289139801632287e-09
8.06,0.06340728953298436,77.5000001123246,0,90,1.0,6,2.315971121638587e-09
8.065,0.09979255396093453,77.50000006001736,0,90,1.0,6,1.237471266351124e-09
8.07,0.14343835518453557,77.50000003173349,0,90,1.0,6,6.542988098631541e-10
8.075,0.18829581417209276,77.50000001660344,0,90,1.0,6,3.4233890407458886e-10
8.08,0.2257481735193119,77.50000000859642,0,90,1.0,6,1.772456912054697e-10
8.085,0.24718154073554727,77.50000000440428,0,90,1.0,6,9.080999869596425e-11
8.09,0.24718154074102772,77.50000000223291,0,90,1.0,6,4.603936018217619e-11
8.095,0.22574817354072055,77.50000000112023,0,90,1.0,6,2.3097473532879562e-11
8.1,0.18829581422840957,77.50000000055614,0,90,1.0,6,1.1466841222256297e-11
8.105,0.14343835532456656,77.5000000002732,0,90,1.0,6,5.633065606180588e-12
8.11,0.09979255431561854,77.50000000013281,0,90,1.0,6,2.738446353985112e-12
8.115,0.06340729067170194,77.50000000006389,0,90,1.0,6,1.3173608824649115e-12
8.12,0.03679497683410042,77.50000000003041,0,90,1.0,6,6.270356513511812e-13
8.125,0.019500578284482293,77.50000000001432,0,90,1.0,6,2.953513722252293e-13
8.13,0.009439396781978427,77.50000000000668,0,90,1.0,6,1.3771343744628745e-13
8.135,0.004178588733610924,77.50000000000308,0,90,1.0,6,6.358258707626464e-14
8.14,0.0017299316936037381,77.5000000000014,0,90,1.0,6,2.9007724057835016e-14
8.145,0.0008997325756988589,77.50000000000064,0,90,1.0,6,1.3185329117197736e-14
8.15,0.001634769674224814,77.50000000000028,0,90,1.0,6,5.860146274310104e-15
8.155,0.00614904736476635,77.50000000000013,0,90,1.0,6,2.637065823439547e-15
8.16,0.02168080359963608,77.50000000000006,0,90,1.0,6,1.172029254862021e-15
8.165,0.06433400338904088,77.50000000000003,0,90,1.0,6,5.860146274310105e-16
8.17,0.1593410769217493,77.50000000000001,0,90,1.0,6,2.9300731371550523e-16
8.175,0.3291989194808569,77.5,0,90,1.0,6,0.0
8.18,0.5672906802982638,77.5,0,90,1.0,6,0.0
8.185,0.815339152120446,77.5,0,90,1.0,6,0.0
8.19,0.9768711246313155,77.50000284586159,1,90,1.0,6,5.8677558500516847e-08
8.195,0.9726380909165361,77.50000570245213,0,90,1.0,6,1.1757633254176457e-07
8.2,0.7921091683291741,77.50001225806744,0,90,1.0,6,2.527436586159141e-07
8.205,0.49139090102639077,77.50002942758579,0,90,1.0,6,6.067543461202937e-07
8.21,0.15739335672107918,77.50007969525397,0,90,1.0,6,1.6432011128453615e-06
8.215,-0.11102342218909485,77.50023533387187,0,90,1.0,6,4.8522447808367e-06
8.22,-0.2314207883647528,77.50071883774795,0,90,1.0,6,1.4821396865024148e-05
8.225,-0.2029124434754801,77.50217579271153,0,90,1.0,6,4.4861705392288955e-05
8.23,-0.11151350554305876,77.50635725002037,0,90,1.0,6,0.00013107732000766818
8.235,-0.039430666652076896,77.51768141331813,0,90,1.0,6,0.0003645652230542177
8.24,-0.006087703519843621,77.54648137072928,0,90,1.0,6,0.0009583787779233389
8.245,0.005350271385530551,77.61508024410816,0,90,1.0,6,0.002372788538312508
8.25,0.010381647827441833,77.76784731218491,0,90,1.0,6,0.005522624993503347
8.255,0.015115203303506243,78.08549326951349,0,90,1.0,6,0.012072026175535917
8.26,0.021170964062928475,78.70138007120593,0,90,1.0,6,0.024770723117648087
8.265,0.029082821134029553,79.81333731768606,0,90,1.0,6,0.047697676653320885
8.27,0.03923107061708144,81.67953161509834,0,90,1.0,6,0.08617590958965651
8.275,0.051969043308817596,84.58445788628454,0,90,1.0,6,0.1460712966244235
8.28,0.06760532616283861,88.76559186610127,0,90,1.0,6,0.23228024466188196
8.285,0.08636519236693461,94.30580224572596,0,90,1.0,6,0.34651138650981356
8.29,0.10834733138818661,101.01908127568012,0,90,1.0,6,0.4849295108387654
8.295,0.1334809643017884,108.37758909741606,0,90,1.0,6,0.6366513215962075
8.3,0.16148868344343945,115.53155299925712,0,90,1.0,6,0.7841557319434457
8.305,0.191860907532018,121.44932005335616,0,90,1.0,6,0.9061715474918796
8.31,0.22384764873847726,125.15631195469562,0,90,1.0,6,0.9826043701999098
8.315,0.25647215537198226,126.0,0,90,1.0,6,1.0
8.32,0.2885689161419028,123.8427949295679,0,90,1.0,6,0.9555215449395443
8.325,0.31884566517832524,119.10508764276156,0,90,1.0,6,0.8578368586136405
8.33,0.3459657668955683,112.64051130847515,0,90,1.0,6,0.7245466249170135
8.335,0.3686441789190902,105.4947173494078,0,90,1.0,6,0.5772106669980989
8.34,0.3857476379544367,98.64157127935391,0,90,1.0,6,0.4359086861722456
8.345,0.3963882865005728,92.7872202864701,0,90,1.0,6,0.3152004182777341
8.35,0.4,88.29055850091387,0,90,1.0,6,0.222485742286884
8.355,0.39638828650057273,85.19499150634792,0,90,1.0,6,0.15865961868758593
8.36,0.38574763795443656,83.32841126591062,0,90,1.0,6,0.1201734281631055
8.365,0.36864417891908974,82.41862451624381,0,90,1.0,6,0.10141493847925381
8.37,0.345965766895568,82.1853521137011,0,90,1.0,6,0.09660519822064124
8.375,0.3188456651783249,82.39306572658664,0,90,1.0,6,0.10088795312549777
8.38,0.28856891614190205,82.86818610804693,0,90,1.0,6,0.11068424965045211
8.385,0.2564721553719815,83.49352503596295,0,90,1.0,6,0.12357783579305044
8.39,0.22384764873847685,84.19327652565775,0,90,1.0,6,0.13800570155995362
8.395,0.19186090753201765,84.91762339581283,0,90,1.0,6,0.1529406885734603
8.4,0.16148868344343878,85.63113017574868,0,90,1.0,6,0.16765216857213774
8.405,0.1334809643017881,86.30565243766684,0,90,1.0,6,0.18155984407560488
8.41,0.10834733138818531,86.91685513029627,0,90,1.0,6,0.19416196144940762
8.415,0.08636519236690572,87.44305757969148,0,90,1.0,6,0.2050114964884842
8.42,0.06760532616242629,87.86533772288807,0,90,1.0,6,0.2137183035647025
8.425,0.05196904332202373,88.16817973634383,0,90,1.0,6,0.21996246879059445
8.43,0.03923107185803287,88.3402384667518,0,90,1.0,6,0.22351007147941854
8.435,0.02908287038705761,88.37498162664085,0,90,1.0,7,0.22422642529156384
8.44,0.02117220077308346,88.27108106749418,0,90,1.0,7,0.22208414572152949
8.445,0.0151361834125735,88.03249098378444,0,90,1.0,7,0.21716476255225653
8.45,0.010626454858290009,87.66819648788929,0,90,1.0,7,0.20965353583276886
8.455,0.007326255555493652,87.19165162443677,0,90,1.0,7,0.1998278685450881
8.46,0.004960179211183015,86.61995488836745,0,90,1.0,7,0.18804030697664836
8.465,0.0032978759379303545,85.97283240911523,0,90,1.0,7,0.1746975754456748
8.47,0.002153242296767213,85.27151291372265,0,90,1.0,7,0.16023737966438445
8.475,0.001380616732225004,84.53758349445417,0,90,1.0,7,0.14510481431864264
8.48,0.0008693106590991584,83.79191110989592,0,90,1.0,7,0.1297301259772355
8.485,0.000537524815942247,83.05370269529314,0,90,1.0,7,0.11450933392356989
8.49,0.0003263951340288585,82.33975866855332,0,90,1.0,7,0.09978883852687248
8.495,0.00019463030985187395,81.66395297564524,0,90,1.0,7,0.08585470052876794
8.5,0.00011397219555062695,81.03695029627794,0,90,1.0,7,0.07292681023253478
8.505,6.55403863487943e-05,80.46615012462807,0,90,1.0,7,0.06115773452841386
8.51,3.701184389455385e-05,79.95583016691808,0,90,1.0,7,0.05063567354470261
8.515,2.0525516217290957e-05,79.50744919237871,0,90,1.0,7,0.04139070499749928
8.52,1.1178128483661116e-05,79.12006270877623,0,90,1.0,7,0.03340335482012848
8.525,5.978135409912517e-06,78.7908034547283,0,90,1.0,7,0.02661450422120217
8.53,3.1396702713238487e-06,78.51538196065025,0,90,1.0,7,0.020935710528871037
8.535,1.6192875458531019e-06,78.28856917829346,0,90,1.0,7,0.016259158315329016
8.54,8.201353897972012e-07,78.1046320774523,0,90,1.0,7,0.012466640772212247
8.545,4.0791415086824765e-07,77.95770283268605,0,90,1.0,7,0.009437171807959853
8.55,1.9923866938774793e-07,77.8420716221398,0,90,1.0,7,0.007053023136903054
8.555,9.556527981051257e-08,77.75240126350023,0,90,1.0,7,0.005204149762891385
8.56,4.501406988770349e-08,77.68386837283725,0,90,1.0,7,0.0037911004708711957
8.565,0.0,77.63224022257143,0,90,1.0,7,0.0027266025272458896
8.57,0.0,77.593899037566,0,90,1.0,7,0.0019360626302268875
8.575,0.0,77.56582634489853,0,90,1.0,7,0.0013572442247118605
8.58,0.0,77.54555954431204,0,90,1.0,7,0.0009393720476709601
8.585,0.0,77.53113149901236,0,90,1.0,7,0.0006418865775744446
8.59,0.0,77.5210020517766,0,90,1.0,7,0.00043303199539392604
8.595,0.0,77.51398828420264,0,90,1.0,7,0.0002884182309822584
8.6,0.0,77.50919831335803,0,90,1.0,7,0.00018965594552633241
8.605,0.0,77.50597163128171,0,90,1.0,7,0.0001231264181795915
8.61,0.0,77.50382753172264,0,90,1.0,7,7.891817984814552e-05
8.615,0.0,77.50242206416318,0,90,1.0,7,4.9939467282149394e-05
8.62,0.0,77.50151319019876,0,90,1.0,7,3.119979791266787e-05
8.625,0.0,77.5009333454743,0,90,1.0,7,1.9244236583388782e-05
8.63,0.0,77.50056837159171,0,90,1.0,7,1.171900189095928e-05
8.635,0.0,77.50034171443933,0,90,1.0,7,7.045658542878787e-06
8.64,0.0,77.50020283146561,0,90,1.0,7,4.182092074523604e-06
8.645,0.0,77.50011886345717,0,90,1.0,7,2.450792931437352e-06
8.65,0.0,77.50006877053725,0,90,1.0,7,1.4179492217356982e-06
8.655,0.0,77.50003928235421,0,90,1.0,7,8.099454475996026e-07
8.66,0.0,77.50002215305511,0,90,1.0,7,4.567640229483398e-07
8.665,0.001684486749771458,77.50001233419412,0,90,1.0,7,2.5431328092204194e-07
8.67,0.004172395771277602,77.50000677998857,0,90,1.0,7,1.39793578701409e-07
8.675,0.009438687428818865,77.50000367949464,0,90,1.0,7,7.586586885858215e-08
8.68,0.019500507867137046,77.50000197146203,0,90,1.0,7,4.064870157768363e-08
8.685,0.03679496976339974,77.50000104286885,0,90,1.0,7,2.150245042272574e-08
8.69,0.06340728953298436,77.50000054464309,0,90,1.0,7,1.1229754354363397e-08
8.695,0.09979255396093453,77.50000028082472,0,90,1.0,7,5.7902004474018806e-09
8.7,0.14343835518453557,77.50000014295512,0,90,1.0,7,2.9475281688477126e-09
8.705,0.18829581417209276,77.50000007184642,0,90,1.0,7,1.481369382258656e-09
