Time,ECG,Pressure,R_Peaks,mean_hr,hrv_scale,Phase_Bin,Normalized_Pressure
0.0,0.001684486749771458,77.5,0,90,3.0,0,0.0
0.005,0.004172395771277602,77.5,0,90,3.0,0,0.0
0.01,0.009438687428818865,77.5,0,90,3.0,0,0.0
0.015,0.019500507867137046,77.5,0,90,3.0,0,0.0
0.02,0.03679496976339974,77.5,0,90,3.0,0,0.0
0.025,0.06340728953298436,77.5,0,90,3.0,0,0.0
0.03,0.09979255396093453,77.5,0,90,3.0,0,0.0
0.035,0.14343835518453557,77.5,0,90,3.0,0,0.0
0.04,0.18829581417209276,77.5,0,90,3.0,0,0.0
0.045,0.2257481735193119,77.5,0,90,3.0,0,0.0
0.05,0.24718154073554727,77.5,0,90,3.0,0,0.0
0.055,0.24718154074102772,77.5,0,90,3.0,0,0.0
0.06,0.22574817354072055,77.5,0,90,3.0,0,0.0
0.065,0.18829581422840957,77.5,0,90,3.0,0,0.0
0.07,0.14343835532456656,77.5,0,90,3.0,0,0.0
0.075,0.09979255431561854,77.5,0,90,3.0,0,0.0
0.08,0.06340729067170194,77.5,0,90,3.0,0,0.0
0.085,0.03679497683410042,77.5,0,90,3.0,0,0.0
0.09,0.019500578284482293,77.5,0,90,3.0,0,0.0
0.095,0.009439396781978427,77.5,0,90,3.0,0,0.0
0.1,0.004178588733610924,77.5,0,90,3.0,0,0.0
0.105,0.0017299316936037381,77.5,0,90,3.0,0,0.0
0.11,0.0008997325756988589,77.5,0,90,3.0,0,0.0
0.115,0.001634769674224814,77.5,0,90,3.0,0,0.0
0.12,0.00614904736476635,77.5,0,90,3.0,0,0.0
0.125,0.02168080359963608,77.5,0,90,3.0,0,0.0
0.13,0.06433400338904088,77.5,0,90,3.0,0,0.0
0.135,0.1593410769217493,77.5,0,90,3.0,0,0.0
0.14,0.3291989194808569,77.5,0,90,3.0,0,0.0
0.145,0.5672906802982638,77.5,0,90,3.0,0,0.0
0.15,0.815339152120446,77.5,0,90,3.0,0,0.0
0.155,0.9768711246313155,77.5,0,90,3.0,0,0.0
0.16,0.9726380909165361,77.5,0,90,3.0,0,0.0
0.165,0.7921091683291741,77.5,0,90,3.0,0,0.0
0.17,0.49139090102639077,77.5,0,90,3.0,0,0.0
0.175,0.15739335672107918,77.5,0,90,3.0,0,0.0
0.18,-0.11102342218909485,77.5,0,90,3.0,0,0.0
0.185,-0.2314207883647528,77.5,0,90,3.0,0,0.0
0.19,-0.2029124434754801,77.5,0,90,3.0,0,0.0
0.195,-0.11151350554305876,77.5,0,90,3.0,0,0.0
0.2,-0.039430666652076896,77.5,0,90,3.0,0,0.0
0.205,-0.006087703519843621,77.5,0,90,3.0,0,0.0
0.21,0.005350271385530551,77.5,0,90,3.0,0,0.0
0.215,0.010381647827441833,77.5,0,90,3.0,0,0.0
0.22,0.015115203303506243,77.5,0,90,3.0,0,0.0
0.225,0.021170964062928475,77.5,0,90,3.0,0,0.0
0.23,0.029082821134029553,77.5,0,90,3.0,0,0.0
0.235,0.03923107061708144,77.5,0,90,3.0,0,0.0
0.24,0.051969043308817596,77.5,0,90,3.0,0,0.0
0.245,0.06760532616283861,77.5,0,90,3.0,0,0.0
0.25,0.08636519236693461,77.5,0,90,3.0,0,0.0
0.255,0.10834733138818661,77.5,0,90,3.0,0,0.0
0.26,0.1334809643017884,77.5,0,90,3.0,0,0.0
0.265,0.16148868344343945,77.5,0,90,3.0,0,0.0
0.27,0.191860907532018,77.5,0,90,3.0,0,0.0
0.275,0.22384764873847726,77.5,0,90,3.0,0,0.0
0.28,0.25647215537198226,77.5,0,90,3.0,0,0.0
0.285,0.2885689161419028,77.5,0,90,3.0,0,0.0
0.29,0.31884566517832524,77.5,0,90,3.0,0,0.0
0.295,0.3459657668955683,77.5,0,90,3.0,0,0.0
0.3,0.3686441789190902,77.5,0,90,3.0,0,0.0
0.305,0.3857476379544367,77.5,0,90,3.0,0,0.0
0.31,0.3963882865005728,77.5,0,90,3.0,0,0.0
0.315,0.4,77.5,0,90,3.0,0,0.0
0.32,0.39638828650057273,77.5,0,90,3.0,0,0.0
0.325,0.38574763795443656,77.5,0,90,3.0,0,0.0
0.33,0.36864417891908974,77.5,0,90,3.0,0,0.0
0.335,0.345965766895568,77.5,0,90,3.0,0,0.0
0.34,0.3188456651783249,77.5,0,90,3.0,0,0.0
0.345,0.28856891614190205,77.5,0,90,3.0,0,0.0
0.35,0.2564721553719815,77.5,0,90,3.0,0,0.0
0.355,0.22384764873847685,77.5,0,90,3.0,0,0.0
0.36,0.19186090753201765,77.5,0,90,3.0,0,0.0
0.365,0.16148868344343878,77.5,0,90,3.0,0,0.0
0.37,0.1334809643017881,77.5,0,90,3.0,0,0.0
0.375,0.10834733138818531,77.5,0,90,3.0,0,0.0
0.38,0.08636519236690572,77.5,0,90,3.0,0,0.0
0.385,0.06760532616242629,77.5,0,90,3.0,0,0.0
0.39,0.05196904332202373,77.5,0,90,3.0,0,0.0
0.395,0.03923107185803287,77.5,0,90,3.0,0,0.0
0.4,0.02908287038705761,77.5,0,90,3.0,0,0.0
0.405,0.02117220077308346,77.5,0,90,3.0,0,0.0
0.41,0.0151361834125735,77.5,0,90,3.0,0,0.0
0.415,0.010626454858290009,77.5,0,90,3.0,0,0.0
0.42,0.007326255555493652,77.5,0,90,3.0,0,0.0
0.425,0.004960179211183015,77.5,0,90,3.0,0,0.0
0.43,0.0032978759379303545,77.5,0,90,3.0,0,0.0
0.435,0.002153242296767213,77.5,0,90,3.0,0,0.0
0.44,0.001380616732225004,77.5,0,90,3.0,0,0.0
0.445,0.0008693106590991584,77.5,0,90,3.0,0,0.0
0.45,0.000537524815942247,77.5,0,90,3.0,0,0.0
0.455,0.0003263951340288585,77.5,0,90,3.0,0,0.0
0.46,0.00019463030985187395,77.5,0,90,3.0,0,0.0
0.465,0.00011397219555062695,77.5,0,90,3.0,0,0.0
0.47,6.55403863487943e-05,77.5,0,90,3.0,0,0.0
0.475,3.701184389455385e-05,77.5,0,90,3.0,0,0.0
0.48,2.0525516217290957e-05,77.5,0,90,3.0,0,0.0
0.485,1.1178128483661116e-05,77.5,0,90,3.0,0,0.0
0.49,5.978135409912517e-06,77.5,0,90,3.0,0,0.0
0.495,3.1396702713238487e-06,77.5,0,90,3.0,0,0.0
0.5,1.6192875458531019e-06,77.5,0,90,3.0,0,0.0
0.505,8.201353897972012e-07,77.5,0,90,3.0,0,0.0
0.51,4.0791415086824765e-07,77.5,0,90,3.0,0,0.0
0.515,1.9923866938774793e-07,77.5,0,90,3.0,0,0.0
0.52,9.556527981051257e-08,77.5,0,90,3.0,0,0.0
0.525,4.501406988770349e-08,77.5,0,90,3.0,0,0.0
0.53,0.0,77.5,0,90,3.0,0,0.0
0.535,0.0,77.5,0,90,3.0,0,0.0
0.54,0.0,77.5,0,90,3.0,0,0.0
0.545,0.0,77.5,0,90,3.0,0,0.0
0.55,0.0,77.5,0,90,3.0,0,0.0
0.555,0.0,77.5,0,90,3.0,0,0.0
0.56,0.0,77.5,0,90,3.0,0,0.0
0.565,0.0,77.5,0,90,3.0,0,0.0
0.57,0.0,77.5,0,90,3.0,0,0.0
0.575,0.0,77.5,0,90,3.0,0,0.0
0.58,0.0,77.5,0,90,3.0,0,0.0
0.585,0.0,77.5,0,90,3.0,0,0.0
0.59,0.0,77.5,0,90,3.0,0,0.0
0.595,0.0,77.5,0,90,3.0,0,0.0
0.6,0.001684486749771458,77.5,0,90,3.0,0,0.0
0.605,0.004172395771277602,77.5,0,90,3.0,0,0.0
0.61,0.009438687428818865,77.5,0,90,3.0,0,0.0
0.615,0.019500507867137046,77.5,0,90,3.0,0,0.0
0.62,0.03679496976339974,77.5,0,90,3.0,0,0.0
0.625,0.06340728953298436,77.5,0,90,3.0,0,0.0
0.63,0.09979255396093453,77.5,0,90,3.0,0,0.0
0.635,0.14343835518453557,77.5,0,90,3.0,0,0.0
0.64,0.18829581417209276,77.5,0,90,3.0,0,0.0
0.645,0.2257481735193119,77.5,0,90,3.0,0,0.0
0.65,0.24718154073554727,77.5,0,90,3.0,0,0.0
0.655,0.24718154074102772,77.5,0,90,3.0,0,0.0
0.66,0.22574817354072055,77.5,0,90,3.0,0,0.0
0.665,0.18829581422840957,77.5,0,90,3.0,0,0.0
0.67,0.14343835532456656,77.5,0,90,3.0,0,0.0
0.675,0.09979255431561854,77.5,0,90,3.0,0,0.0
0.68,0.06340729067170194,77.5,0,90,3.0,0,0.0
0.685,0.03679497683410042,77.5,0,90,3.0,0,0.0
0.69,0.019500578284482293,77.5,0,90,3.0,0,0.0
0.695,0.009439396781978427,77.5,0,90,3.0,0,0.0
0.7,0.004178588733610924,77.5,0,90,3.0,0,0.0
0.705,0.0017299316936037381,77.5,0,90,3.0,0,0.0
0.71,0.0008997325756988589,77.5,0,90,3.0,0,0.0
0.715,0.001634769674224814,77.5,0,90,3.0,0,0.0
0.72,0.00614904736476635,77.5,0,90,3.0,0,0.0
0.725,0.02168080359963608,77.5,0,90,3.0,0,0.0
0.73,0.06433400338904088,77.5,0,90,3.0,0,0.0
0.735,0.1593410769217493,77.5,0,90,3.0,0,0.0
0.74,0.3291989194808569,77.5,0,90,3.0,0,0.0
0.745,0.5672906802982638,77.5,0,90,3.0,0,0.0
0.75,0.815339152120446,77.5,0,90,3.0,0,0.0
0.755,0.9768711246313155,77.5000028564677,1,90,3.0,0,5.889624128602796e-08
0.76,0.9726380909165361,77.50000545335169,0,90,3.0,0,1.1244024103548654e-07
0.765,0.7921091683291741,77.50001103870419,0,90,3.0,0,2.2760214818910904e-07
0.77,0.49139090102639077,77.50002451145392,0,90,3.0,0,5.053908023807342e-07
0.775,0.15739335672107918,77.50006056508865,0,90,3.0,0,1.2487647143423357e-06
0.78,-0.11102342218909485,77.500163159277,0,90,3.0,0,3.364108803999002e-06
0.785,-0.2314207883647528,77.50045963921588,0,90,3.0,0,9.477097234556608e-06
0.79,-0.2029124434754801,77.50130157200853,0,90,3.0,0,2.6836536258334144e-05
0.795,-0.11151350554305876,77.50360621062502,0,90,3.0,0,7.435485824789184e-05
0.8,-0.039430666652076896,77.50962435840236,0,90,3.0,0,0.0001984403794301553
0.805,-0.006087703519843621,77.5245336611205,0,90,3.0,0,0.0005058486828969172
0.81,0.005350271385530551,77.55946841825335,0,90,3.0,0,0.0012261529536772287
0.815,0.010381647827441833,77.63674715233715,0,90,3.0,0,0.002819528914168054
0.82,0.015115203303506243,77.79792448353166,0,90,3.0,0,0.006142772856322871
0.825,0.021170964062928475,78.11453494517251,0,90,3.0,0,0.012670823611804292
0.83,0.029082821134029553,78.69968859351175,0,90,3.0,0,0.0247358472889021
0.835,0.03923107061708144,79.71601941372563,0,90,3.0,0,0.04569112193248727
0.84,0.051969043308817596,81.3726112396058,0,90,3.0,0,0.07984765442486191
0.845,0.06760532616283861,83.90214348528451,0,90,3.0,0,0.13200295845947446
0.85,0.08636519236693461,87.51194056320449,0,90,3.0,0,0.2064317641897833
0.855,0.10834733138818661,92.31057839827544,0,90,3.0,0,0.305372750479906
0.86,0.1334809643017884,98.22445209684186,0,90,3.0,0,0.42730829065653314
0.865,0.16148868344343945,104.93176617201091,0,90,3.0,0,0.5656034262270291
0.87,0.191860907532018,111.84734002058431,0,90,3.0,0,0.7081925777440065
0.875,0.22384764873847726,118.18353745375319,0,90,3.0,0,0.8388358237887256
0.88,0.25647215537198226,123.08912705128517,0,90,3.0,0,0.9399820010574262
0.885,0.2885689161419028,125.83623498218132,0,90,3.0,0,0.9966234016944603
0.89,0.31884566517832524,126.0,0,90,3.0,0,1.0
0.895,0.3459657668955683,123.57027949337669,0,90,3.0,0,0.9499026699665296
0.9,0.3686441789190902,118.95531468006659,0,90,3.0,0,0.8547487562900329
0.905,0.3857476379544367,112.8759914170416,0,90,3.0,0,0.7294018848874557
0.91,0.3963882865005728,106.18868862199935,0,90,3.0,0,0.5915193530309144
0.915,0.4,99.69679952472116,0,90,3.0,0,0.45766596958187955
0.92,0.39638828650057273,94.00737257354771,0,90,3.0,0,0.3403581973927363
0.925,0.38574763795443656,89.46469600444867,0,90,3.0,0,0.24669476297832307
0.93,0.36864417891908974,86.1609302263463,0,90,3.0,0,0.1785758809555937
0.935,0.345965766895568,83.99956239812894,0,90,3.0,0,0.1340115958377102
0.94,0.3188456651783249,82.77835198542279,0,90,3.0,0,0.10883199969943892
0.945,0.28856891614190205,82.26364992927617,0,90,3.0,0,0.09821958617064268
0.95,0.2564721553719815,82.24082003149722,0,90,3.0,0,0.0977488666288087
0.955,0.22384764873847685,82.53843885242503,0,90,3.0,0,0.1038853371634027
0.96,0.19186090753201765,83.03228371198631,0,90,3.0,0,0.11406770540177957
0.965,0.16148868344343878,83.63787548612598,0,90,3.0,0,0.12655413373455623
0.97,0.1334809643017881,84.29912711951967,0,90,3.0,0,0.14018818803133334
0.975,0.10834733138818531,84.97779720332112,0,90,3.0,0,0.15418138563548694
0.98,0.08636519236690572,85.64573159835365,0,90,3.0,0,0.167953228832034
0.985,0.06760532616242629,86.28008889382897,0,90,3.0,0,0.18103276069750462
0.99,0.05196904332202373,86.86092112745918,0,90,3.0,0,0.19300868304039542
0.995,0.03923107185803287,87.37030590214425,0,90,3.0,0,0.2035114618998815
1.0,0.02908287038705761,87.79235702367464,0,90,3.0,0,0.2122135468798895
1.005,0.02117220077308346,88.11364773149214,0,90,3.0,0,0.2188380975565389
1.01,0.0151361834125735,88.32375687702194,0,90,3.0,0,0.22317024488705023
1.015,0.010626454858290009,88.41576824699521,0,90,3.0,0,0.2250673865359838
1.02,0.007326255555493652,88.38662664092895,0,90,3.0,0,0.22446652867894748
1.025,0.004960179211183015,88.2372990391203,0,90,3.0,0,0.22138760905402685
1.03,0.0032978759379303545,87.97271905935307,0,90,3.0,0,0.21593235173923853
1.035,0.002153242296767213,87.60151563015489,0,90,3.0,0,0.20827867278669882
1.04,0.001380616732225004,87.1355455413843,0,90,3.0,0,0.19867104209039801
1.045,0.0008693106590991584,86.58926483861305,0,90,3.0,0,0.18740752244562983
1.05,0.000537524815942247,85.97898542150867,0,90,3.0,0,0.17482444168059108
1.055,0.0003263951340288585,85.32207004119032,0,90,3.0,0,0.16127979466371783
1.06,0.00019463030985187395,84.63612080609002,0,90,3.0,0,0.1471365114657736
1.065,0.00011397219555062695,83.93821340240603,0,90,3.0,0,0.1327466680908461
1.07,6.55403863487943e-05,83.24422209684201,0,90,3.0,0,0.11843756900705173
1.075,3.701184389455385e-05,82.5682702000534,0,90,3.0,0,0.10450041649594649
1.08,2.0525516217290957e-05,81.92232827693294,0,90,3.0,0,0.09118202632851431
1.085,1.1178128483661116e-05,81.31596934262296,0,90,3.0,0,0.0786797802602673
1.09,5.978135409912517e-06,80.7562778662365,0,90,3.0,0,0.06713974981930931
1.095,3.1396702713238487e-06,80.24789870051464,0,90,3.0,0,0.056657705165250295
1.1,1.6192875458531019e-06,79.79320384552783,0,90,3.0,0,0.047282553516037676
1.105,8.201353897972012e-07,79.39254966509434,0,90,3.0,0,0.03902164257926466
1.11,4.0791415086824765e-07,79.04459487797472,0,90,3.0,0,0.03184731707164365
1.115,1.9923866938774793e-07,78.74665010120292,0,90,3.0,0,0.025704125797998287
1.12,9.556527981051257e-08,78.4950324497986,0,90,3.0,0,0.02051613298553815
1.125,4.501406988770349e-08,78.28540306685832,0,90,3.0,0,0.0161938776671819
1.13,0.0,78.11307078741693,0,90,3.0,0,0.012640634792101656
1.135,0.0,77.97325077488534,0,90,3.0,0,0.00975774793578028
1.14,0.0,77.86127235160261,0,90,3.0,0,0.007448914466033154
1.145,0.0,77.7727349529587,0,90,3.0,0,0.005623401091931963
1.15,0.0,77.70361489944557,0,90,3.0,0,0.004198245349393168
1.155,0.0,77.65032838439267,0,90,3.0,0,0.0030995543173745416
1.16,0.0,77.60975772765077,0,90,3.0,0,0.002263045930943784
1.165,0.0,77.57924865595666,0,90,3.0,0,0.0016339929063229112
1.17,0.0,77.55658631135569,0,90,3.0,0,0.001166728069189428
1.175,0.0,77.53995706181816,0,90,3.0,0,0.0008238569447042692
1.18,0.0,77.5279021961484,0,90,3.0,0,0.000575303013369142
1.185,0.0,77.5192684114055,0,90,3.0,0,0.00039728683310320627
1.19,0.0,77.51315879480705,0,90,3.0,0,0.000271315356846487
1.195,0.0,77.50888687354049,0,90,3.0,0,0.00018323450598948688
1.2,0.0,77.50593532585206,0,90,3.0,0,0.0001223778526198859
1.205,0.0,77.50392015117043,0,90,3.0,1,8.082785918419439e-05
1.21,0.0,77.5025604938901,0,90,3.0,1,5.279368845569395e-05
1.215,0.0,77.50165389279071,0,90,3.0,1,3.4100882282752264e-05
1.22,0.0,77.5010564614286,0,90,3.0,1,2.1782709868122447e-05
1.225,0.0,77.5006673637583,0,90,3.0,1,1.3760077490646321e-05
1.23,0.0,77.50041690228181,0,90,3.0,1,8.595923336355385e-06
1.235,0.0,77.50025755418267,0,90,3.0,1,5.310395518912647e-06
1.24,0.0,77.50015734959284,0,90,3.0,1,3.2443215018505274e-06
1.245,0.0,77.5000950660219,0,90,3.0,1,1.9601241628662914e-06
1.25,0.0,77.5000567999168,0,90,3.0,1,1.1711323052683848e-06
1.255,0.0,77.50003356083515,0,90,3.0,1,6.91975982456909e-07
1.26,0.0,77.50001961013126,0,90,3.0,1,4.0433260332084156e-07
1.265,0.0,77.50001133159184,0,90,3.0,1,2.3364106877378027e-07
1.27,0.0,77.50000647536162,0,90,3.0,1,1.3351261063502365e-07
1.275,0.001684486749771458,77.50000365931513,0,90,3.0,1,7.544979642205494e-08
1.28,0.004172395771277602,77.50000204502338,0,90,3.0,1,4.216543049654685e-08
1.285,0.009438687428818865,77.50000113021072,0,90,3.0,1,2.3303313807830526e-08
1.29,0.019500507867137046,77.50000061770804,0,90,3.0,1,1.2736248234751216e-08
1.295,0.03679496976339974,77.50000033386414,0,90,3.0,1,6.8837966255065934e-09
1.3,0.06340728953298436,77.50000017845099,0,90,3.0,1,3.6794018370463013e-09
1.305,0.09979255396093453,77.50000009432587,0,90,3.0,1,1.9448632944668417e-09
1.31,0.14343835518453557,77.50000004930664,0,90,3.0,1,1.0166316540037479e-09
1.315,0.18829581417209276,77.5000000254884,0,90,3.0,1,5.255341087850519e-10
1.32,0.2257481735193119,77.50000001302995,0,90,3.0,1,2.686586989530605e-10
1.325,0.24718154073554727,77.50000000658727,0,90,3.0,1,1.3582002418505787e-10
1.33,0.24718154074102772,77.5000000032933,0,90,3.0,1,6.790297991699976e-11
1.335,0.22574817354072055,77.50000000162824,0,90,3.0,1,3.3571898983581445e-11
1.34,0.18829581422840957,77.5000000007961,0,90,3.0,1,1.6414562721656317e-11
1.345,0.14343835532456656,77.50000000038493,0,90,3.0,1,7.936689106611891e-12
1.35,0.09979255431561854,77.50000000018406,0,90,3.0,1,3.795030727243224e-12
1.355,0.06340729067170194,77.50000000008704,0,90,3.0,1,1.7946697965074695e-12
1.36,0.03679497683410042,77.5000000000407,0,90,3.0,1,8.39172946481207e-13
1.365,0.019500578284482293,77.50000000001882,0,90,3.0,1,3.879416833593289e-13
1.37,0.009439396781978427,77.50000000000861,0,90,3.0,1,1.7756243211159617e-13
1.375,0.004178588733610924,77.5000000000039,0,90,3.0,1,8.028400395804844e-14
1.38,0.0017299316936037381,77.50000000000173,0,90,3.0,1,3.574689227329164e-14
1.385,0.0008997325756988589,77.50000000000077,0,90,3.0,1,1.5822394940637283e-14
1.39,0.001634769674224814,77.50000000000034,0,90,3.0,1,7.032175529172126e-15
1.395,0.00614904736476635,77.50000000000014,0,90,3.0,1,2.930073137155052e-15
1.4,0.02168080359963608,77.50000000000006,0,90,3.0,1,1.172029254862021e-15
1.405,0.06433400338904088,77.50000000000003,0,90,3.0,1,5.860146274310105e-16
1.41,0.1593410769217493,77.50000000000001,0,90,3.0,1,2.9300731371550523e-16
1.415,0.3291989194808569,77.5,0,90,3.0,1,0.0
1.42,0.5672906802982638,77.5,0,90,3.0,1,0.0
1.425,0.815339152120446,77.5,0,90,3.0,1,0.0
1.43,0.9768711246313155,77.50000284586159,1,90,3.0,1,5.8677558500516847e-08
1.435,0.9726380909165361,77.50000540621835,0,90,3.0,1,1.1146841957598394e-07
1.44,0.7921091683291741,77.5000108768639,0,90,3.0,1,2.2426523498287464e-07
1.445,0.49139090102639077,77.5000239632854,0,90,3.0,1,4.940883587719842e-07
1.45,0.15739335672107918,77.50005866103898,0,90,3.0,1,1.2095059582978926e-06
1.455,-0.11102342218909485,77.5001565274914,0,90,3.0,1,3.2273709566722866e-06
1.46,-0.2314207883647528,77.50043717338163,0,90,3.0,1,9.013884157259303e-06
1.465,-0.2029124434754801,77.50122904689188,0,90,3.0,1,2.534117302843697e-05
1.47,-0.11151350554305876,77.50338542462353,0,90,3.0,1,6.980256955733511e-05
1.475,-0.039430666652076896,77.50899344295689,0,90,3.0,1,0.0001854318135441804
1.48,-0.006087703519843621,77.52284424176906,0,90,3.0,1,0.00047101529420751363
1.485,0.005350271385530551,77.55523138800068,0,90,3.0,1,0.0011387915051686152
1.49,0.010381647827441833,77.62679470536686,0,90,3.0,1,0.002614323821997157
1.495,0.015115203303506243,77.77602863433232,0,90,3.0,1,0.005691312048089076
1.5,0.021170964062928475,78.06941882061071,0,90,3.0,1,0.011740594239396024
1.505,0.029082821134029553,78.61264705687972,0,90,3.0,1,0.022941176430509753
1.51,0.03923107061708144,79.55887006289213,0,90,3.0,1,0.04245092913179641
1.515,0.051969043308817596,81.10733409746567,0,90,3.0,1,0.07437802262815808
1.52,0.06760532616283861,83.4840347084959,0,90,3.0,1,0.12338215893805975
1.525,0.08636519236693461,86.89791075708786,0,90,3.0,1,0.19377135581624447
1.53,0.10834733138818661,91.47290531438892,0,90,3.0,1,0.28810114050286445
1.535,0.1334809643017884,97.16780461229023,0,90,3.0,1,0.40552174458330364
1.54,0.16148868344343945,103.70838557386074,0,90,3.0,1,0.5403790839971286
1.545,0.191860907532018,110.56339952140614,0,90,3.0,1,0.6817195777609514
1.55,0.22384764873847726,116.9905505634757,0,90,3.0,1,0.8142381559479525
1.555,0.25647215537198226,122.1585552525796,0,90,3.0,1,0.9207949536614352
1.56,0.2885689161419028,125.32204653102696,0,90,3.0,1,0.9860215779593187
1.565,0.31884566517832524,126.0,0,90,3.0,1,1.0
1.57,0.3459657668955683,124.09929318952061,0,90,3.0,1,0.960810168856095
1.575,0.3686441789190902,119.94001348411793,0,90,3.0,1,0.8750518244148026
1.58,0.3857476379544367,114.17337664266108,0,90,3.0,1,0.7561520957249708
1.585,0.3963882865005728,107.62152108345802,0,90,3.0,1,0.6210622903805777
1.59,0.4,101.0936464742221,0,90,3.0,1,0.4864669376128268
1.595,0.39638828650057273,95.23476363020654,0,90,3.0,1,0.3656652294887947
1.6,0.38574763795443656,90.4435854989949,0,90,3.0,1,0.2668780515256682
1.605,0.36864417891908974,86.86645009682657,0,90,3.0,1,0.19312268240879524
1.61,0.345965766895568,84.44866361769579,0,90,3.0,1,0.14327141479785124
1.615,0.3188456651783249,83.01238886958782,0,90,3.0,1,0.11365750246572832
1.62,0.28856891614190205,82.33219786893802,0,90,3.0,1,0.09963294575129947
1.625,0.2564721553719815,82.19037236159303,0,90,3.0,1,0.09670870848645433
1.63,0.22384764873847685,82.4067713597822,0,90,3.0,1,0.10117054350066387
1.635,0.19186090753201765,82.84733349045737,0,90,3.0,1,0.11025429877231697
1.64,0.16148868344343878,83.41925731830845,0,90,3.0,1,0.12204654264553512
1.645,0.1334809643017881,84.06060249564256,0,90,3.0,1,0.13527015454933106
1.65,0.10834733138818531,84.7296112585338,0,90,3.0,1,0.14906414966049059
1.655,0.08636519236690572,85.39633568541677,0,90,3.0,1,0.16281104506013966
1.66,0.06760532616242629,86.03717687645855,0,90,3.0,1,0.17602426549399064
1.665,0.05196904332202373,86.63190565549688,0,90,3.0,1,0.18828671454632742
1.67,0.03923107185803287,87.16241124326619,0,90,3.0,1,0.19922497408796272
1.675,0.02908287038705761,87.61248306715446,0,90,3.0,1,0.20850480550833933
1.68,0.02117220077308346,87.96811794886472,0,90,3.0,1,0.21583748348174672
1.685,0.0151361834125735,88.21802622801505,0,90,3.0,1,0.22099023150546493
1.69,0.010626454858290009,88.35414161770949,0,90,3.0,1,0.2237967343857626
1.695,0.007326255555493652,88.37202232834514,0,90,3.0,1,0.22416540883185854
1.7,0.004960179211183015,88.27108106749418,0,90,3.0,1,0.22208414572152949
1.705,0.0032978759379303545,88.05461363524023,0,90,3.0,1,0.21762089969567486
1.71,0.002153242296767213,87.7296191903864,0,90,3.0,1,0.21091998330693612
1.715,0.001380616732225004,87.30642415743608,0,90,3.0,1,0.20219431252445533
1.72,0.0008693106590991584,86.79813742453794,0,90,3.0,1,0.19171417370181323
1.725,0.000537524815942247,86.21997675578243,0,90,3.0,1,0.17979333517077167
1.73,0.0003263951340288585,85.58851459767371,0,90,3.0,1,0.16677349685925172
1.735,0.00019463030985187395,84.92089522273513,0,90,3.0,1,0.15300814892237374
1.74,0.00011397219555062695,84.2340743273611,0,90,3.0,1,0.13884689334765155
1.745,6.55403863487943e-05,83.54412713946391,0,90,3.0,1,0.1246211781332765
1.75,3.701184389455385e-05,82.86566255613282,0,90,3.0,1,0.11063221765222306
1.755,2.0525516217290957e-05,82.2113698868779,0,90,3.0,1,0.09714164715212173
1.76,1.1178128483661116e-05,81.59171264922182,0,90,3.0,1,0.08436520926230553
1.765,5.978135409912517e-06,81.0147717845139,0,90,3.0,1,0.07246952133018345
1.77,3.1396702713238487e-06,80.48622973646444,0,90,3.0,1,0.06157174714359665
1.775,1.6192875458531019e-06,80.00947792665202,0,90,3.0,1,0.0517418129206603
1.78,8.201353897972012e-07,79.58582382558662,0,90,3.0,1,0.04300667681621888
1.785,4.0791415086824765e-07,79.21477027933115,0,90,3.0,1,0.03535608823363192
1.79,1.9923866938774793e-07,78.89433892375651,0,90,3.0,1,0.02874925615992798
1.795,9.556527981051257e-08,78.62141105818226,0,90,3.0,1,0.02312187748829404
1.8,4.501406988770349e-08,78.39206273455854,0,90,3.0,1,0.018393046073371874
1.805,0.0,78.20187543065295,0,90,3.0,1,0.014471658363978296
1.81,0.0,78.04620888776554,0,90,3.0,1,0.01126203892300092
1.815,0.0,77.9204279351801,0,90,3.0,1,0.00866861722020826
1.82,0.0,77.82007993256983,0,90,3.0,1,0.0065995862385531045
1.825,0.0,77.74102351106553,0,90,3.0,1,0.004969556929186289
1.83,0.0,77.67951239873214,0,90,3.0,1,0.003701286571796767
1.835,0.0,77.63224022257143,0,90,3.0,1,0.0027266025272458896
1.84,0.0,77.59635333975864,0,90,3.0,1,0.0019866667991471345
1.845,0.0,77.56943909521827,0,90,3.0,1,0.0014317339220262168
1.85,0.0,77.54949660528963,0,90,3.0,1,0.0010205485626728467
1.855,0.0,77.53489641831816,0,90,3.0,1,0.000719513779755774
1.86,0.0,77.52433438497737,0,90,3.0,1,0.0005017398964405191
1.865,0.0,77.51678394216378,0,90,3.0,1,0.0003460606631707969
1.87,0.0,77.51144989895161,0,90,3.0,1,0.0002360803907548608
1.875,0.0,77.50772579914724,0,90,3.0,1,0.00015929482777810147
1.88,0.0,77.50515607531464,0,90,3.0,1,0.00010631083122978725
1.885,0.0,77.50340352677404,0,90,3.0,1,7.017580977394714e-05
1.89,0.0,77.50222214896947,0,90,3.0,1,4.581750452506846e-05
1.895,0.0,77.50143499784357,0,90,3.0,1,2.9587584403599846e-05
1.9,0.0,77.50091656528996,0,90,3.0,1,1.8898253401142864e-05
1.905,0.0,77.50057904143834,0,90,3.0,1,1.1938998728714274e-05
1.91,0.0,77.50036181782804,0,90,3.0,1,7.460161402809014e-06
1.915,0.0,77.50022361676467,0,90,3.0,1,4.610654941678749e-06
1.92,0.0,77.50013669506535,0,90,3.0,1,2.818454955680882e-06
1.925,0.0,77.50008264857955,0,90,3.0,1,1.7040944237109704e-06
1.93,0.0,77.50004942560916,0,90,3.0,1,1.0190847250055179e-06
1.935,0.0,77.50002923497637,0,90,3.0,1,6.027830178735121e-07
1.94,0.0,77.50001710360048,0,90,3.0,1,3.5265155637829334e-07
1.945,0.0,77.50000989706493,0,90,3.0,1,2.0406319438350074e-07
1.95,0.0,77.50000566447123,0,90,3.0,1,1.1679322127063117e-07
1.955,0.001684486749771458,77.50000320661198,0,90,3.0,1,6.611571089922212e-08
1.96,0.004172395771277602,77.50000179542606,0,90,3.0,1,3.7019093989544774e-08
1.965,0.009438687428818865,77.50000099431209,0,90,3.0,1,2.0501280178652132e-08
1.97,0.019500507867137046,77.50000054464309,0,90,3.0,1,1.1229754354363397e-08
1.975,0.03679496976339974,77.50000029507699,0,90,3.0,1,6.084061584429552e-09
1.98,0.06340728953298436,77.50000015812218,0,90,3.0,1,3.2602510656811926e-09
1.985,0.09979255396093453,77.50000008380778,0,90,3.0,1,1.727995396256879e-09
1.99,0.14343835518453557,77.50000004393492,0,90,3.0,1,9.058745964119732e-10
1.995,0.18829581417209276,77.50000002278082,0,90,3.0,1,4.697077183101503e-10
2.0,0.2257481735193119,77.50000001168324,0,90,3.0,1,2.408915678614969e-10
2.005,0.24718154073554727,77.5000000059264,0,90,3.0,1,1.221937190607183e-10
2.01,0.24718154074102772,77.5000000029734,0,90,3.0,1,6.130709227795003e-11
2.015,0.22574817354072055,77.50000000147553,0,90,3.0,1,3.0423242390394625e-11
2.02,0.18829581422840957,77.50000000072423,0,90,3.0,1,1.4932531728883294e-11
2.025,0.14343835532456656,77.50000000035159,0,90,3.0,1,7.249293948635315e-12
2.03,0.09979255431561854,77.50000000016882,0,90,3.0,1,3.4809268869402023e-12
2.035,0.06340729067170194,77.50000000008018,0,90,3.0,1,1.6531472639828805e-12
2.04,0.03679497683410042,77.50000000003766,0,90,3.0,1,7.764693813460888e-13
2.045,0.019500578284482293,77.5000000000175,0,90,3.0,1,3.606920031837869e-13
2.05,0.009439396781978427,77.50000000000804,0,90,3.0,1,1.6584213956297595e-13
2.055,0.004178588733610924,77.50000000000365,0,90,3.0,1,7.530287962488484e-14
2.06,0.0017299316936037381,77.50000000000165,0,90,3.0,1,3.3988848390998606e-14
2.065,0.0008997325756988589,77.50000000000072,0,90,3.0,1,1.4943372999490767e-14
2.07,0.001634769674224814,77.50000000000033,0,90,3.0,1,6.73916821545662e-15
2.075,0.00614904736476635,77.50000000000014,0,90,3.0,1,2.930073137155052e-15
2.08,0.02168080359963608,77.50000000000006,0,90,3.0,1,1.172029254862021e-15
2.085,0.06433400338904088,77.50000000000003,0,90,3.0,1,5.860146274310105e-16
2.09,0.1593410769217493,77.50000000000001,0,90,3.0,1,2.9300731371550523e-16
2.095,0.3291989194808569,77.5,0,90,3.0,1,0.0
2.1,0.5672906802982638,77.5,0,90,3.0,1,0.0
2.105,0.815339152120446,77.5,0,90,3.0,1,0.0
2.11,0.9768711246313155,77.50000285893489,1,90,3.0,1,5.894711116478405e-08
2.115,0.9726380909165361,77.50000618812223,0,90,3.0,1,1.275901490302691e-07
2.12,0.7921091683291741,77.50001468035043,0,90,3.0,1,3.026876377767509e-07
2.125,0.49139090102639077,77.50004011217966,0,90,3.0,1,8.270552507500602e-07
2.13,0.15739335672107918,77.50012586528338,0,90,3.0,1,2.595160482057049e-06
2.135,-0.11102342218909485,77.50042726793068,0,90,3.0,1,8.809648055157877e-06
2.14,-0.2314207883647528,77.50146692328671,0,90,3.0,1,3.0245840963164848e-05
2.145,-0.2029124434754801,77.50487105184348,0,90,3.0,1,0.00010043405862845866
2.15,-0.11151350554305876,77.51528218449549,0,90,3.0,1,0.00031509658753587657
2.155,-0.039430666652076896,77.54479593010373,0,90,3.0,1,0.0009236274248192063
2.16,-0.006087703519843621,77.62204053299997,0,90,3.0,1,0.00251629964948402
2.165,0.005350271385530551,77.80824652760434,0,90,3.0,1,0.006355598507305966
2.17,0.010381647827441833,78.22092533119431,0,90,3.0,1,0.014864439818439355
2.175,0.015115203303506243,79.06031377637058,0,90,3.0,1,0.032171418069496444
2.18,0.021170964062928475,80.6240864071174,0,90,3.0,1,0.06441415272407017
2.185,0.029082821134029553,83.2856052670689,0,90,3.0,1,0.11929083024884335
2.19,0.03923107061708144,87.40944979650192,0,90,3.0,1,0.20431855250519418
2.195,0.051969043308817596,93.19661535878168,0,90,3.0,1,0.3236415537893131
2.2,0.06760532616283861,100.49390932475231,0,90,3.0,1,0.47410122319076925
2.205,0.08636519236693461,108.65132916743002,0,90,3.0,1,0.6422954467511345
2.21,0.10834733138818661,116.53176722628177,0,90,3.0,1,0.8047787056965314
2.215,0.1334809643017884,122.73557070070211,0,90,3.0,1,0.9326921793959199
2.22,0.16148868344343945,126.0,0,90,3.0,1,1.0
2.225,0.191860907532018,125.62298582495731,0,90,3.0,1,0.9922265118547899
2.23,0.22384764873847726,121.71803980938984,0,90,3.0,1,0.9117121610183472
2.235,0.25647215537198226,115.1748489499153,0,90,3.0,1,0.7768010092766041
2.24,0.2885689161419028,107.3452185843005,0,90,3.0,1,0.6153653316350618
2.245,0.31884566517832524,99.60678992267415,0,90,3.0,1,0.45581010149843615
2.25,0.3459657668955683,92.99679555401843,0,90,3.0,1,0.31952155781481306
2.255,0.3686441789190902,88.04208125889988,0,90,3.0,1,0.21736250018350275
2.26,0.3857476379544367,84.79591935806049,0,90,3.0,1,0.15043132697031933
2.265,0.3963882865005728,83.00191711258685,0,90,3.0,1,0.11344158995024438
2.27,0.4,82.28100953608437,0,90,3.0,1,0.09857751620792514
2.275,0.39638828650057273,82.2691592434131,0,90,3.0,1,0.09833318027655875
2.28,0.38574763795443656,82.6836701097863,0,90,3.0,1,0.10687979607806816
2.285,0.36864417891908974,83.33287140328397,0,90,3.0,1,0.12026538975843246
2.29,0.345965766895568,84.09661735200604,0,90,3.0,1,0.13601272890734092
2.295,0.3188456651783249,84.90017530817117,0,90,3.0,1,0.15258093418909632
2.3,0.28856891614190205,85.69329084161134,0,90,3.0,1,0.1689338317858009
2.305,0.2564721553719815,86.43743999716447,0,90,3.0,1,0.18427711334359742
2.31,0.22384764873847685,87.09984541959422,0,90,3.0,1,0.19793495710503542
2.315,0.19186090753201765,87.65172216748766,0,90,3.0,1,0.20931385912345696
2.32,0.16148868344343878,88.06865320462217,0,90,3.0,1,0.21791037535303434
2.325,0.1334809643017881,88.33175555080422,0,90,3.0,1,0.22333516599596326
2.33,0.10834733138818531,88.4288907394673,0,90,3.0,1,0.22533795339107848
2.335,0.08636519236690572,88.35553086478332,0,90,3.0,1,0.22382537865532615
2.34,0.06760532616242629,88.1150913912956,0,90,3.0,1,0.21886786373805375
2.345,0.05196904332202373,87.71866320849443,0,90,3.0,1,0.2106940867730811
2.35,0.03923107185803287,87.18416339903555,0,90,3.0,1,0.19967347214506298
2.355,0.02908287038705761,86.53499269797297,0,90,3.0,1,0.18628850923655602
2.36,0.02117220077308346,85.79833909740718,0,90,3.0,1,0.17109977520427175
2.365,0.0151361834125735,85.0032984901782,0,90,3.0,1,0.15470718536449887
2.37,0.010626454858290009,84.1789923168614,0,90,3.0,1,0.13771118179095662
2.375,0.007326255555493652,83.35284925367858,0,90,3.0,1,0.12067730419955845
2.38,0.004960179211183015,82.54918644393858,0,90,3.0,1,0.10410693698842434
2.385,0.0032978759379303545,81.78818142130838,0,90,3.0,1,0.08841611177955423
2.39,0.002153242296767213,81.08527579059167,0,90,3.0,1,0.07392321217714776
2.395,0.001380616732225004,80.45100306514775,0,90,3.0,1,0.06084542402366484
2.4,0.0008693106590991584,79.89119187830183,0,90,3.0,1,0.04930292532581083
2.405,0.000537524815942247,79.40746627281584,0,90,3.0,1,0.0393292015013575
2.41,0.0003263951340288585,78.99794884579315,0,90,3.0,2,0.03088554321222983
2.415,0.00019463030985187395,78.65806989536343,0,90,3.0,2,0.02387772980130774
2.42,0.00011397219555062695,78.38139429627614,0,90,3.0,2,0.018173078273734877
2.425,6.55403863487943e-05,78.16039438770699,0,90,3.0,2,0.013616379127979106
2.43,3.701184389455385e-05,77.98711800925507,0,90,3.0,2,0.010043670293918974
2.435,2.0525516217290957e-05,77.85372248948764,0,90,3.0,2,0.0072932472059306684
2.44,1.1178128483661116e-05,77.75286506567673,0,90,3.0,2,0.005213712694365561
2.445,5.978135409912517e-06,77.67795601393767,0,90,3.0,2,0.003669196163663384
2.45,3.1396702713238487e-06,77.62329179601988,0,90,3.0,2,0.0025420988870079324
2.455,1.6192875458531019e-06,77.5840917447069,0,90,3.0,2,0.0017338504063277539
2.46,8.201353897972012e-07,77.55646381545465,0,90,3.0,2,0.0011642023805082191
2.465,4.0791415086824765e-07,77.53732370552795,0,90,3.0,2,0.0007695609387206838
2.47,1.9923866938774793e-07,77.52428829121516,0,90,3.0,2,0.0005007895095908698
2.475,9.556527981051257e-08,77.5155599014792,0,90,3.0,2,0.00032082271091119944
2.48,4.501406988770349e-08,77.5098132846989,0,90,3.0,2,0.00020233576698748862
2.485,0.0,77.5060928379677,0,90,3.0,2,0.0001256255251072049
2.49,0.0,77.50372411028097,0,90,3.0,2,7.678577898907617e-05
2.495,0.0,77.50224090327806,0,90,3.0,2,4.62041913002962e-05
2.5,0.0,77.5013274597602,0,90,3.0,2,2.737030433412112e-05
2.505,0.0,77.50077413605054,0,90,3.0,2,1.59615680523253e-05
2.51,0.0,77.50044443770291,0,90,3.0,2,9.163663977530923e-06
2.515,0.0,77.50025118989846,0,90,3.0,2,5.179173164198389e-06
2.52,0.0,77.50013976264815,0,90,3.0,2,2.8817040854907656e-06
2.525,0.001684486749771458,77.50007655573768,0,90,3.0,2,1.578468818104401e-06
2.53,0.004172395771277602,77.50004128212503,0,90,3.0,2,8.511778355686025e-07
2.535,0.009438687428818865,77.50002191512834,0,90,3.0,2,4.518583163536681e-07
2.54,0.019500507867137046,77.50001145311617,0,90,3.0,2,2.361467252121281e-07
2.545,0.03679496976339974,77.50000589251896,0,90,3.0,2,1.2149523621298342e-07
2.55,0.06340728953298436,77.50000298453024,0,90,3.0,2,6.153670599430661e-08
2.555,0.09979255396093453,77.50000148815667,0,90,3.0,2,3.0683642678210616e-08
2.56,0.14343835518453557,77.50000073049794,0,90,3.0,2,1.506181329486279e-08
2.565,0.18829581417209276,77.50000035301001,0,90,3.0,2,7.278556882063396e-09
2.57,0.2257481735193119,77.50000016793945,0,90,3.0,2,3.4626690152079617e-09
2.575,0.24718154073554727,77.50000007865314,0,90,3.0,2,1.6217143183894223e-09
2.58,0.24718154074102772,77.50000003626411,0,90,3.0,2,7.477136435780492e-10
2.585,0.22574817354072055,77.50000001646023,0,90,3.0,2,3.393862693742777e-10
2.59,0.18829581422840957,77.50000000735515,0,90,3.0,2,1.516526743816752e-10
2.595,0.14343835532456656,77.50000000323554,0,90,3.0,2,6.671219819405994e-11
2.6,0.09979255431561854,77.50000000140119,0,90,3.0,2,2.8890521132348817e-11
2.605,0.06340729067170194,77.50000000059738,0,90,3.0,2,1.2317148446658694e-11
2.61,0.03679497683410042,77.50000000025072,0,90,3.0,2,5.1695280358826585e-12
2.615,0.019500578284482293,77.5000000001036,0,90,3.0,2,2.136023316986033e-12
2.62,0.009439396781978427,77.50000000004214,0,90,3.0,2,8.687666851664731e-13
2.625,0.004178588733610924,77.50000000001687,0,90,3.0,2,3.477996813803047e-13
2.63,0.0017299316936037381,77.50000000000665,0,90,3.0,2,1.3712742281885644e-13
2.635,0.0008997325756988589,77.50000000000259,0,90,3.0,2,5.332733109622195e-14
2.64,0.001634769674224814,77.50000000000098,0,90,3.0,2,2.0217504646369862e-14
2.645,0.00614904736476635,77.50000000000037,0,90,3.0,2,7.618190156603136e-15
2.65,0.02168080359963608,77.50000000000014,0,90,3.0,2,2.930073137155052e-15
2.655,0.06433400338904088,77.50000000000004,0,90,3.0,2,8.790219411465157e-16
2.66,0.1593410769217493,77.50000000000001,0,90,3.0,2,2.9300731371550523e-16
2.665,0.3291989194808569,77.5,0,90,3.0,2,0.0
2.67,0.5672906802982638,77.5,0,90,3.0,2,0.0
2.675,0.815339152120446,77.5,0,90,3.0,2,0.0
2.68,0.9768711246313155,77.50000284150002,1,90,3.0,2,5.858762928180591e-08
2.685,0.9726380909165361,77.5000055087254,0,90,3.0,2,1.1358196688794948e-07
2.69,0.7921091683291741,77.50001136395807,0,90,3.0,2,2.3430841373428661e-07
2.695,0.49139090102639077,77.50002585890292,0,90,3.0,2,5.331732559967612e-07
2.7,0.15739335672107918,77.50006577270929,0,90,3.0,2,1.356138335905626e-06
2.705,-0.11102342218909485,77.50018247875063,0,90,3.0,2,3.76244846661487e-06
2.71,-0.2314207883647528,77.50052776496497,0,90,3.0,2,1.0881751855078582e-05
2.715,-0.2029124434754801,77.50152756139154,0,90,3.0,2,3.1496111165786474e-05
2.72,-0.11151350554305876,77.50430755613382,0,90,3.0,2,8.88155903881271e-05
2.725,-0.039430666652076896,77.5116563600092,0,90,3.0,2,0.00024033731977727622
2.73,-0.006087703519843621,77.53002739545968,0,90,3.0,2,0.0006191215558697577
2.735,0.005350271385530551,77.57333096905042,0,90,3.0,2,0.0015119787433075698
2.74,0.010381647827441833,77.66940490223725,0,90,3.0,2,0.0034928845822112743
2.745,0.015115203303506243,77.86976747664984,0,90,3.0,2,0.007624071683501874
2.75,0.021170964062928475,78.26211431813414,0,90,3.0,2,0.01571369728111625
2.755,0.029082821134029553,78.98267513398078,0,90,3.0,2,0.03057062131919128
2.76,0.03923107061708144,80.22218766058688,0,90,3.0,2,0.05612758063065738
2.765,0.051969043308817596,82.21612057642412,0,90,3.0,2,0.09723959951389932
2.77,0.06760532616283861,85.20932922752098,0,90,3.0,2,0.15895524180455634
2.775,0.08636519236693461,89.39039798617173,0,90,3.0,2,0.24516284507570588
2.78,0.10834733138818661,94.8028006534978,0,90,3.0,2,0.35675877636077935
2.785,0.1334809643017884,101.25612781731577,0,90,3.0,2,0.48981706839826333
2.79,0.16148868344343945,108.27370857382006,0,90,3.0,2,0.6345094551303105
2.795,0.191860907532018,115.11341104223824,0,90,3.0,2,0.775534248293572
2.8,0.22384764873847726,120.88000833622657,0,90,3.0,2,0.8944331615716817
2.805,0.25647215537198226,124.71329532894552,0,90,3.0,2,0.9734700067823818
2.81,0.2885689161419028,126.0,0,90,3.0,2,1.0
2.815,0.31884566517832524,124.53834900968857,0,90,3.0,2,0.9698628661791459
2.82,0.3459657668955683,120.59493192202842,0,90,3.0,2,0.8885552973614108
2.825,0.3686441789190902,114.83222413300682,0,90,3.0,2,0.7697365800619963
2.83,0.3857476379544367,108.13422420586735,0,90,3.0,2,0.6316334887807702
2.835,0.3963882865005728,101.3936098555063,0,90,3.0,2,0.492651749598068
2.84,0.4,95.33064507931,0,90,3.0,2,0.3676421665837114
2.845,0.39638828650057273,90.39185276201252,0,90,3.0,2,0.2658113971548973
2.85,0.38574763795443656,86.73955542986523,0,90,3.0,2,0.19050629752299453
2.855,0.36864417891908974,84.31059562557269,0,90,3.0,2,0.14042465207366367
2.86,0.345965766895568,82.9065602268215,0,90,3.0,2,0.11147546859425768
2.865,0.3188456651783249,82.28033336831763,0,90,3.0,2,0.09856357460448717
2.87,0.28856891614190205,82.19778113694667,0,90,3.0,2,0.09686146674116852
2.875,0.2564721553719815,82.46927305071628,0,90,3.0,2,0.1024592381590986
2.88,0.22384764873847685,82.95682150774277,0,90,3.0,2,0.11251178366479946
2.885,0.19186090753201765,83.56687754099825,0,90,3.0,2,0.12509025857728348
2.89,0.16148868344343878,84.23787322707521,0,90,3.0,2,0.1389252211768085
2.895,0.1334809643017881,84.92832444149448,0,90,3.0,2,0.15316132869060786
2.9,0.10834733138818531,85.60801881012263,0,90,3.0,2,0.16717564556953876
2.905,0.08636519236690572,86.25260772478875,0,90,3.0,2,0.18046613865543806
2.91,0.06760532616242629,86.84089403560439,0,90,3.0,2,0.19259575331143078
2.915,0.05196904332202373,87.35388295636871,0,90,3.0,2,0.20317284446121045
2.92,0.03923107185803287,87.77481720348132,0,90,3.0,2,0.21185190110270763
2.925,0.02908287038705761,88.08966243795557,0,90,3.0,2,0.21834355542176428
2.93,0.02117220077308346,88.28771551986046,0,90,3.0,2,0.22242712412083412
2.935,0.0151361834125735,88.36214631799686,0,90,3.0,2,0.22396177975251258
2.94,0.010626454858290009,88.31036736727964,0,90,3.0,2,0.22289417252122967
2.945,0.007326255555493652,88.13417633763018,0,90,3.0,2,0.21926136778618927
2.95,0.004960179211183015,87.83965035915766,0,90,3.0,2,0.213188667199127
2.955,0.0032978759379303545,87.43679744267308,0,90,3.0,2,0.20488242149841407
2.96,0.002153242296767213,86.9389917989111,0,90,3.0,2,0.1946183876064145
2.965,0.001380616732225004,86.36223716698538,0,90,3.0,2,0.18272653952547177
2.97,0.0008693106590991584,85.72431461211428,0,90,3.0,2,0.16957349715699555
2.975,0.000537524815942247,85.04387789533241,0,90,3.0,2,0.15554387413056525
2.98,0.0003263951340288585,84.33956014461978,0,90,3.0,2,0.14102185865195427
2.985,0.00019463030985187395,83.62915046826862,0,90,3.0,2,0.1263742364591468
2.99,0.00011397219555062695,82.92888923969679,0,90,3.0,2,0.11193586061230489
2.995,6.55403863487943e-05,82.25291740154772,0,90,3.0,2,0.09799829693912823
3.0,3.701184389455385e-05,81.61289990625842,0,90,3.0,2,0.08480205992285401
3.005,2.0525516217290957e-05,81.01782800176962,0,90,3.0,2,0.07253253611896114
3.01,1.1178128483661116e-05,80.47399100328275,0,90,3.0,2,0.0613194021295412
3.015,5.978135409912517e-06,79.9850966673004,0,90,3.0,2,0.05123910654227622
3.02,3.1396702713238487e-06,79.55251108450634,0,90,3.0,2,0.04231981617538835
3.025,1.6192875458531019e-06,79.17558445710158,0,90,3.0,2,0.034548133136115024
3.03,8.201353897972012e-07,78.85202811529082,0,90,3.0,2,0.027876868356511774
3.035,4.0791415086824765e-07,78.57831019218708,0,90,3.0,2,0.022233199838908767
3.04,1.9923866938774793e-07,78.35004180586505,0,90,3.0,2,0.01752663517247519
3.045,9.556527981051257e-08,78.16233155760507,0,90,3.0,2,0.013656320775362298
3.05,4.501406988770349e-08,78.01009280593172,0,90,3.0,2,0.01051737744189113
3.055,0.0,77.88829476616297,0,90,3.0,2,0.008006077652844772
3.06,0.0,77.79215442099877,0,90,3.0,2,0.006023802494820002
3.065,0.0,77.71727110655786,0,90,3.0,2,0.004479816630058962
3.07,0.0,77.65970925268655,0,90,3.0,2,0.003292974282196985
3.075,0.0,77.61603707332719,0,90,3.0,2,0.0023925169758183882
3.08,0.0,77.58333012691409,0,90,3.0,2,0.0017181469466823053
3.085,0.0,77.55914879585012,0,90,3.0,2,0.0012195628010334112
3.09,0.0,77.54149811404007,0,90,3.0,2,0.0008556312173209687
3.095,0.0,77.52877725728622,0,90,3.0,2,0.0005933455110561316
3.1,0.0,77.51972463735181,0,90,3.0,2,0.0004066935536456509
3.105,0.0,77.51336310074132,0,90,3.0,2,0.00027552785033640716
3.11,0.0,77.50894837231351,0,90,3.0,2,0.0001845025219280774
3.115,0.0,77.50592269592266,0,90,3.0,2,0.00012211744170440163
3.12,0.0,77.50387465835057,0,90,3.0,2,7.988986289831832e-05
3.125,0.0,77.50250545138663,0,90,3.0,2,5.1658791476807595e-05
3.13,0.0,77.50160131633649,0,90,3.0,2,3.301683168021236e-05
3.135,0.0,77.50101159546982,0,90,3.0,2,2.0857638552975802e-05
3.14,0.0,77.5006316481158,0,90,3.0,2,1.3023672490711779e-05
3.145,0.0,77.50038983616128,0,90,3.0,2,8.037858995371654e-06
3.15,0.0,77.50023780863849,0,90,3.0,2,4.903270896659603e-06
3.155,0.0,77.50014338764066,0,90,3.0,2,2.9564461992214493e-06
3.16,0.0,77.50008545439401,0,90,3.0,2,1.7619462682629541e-06
3.165,0.0,77.5000503379664,0,90,3.0,2,1.0378962144255338e-06
3.17,0.0,77.50002930863025,0,90,3.0,2,6.04301654562995e-07
3.175,0.0,77.50001686684932,0,90,3.0,2,3.47770089106656e-07
3.18,0.0,77.50000959424924,0,90,3.0,2,1.9781957185729233e-07
3.185,0.001684486749771458,77.50000539419466,0,90,3.0,2,1.1122050843190777e-07
3.19,0.004172395771277602,77.50000299764929,0,90,3.0,2,6.180720184911667e-08
3.195,0.009438687428818865,77.50000164654504,0,90,3.0,2,3.394938235689233e-08
3.2,0.019500507867137046,77.50000089393305,0,90,3.0,2,1.8431609246878916e-08
3.205,0.03679496976339974,77.50000047970579,0,90,3.0,2,9.890841025930826e-09
3.21,0.06340728953298436,77.5000002544389,0,90,3.0,2,5.246162926755695e-09
3.215,0.09979255396093453,77.50000013339228,0,90,3.0,2,2.750356222265706e-09
3.22,0.14343835518453557,77.50000006912201,0,90,3.0,2,1.4251960711243151e-09
3.225,0.18829581417209276,77.50000003540305,0,90,3.0,2,7.299597444253993e-10
3.23,0.2257481735193119,77.5000000179227,0,90,3.0,2,3.695402380433678e-10
3.235,0.24718154073554727,77.5000000089682,0,90,3.0,2,1.8491134854689477e-10
3.24,0.24718154074102772,77.50000000443552,0,90,3.0,2,9.145402877151092e-11
3.245,0.22574817354072055,77.50000000216832,0,90,3.0,2,4.4707641941339216e-11
3.25,0.18829581422840957,77.50000000104771,0,90,3.0,2,2.160225721098934e-11
3.255,0.14343835532456656,77.50000000050038,0,90,3.0,2,1.0317080523236655e-11
3.26,0.09979255431561854,77.5000000002362,0,90,3.0,2,4.870074561265413e-12
3.265,0.06340729067170194,77.5000000001102,0,90,3.0,2,2.272271717863743e-12
3.27,0.03679497683410042,77.50000000005083,0,90,3.0,2,1.0480871611603622e-12
3.275,0.019500578284482293,77.50000000002316,0,90,3.0,2,4.776019213562735e-13
3.28,0.009439396781978427,77.50000000001044,0,90,3.0,2,2.1536037558089634e-13
3.285,0.004178588733610924,77.50000000000465,0,90,3.0,2,9.581339158497021e-14
3.29,0.0017299316936037381,77.50000000000205,0,90,3.0,2,4.2193053175032755e-14
3.295,0.0008997325756988589,77.5000000000009,0,90,3.0,2,1.845946076407683e-14
3.3,0.001634769674224814,77.50000000000038,0,90,3.0,2,7.911197470318642e-15
3.305,0.00614904736476635,77.50000000000016,0,90,3.0,2,3.2230804508705575e-15
3.31,0.02168080359963608,77.50000000000007,0,90,3.0,2,1.465036568577526e-15
3.315,0.06433400338904088,77.50000000000003,0,90,3.0,2,5.860146274310105e-16
3.32,0.1593410769217493,77.50000000000001,0,90,3.0,2,2.9300731371550523e-16
3.325,0.3291989194808569,77.5,0,90,3.0,2,0.0
3.33,0.5672906802982638,77.5,0,90,3.0,2,0.0
3.335,0.815339152120446,77.5,0,90,3.0,2,0.0
3.34,0.9768711246313155,77.50000284150002,1,90,3.0,2,5.858762928180591e-08
3.345,0.9726380909165361,77.5000055087254,0,90,3.0,2,1.1358196688794948e-07
3.35,0.7921091683291741,77.50001136395807,0,90,3.0,2,2.3430841373428661e-07
3.355,0.49139090102639077,77.50002585890292,0,90,3.0,2,5.331732559967612e-07
3.36,0.15739335672107918,77.50006577270929,0,90,3.0,2,1.356138335905626e-06
3.365,-0.11102342218909485,77.50018247875063,0,90,3.0,2,3.76244846661487e-06
3.37,-0.2314207883647528,77.50052776496497,0,90,3.0,2,1.0881751855078582e-05
3.375,-0.2029124434754801,77.50152756139154,0,90,3.0,2,3.1496111165786474e-05
3.38,-0.11151350554305876,77.50430755613382,0,90,3.0,2,8.88155903881271e-05
3.385,-0.039430666652076896,77.5116563600092,0,90,3.0,2,0.00024033731977727622
3.39,-0.006087703519843621,77.53002739545968,0,90,3.0,2,0.0006191215558697577
3.395,0.005350271385530551,77.57333096905042,0,90,3.0,2,0.0015119787433075698
3.4,0.010381647827441833,77.66940490223725,0,90,3.0,2,0.0034928845822112743
3.405,0.015115203303506243,77.86976747664984,0,90,3.0,2,0.007624071683501874
3.41,0.021170964062928475,78.26211431813414,0,90,3.0,2,0.01571369728111625
3.415,0.029082821134029553,78.98267513398078,0,90,3.0,2,0.03057062131919128
3.42,0.03923107061708144,80.22218766058688,0,90,3.0,2,0.05612758063065738
3.425,0.051969043308817596,82.21612057642412,0,90,3.0,2,0.09723959951389932
3.43,0.06760532616283861,85.20932922752098,0,90,3.0,2,0.15895524180455634
3.435,0.08636519236693461,89.39039798617173,0,90,3.0,2,0.24516284507570588
3.44,0.10834733138818661,94.8028006534978,0,90,3.0,2,0.35675877636077935
3.445,0.1334809643017884,101.25612781731577,0,90,3.0,2,0.48981706839826333
3.45,0.16148868344343945,108.27370857382006,0,90,3.0,2,0.6345094551303105
3.455,0.191860907532018,115.11341104223824,0,90,3.0,2,0.775534248293572
3.46,0.22384764873847726,120.88000833622657,0,90,3.0,2,0.8944331615716817
3.465,0.25647215537198226,124.71329532894552,0,90,3.0,2,0.9734700067823818
3.47,0.2885689161419028,126.0,0,90,3.0,2,1.0
3.475,0.31884566517832524,124.53834900968857,0,90,3.0,2,0.9698628661791459
3.48,0.3459657668955683,120.59493192202842,0,90,3.0,2,0.8885552973614108
3.485,0.3686441789190902,114.83222413300682,0,90,3.0,2,0.7697365800619963
3.49,0.3857476379544367,108.13422420586735,0,90,3.0,2,0.6316334887807702
3.495,0.3963882865005728,101.3936098555063,0,90,3.0,2,0.492651749598068
3.5,0.4,95.33064507931,0,90,3.0,2,0.3676421665837114
3.505,0.39638828650057273,90.39185276201252,0,90,3.0,2,0.2658113971548973
3.51,0.38574763795443656,86.73955542986523,0,90,3.0,2,0.19050629752299453
3.515,0.36864417891908974,84.31059562557269,0,90,3.0,2,0.14042465207366367
3.52,0.345965766895568,82.9065602268215,0,90,3.0,2,0.11147546859425768
3.525,0.3188456651783249,82.28033336831763,0,90,3.0,2,0.09856357460448717
3.53,0.28856891614190205,82.19778113694667,0,90,3.0,2,0.09686146674116852
3.535,0.2564721553719815,82.46927305071628,0,90,3.0,2,0.1024592381590986
3.54,0.22384764873847685,82.95682150774277,0,90,3.0,2,0.11251178366479946
3.545,0.19186090753201765,83.56687754099825,0,90,3.0,2,0.12509025857728348
3.55,0.16148868344343878,84.23787322707521,0,90,3.0,2,0.1389252211768085
3.555,0.1334809643017881,84.92832444149448,0,90,3.0,2,0.15316132869060786
3.56,0.10834733138818531,85.60801881012263,0,90,3.0,2,0.16717564556953876
3.565,0.08636519236690572,86.25260772478875,0,90,3.0,2,0.18046613865543806
3.57,0.06760532616242629,86.84089403560439,0,90,3.0,2,0.19259575331143078
3.575,0.05196904332202373,87.35388295636871,0,90,3.0,2,0.20317284446121045
3.58,0.03923107185803287,87.77481720348132,0,90,3.0,2,0.21185190110270763
3.585,0.02908287038705761,88.08966243795557,0,90,3.0,2,0.21834355542176428
3.59,0.02117220077308346,88.28771551986046,0,90,3.0,2,0.22242712412083412
3.595,0.0151361834125735,88.36214631799686,0,90,3.0,2,0.22396177975251258
3.6,0.010626454858290009,88.31036736727964,0,90,3.0,2,0.22289417252122967
3.605,0.007326255555493652,88.13417633763018,0,90,3.0,2,0.21926136778618927
3.61,0.004960179211183015,87.83965035915766,0,90,3.0,2,0.213188667199127
3.615,0.0032978759379303545,87.43679744267308,0,90,3.0,3,0.20488242149841407
3.62,0.002153242296767213,86.9389917989111,0,90,3.0,3,0.1946183876064145
3.625,0.001380616732225004,86.36223716698538,0,90,3.0,3,0.18272653952547177
3.63,0.0008693106590991584,85.72431461211428,0,90,3.0,3,0.16957349715699555
3.635,0.000537524815942247,85.04387789533241,0,90,3.0,3,0.15554387413056525
3.64,0.0003263951340288585,84.33956014461978,0,90,3.0,3,0.14102185865195427
3.645,0.00019463030985187395,83.62915046826862,0,90,3.0,3,0.1263742364591468
3.65,0.00011397219555062695,82.92888923969679,0,90,3.0,3,0.11193586061230489
3.655,6.55403863487943e-05,82.25291740154772,0,90,3.0,3,0.09799829693912823
3.66,3.701184389455385e-05,81.61289990625842,0,90,3.0,3,0.08480205992285401
3.665,2.0525516217290957e-05,81.01782800176962,0,90,3.0,3,0.07253253611896114
3.67,1.1178128483661116e-05,80.47399100328275,0,90,3.0,3,0.0613194021295412
3.675,5.978135409912517e-06,79.9850966673004,0,90,3.0,3,0.05123910654227622
3.68,3.1396702713238487e-06,79.55251108450634,0,90,3.0,3,0.04231981617538835
3.685,1.6192875458531019e-06,79.17558445710158,0,90,3.0,3,0.034548133136115024
3.69,8.201353897972012e-07,78.85202811529082,0,90,3.0,3,0.027876868356511774
3.695,4.0791415086824765e-07,78.57831019218708,0,90,3.0,3,0.022233199838908767
3.7,1.9923866938774793e-07,78.35004180586505,0,90,3.0,3,0.01752663517247519
3.705,9.556527981051257e-08,78.16233155760507,0,90,3.0,3,0.013656320775362298
3.71,4.501406988770349e-08,78.01009280593172,0,90,3.0,3,0.01051737744189113
3.715,0.0,77.88829476616297,0,90,3.0,3,0.008006077652844772
3.72,0.0,77.79215442099877,0,90,3.0,3,0.006023802494820002
3.725,0.0,77.71727110655786,0,90,3.0,3,0.004479816630058962
3.73,0.0,77.65970925268655,0,90,3.0,3,0.003292974282196985
3.735,0.0,77.61603707332719,0,90,3.0,3,0.0023925169758183882
3.74,0.0,77.58333012691409,0,90,3.0,3,0.0017181469466823053
3.745,0.0,77.55914879585012,0,90,3.0,3,0.0012195628010334112
3.75,0.0,77.54149811404007,0,90,3.0,3,0.0008556312173209687
3.755,0.0,77.52877725728622,0,90,3.0,3,0.0005933455110561316
3.76,0.0,77.51972463735181,0,90,3.0,3,0.0004066935536456509
3.765,0.0,77.51336310074132,0,90,3.0,3,0.00027552785033640716
3.77,0.0,77.50894837231351,0,90,3.0,3,0.0001845025219280774
3.775,0.0,77.50592269592266,0,90,3.0,3,0.00012211744170440163
3.78,0.0,77.50387465835057,0,90,3.0,3,7.988986289831832e-05
3.785,0.0,77.50250545138663,0,90,3.0,3,5.1658791476807595e-05
3.79,0.0,77.50160131633649,0,90,3.0,3,3.301683168021236e-05
3.795,0.0,77.50101159546982,0,90,3.0,3,2.0857638552975802e-05
3.8,0.0,77.5006316481158,0,90,3.0,3,1.3023672490711779e-05
3.805,0.0,77.50038983616128,0,90,3.0,3,8.037858995371654e-06
3.81,0.0,77.50023780863849,0,90,3.0,3,4.903270896659603e-06
3.815,0.0,77.50014338764066,0,90,3.0,3,2.9564461992214493e-06
3.82,0.0,77.50008545439401,0,90,3.0,3,1.7619462682629541e-06
3.825,0.0,77.5000503379664,0,90,3.0,3,1.0378962144255338e-06
3.83,0.0,77.50002930863025,0,90,3.0,3,6.04301654562995e-07
3.835,0.0,77.50001686684932,0,90,3.0,3,3.47770089106656e-07
3.84,0.0,77.50000959424924,0,90,3.0,3,1.9781957185729233e-07
3.845,0.001684486749771458,77.50000539419466,0,90,3.0,3,1.1122050843190777e-07
3.85,0.004172395771277602,77.50000299764929,0,90,3.0,3,6.180720184911667e-08
3.855,0.009438687428818865,77.50000164654504,0,90,3.0,3,3.394938235689233e-08
3.86,0.019500507867137046,77.50000089393305,0,90,3.0,3,1.8431609246878916e-08
3.865,0.03679496976339974,77.50000047970579,0,90,3.0,3,9.890841025930826e-09
3.87,0.06340728953298436,77.5000002544389,0,90,3.0,3,5.246162926755695e-09
3.875,0.09979255396093453,77.50000013339228,0,90,3.0,3,2.750356222265706e-09
3.88,0.14343835518453557,77.50000006912201,0,90,3.0,3,1.4251960711243151e-09
3.885,0.18829581417209276,77.50000003540305,0,90,3.0,3,7.299597444253993e-10
3.89,0.2257481735193119,77.5000000179227,0,90,3.0,3,3.695402380433678e-10
3.895,0.24718154073554727,77.5000000089682,0,90,3.0,3,1.8491134854689477e-10
3.9,0.24718154074102772,77.50000000443552,0,90,3.0,3,9.145402877151092e-11
3.905,0.22574817354072055,77.50000000216832,0,90,3.0,3,4.4707641941339216e-11
3.91,0.18829581422840957,77.50000000104771,0,90,3.0,3,2.160225721098934e-11
3.915,0.14343835532456656,77.50000000050038,0,90,3.0,3,1.0317080523236655e-11
3.92,0.09979255431561854,77.5000000002362,0,90,3.0,3,4.870074561265413e-12
3.925,0.06340729067170194,77.5000000001102,0,90,3.0,3,2.272271717863743e-12
3.93,0.03679497683410042,77.50000000005083,0,90,3.0,3,1.0480871611603622e-12
3.935,0.019500578284482293,77.50000000002316,0,90,3.0,3,4.776019213562735e-13
3.94,0.009439396781978427,77.50000000001044,0,90,3.0,3,2.1536037558089634e-13
3.945,0.004178588733610924,77.50000000000465,0,90,3.0,3,9.581339158497021e-14
3.95,0.0017299316936037381,77.50000000000205,0,90,3.0,3,4.2193053175032755e-14
3.955,0.0008997325756988589,77.5000000000009,0,90,3.0,3,1.845946076407683e-14
3.96,0.001634769674224814,77.50000000000038,0,90,3.0,3,7.911197470318642e-15
3.965,0.00614904736476635,77.50000000000016,0,90,3.0,3,3.2230804508705575e-15
3.97,0.02168080359963608,77.50000000000007,0,90,3.0,3,1.465036568577526e-15
3.975,0.06433400338904088,77.50000000000003,0,90,3.0,3,5.860146274310105e-16
3.98,0.1593410769217493,77.50000000000001,0,90,3.0,3,2.9300731371550523e-16
3.985,0.3291989194808569,77.5,0,90,3.0,3,0.0
3.99,0.5672906802982638,77.5,0,90,3.0,3,0.0
3.995,0.815339152120446,77.5,0,90,3.0,3,0.0
4.0,0.9768711246313155,77.5000028495992,1,90,3.0,3,5.8754622647104476e-08
4.005,0.9726380909165361,77.50000521622965,0,90,3.0,3,1.075511268589759e-07
4.01,0.7921091683291741,77.50001003184255,0,90,3.0,3,2.06842114423744e-07
4.015,0.49139090102639077,77.50002086143309,0,90,3.0,3,4.30132640946054e-07
4.02,0.15739335672107918,77.5000476593659,0,90,3.0,3,9.826673382361047e-07
4.025,-0.11102342218909485,77.5001183364054,0,90,3.0,3,2.4399258843904763e-06
4.03,-0.2314207883647528,77.50030933544511,0,90,3.0,3,6.378050414630557e-06
4.035,-0.2029124434754801,77.50082200342337,0,90,3.0,3,1.6948524193111617e-05
4.04,-0.11151350554305876,77.50216205965356,0,90,3.0,3,4.457854955787588e-05
4.045,-0.039430666652076896,77.50553489210309,0,90,3.0,3,0.0001141214866615578
4.05,-0.006087703519843621,77.51365844030069,0,90,3.0,3,0.0002816173257873785
4.055,0.005350271385530551,77.53231627301004,0,90,3.0,3,0.0006663149074234897
4.06,0.010381647827441833,77.57309621159689,0,90,3.0,3,0.001507138383441046
4.065,0.015115203303506243,77.657803469981,0,90,3.0,3,0.0032536797934227773
4.07,0.021170964062928475,77.82485509900845,0,90,3.0,3,0.006698043278524646
4.075,0.029082821134029553,78.13736293559109,0,90,3.0,3,0.01314150382662031
4.08,0.03923107061708144,78.69144684397986,0,90,3.0,3,0.024565914308863117
4.085,0.051969043308817596,79.62164981828742,0,90,3.0,3,0.0437453570780912
4.09,0.06760532616283861,81.09861679088165,0,90,3.0,3,0.07419828434807525
4.095,0.08636519236693461,83.31340846938576,0,90,3.0,3,0.11986409215228377
4.1,0.10834733138818661,86.44420204955951,0,90,3.0,3,0.18441653710431974
4.105,0.1334809643017884,90.60562721106557,0,90,3.0,3,0.2702191177539292
4.11,0.16148868344343945,95.78836983257673,0,90,3.0,3,0.3770797903624069
4.115,0.191860907532018,101.80487465023725,0,90,3.0,3,0.501131436087366
4.12,0.22384764873847726,108.26223981649645,0,90,3.0,3,0.6342729859071432
4.125,0.25647215537198226,114.58168257095079,0,90,3.0,3,0.7645707746587792
4.13,0.2885689161419028,120.0732287599271,0,90,3.0,3,0.8777985311325176
4.135,0.31884566517832524,124.05651257188923,0,90,3.0,3,0.9599280942657573
4.14,0.3459657668955683,126.0,0,90,3.0,3,1.0
4.145,0.3686441789190902,125.63979154071257,0,90,3.0,3,0.9925730214579911
4.15,0.3857476379544367,123.04159744781288,0,90,3.0,3,0.9390020092332552
4.155,0.3963882865005728,118.58602852218327,0,90,3.0,3,0.8471346087048097
4.16,0.4,112.88194313968907,0,90,3.0,3,0.7295246008183314
4.165,0.39638828650057273,106.63524700178176,0,90,3.0,3,0.6007267423047786
4.17,0.38574763795443656,100.51222268984526,0,90,3.0,3,0.4744788183473249
4.175,0.36864417891908974,95.03342954567974,0,90,3.0,3,0.3615140112511286
4.18,0.345965766895568,90.51937551821848,0,90,3.0,3,0.2684407323344017
4.185,0.3188456651783249,87.0899623785511,0,90,3.0,3,0.1977311830629094
4.19,0.28856891614190205,84.70403859301403,0,90,3.0,3,0.1485368782064749
4.195,0.2564721553719815,83.21803786777781,0,90,3.0,3,0.11789768799541875
4.2,0.22384764873847685,82.44396448813953,0,90,3.0,3,0.1019374121265882
4.205,0.19186090753201765,82.19384441375703,0,90,3.0,3,0.09678029719086668
4.21,0.16148868344343878,82.30602436330493,0,90,3.0,3,0.09909328584133872
4.215,0.1334809643017881,82.65514723512985,0,90,3.0,3,0.10629169556968754
4.22,0.10834733138818531,83.15091306925933,0,90,3.0,3,0.11651367153112024
4.225,0.08636519236690572,83.73116053721081,0,90,3.0,3,0.12847753684970747
4.23,0.06760532616242629,84.35352751412901,0,90,3.0,3,0.1413098456521446
4.235,0.05196904332202373,84.988162019471,0,90,3.0,3,0.1543950931849692
4.24,0.03923107185803287,85.61243627372812,0,90,3.0,3,0.16726672729336334
4.245,0.02908287038705761,86.20766235021242,0,90,3.0,3,0.17953942990128693
4.25,0.02117220077308346,86.75737840114627,0,90,3.0,3,0.19087378146693337
4.255,0.0151361834125735,87.24669041211017,0,90,3.0,3,0.200962688909488
4.26,0.010626454858290009,87.66223561673164,0,90,3.0,3,0.20953063127281724
4.265,0.007326255555493652,87.99245861796106,0,90,3.0,3,0.21633935294765078
4.27,0.004960179211183015,88.22800094208027,0,90,3.0,3,0.22119589571299528
4.275,0.0032978759379303545,88.36208251802232,0,90,3.0,3,0.22396046428911998
4.28,0.002153242296767213,88.3908031202982,0,90,3.0,3,0.22455264165563302
4.285,0.001380616732225004,88.313322569792,0,90,3.0,3,0.22295510453179396
4.29,0.0008693106590991584,88.13189872855499,0,90,3.0,3,0.21921440677432963
4.295,0.000537524815942247,87.85177727674194,0,90,3.0,3,0.21343870673694726
4.3,0.0003263951340288585,87.48093946488271,0,90,3.0,3,0.20579256628624143
4.305,0.00019463030985187395,87.02972432038673,0,90,3.0,3,0.1964891612450873
4.31,0.00011397219555062695,86.51035011571695,0,90,3.0,3,0.18578041475705043
4.315,6.55403863487943e-05,85.93636593813538,0,90,3.0,3,0.17394568944609035
4.32,3.701184389455385e-05,85.3220676178811,0,90,3.0,3,0.16127974469857945
4.325,2.0525516217290957e-05,84.6819129313368,0,90,3.0,3,0.148080678996635
4.33,1.1178128483661116e-05,84.02996899291153,0,90,3.0,3,0.1346385359363203
4.335,5.978135409912517e-06,83.37942041297052,0,90,3.0,3,0.1212251631540313
4.34,3.1396702713238487e-06,82.74216065154886,0,90,3.0,3,0.10808578662987335
4.345,1.6192875458531019e-06,82.1284816903293,0,90,3.0,3,0.09543261217173804
4.35,8.201353897972012e-07,81.54686938374624,0,90,3.0,3,0.08344060585043796
4.355,4.0791415086824765e-07,81.00390431750586,0,90,3.0,3,0.07224544984548158
4.36,1.9923866938774793e-07,80.50426129419272,0,90,3.0,3,0.061943531839025075
4.365,9.556527981051257e-08,80.0507951370098,0,90,3.0,3,0.05259371416515051
4.37,4.501406988770349e-08,79.64469664134593,0,90,3.0,3,0.04422054930610166
4.375,0.0,79.28570032014531,0,90,3.0,3,0.036818563301965146
4.38,0.0,78.97232502831886,0,90,3.0,3,0.03035721707873945
4.385,0.0,78.70212942204091,0,90,3.0,3,0.024786173650328078
4.39,0.0,78.47196622074313,0,90,3.0,3,0.020040540633878907
4.395,0.0,78.27822204797289,0,90,3.0,3,0.016045815422121426
4.4,0.0,78.11703287434221,0,90,3.0,3,0.012722327306025044
4.405,0.0,77.98446843779352,0,90,3.0,3,0.009989039954505645
4.41,0.0,77.87668219124409,0,90,3.0,3,0.007766643118434765
4.415,0.0,77.79002611222023,0,90,3.0,3,0.005979919839592419
4.42,0.0,77.72113196608001,0,90,3.0,3,0.0045594219810311054
4.425,0.0,77.66696228011871,0,90,3.0,3,0.003442521239561037
4.43,0.0,77.62483536066372,0,90,3.0,3,0.0025739249621386353
4.435,0.0,77.59242921979414,0,90,3.0,3,0.0019057571091575505
4.44,0.0,77.5677693573691,0,90,3.0,3,0.0013973063375072496
4.445,0.0,77.54920507081805,0,90,3.0,3,0.0010145375426401475
4.45,0.0,77.53537844729509,0,90,3.0,3,0.0007294525215482013
4.455,0.0,77.52518953144987,0,90,3.0,3,0.0005193717824715101
4.46,0.0,77.51776044419957,0,90,3.0,3,0.0003661947257642661
4.465,0.0,77.51240052211861,0,90,3.0,3,0.00025568086842496865
4.47,0.0,77.50857390234358,0,90,3.0,3,0.00017678149162030733
4.475,0.0,77.50587042450613,0,90,3.0,3,0.0001210396805387185
4.48,0.0,77.50398027332128,0,90,3.0,3,8.20674911603147e-05
4.485,0.0,77.50267244451638,0,90,3.0,3,5.510194879129766e-05
4.49,0.0,77.5017768751459,0,90,3.0,3,3.6636600946249204e-05
4.495,0.0,77.50116992370694,0,90,3.0,3,2.4122138287409434e-05
4.5,0.0,77.50076279982322,0,90,3.0,3,1.5727831406616835e-05
4.505,0.0,77.50049251111884,0,90,3.0,3,1.015486842960076e-05
4.51,0.0,77.50031490090498,0,90,3.0,3,6.492802164579301e-06
4.515,0.0,77.50019938119357,0,90,3.0,3,4.110952444694028e-06
4.52,0.0,77.50012501061386,0,90,3.0,3,2.5775384300424175e-06
4.525,0.0,77.50007761791949,0,90,3.0,3,1.6003694739636784e-06
4.53,0.0,77.50004772319603,0,90,3.0,3,9.839834233647257e-07
4.535,0.0,77.50002905691196,0,90,3.0,3,5.991115867144208e-07
4.54,0.0,77.50001751950404,0,90,3.0,3,3.6122688744895996e-07
4.545,0.0,77.50001046035855,0,90,3.0,3,2.1567749593149407e-07
4.55,0.0,77.50000618477277,0,90,3.0,3,1.275210880854483e-07
4.555,0.0,77.5000036212069,0,90,3.0,3,7.466405980539065e-08
4.56,0.0,77.5000020995941,0,90,3.0,3,4.329059997074829e-08
4.565,0.001684486749771458,77.50000120550708,0,90,3.0,3,2.4855815989625268e-08
4.57,0.004172395771277602,77.50000068541972,0,90,3.0,3,1.4132365381040462e-08
4.575,0.009438687428818865,77.50000038591871,0,90,3.0,3,7.957086810756194e-09
4.58,0.019500507867137046,77.50000021517286,0,90,3.0,3,4.436553832213754e-09
4.585,0.03679496976339974,77.50000011880414,0,90,3.0,3,2.4495698573783677e-09
4.59,0.06340728953298436,77.5000000649573,0,90,3.0,3,1.3393258827302806e-09
4.595,0.09979255396093453,77.50000003517037,0,90,3.0,3,7.251623356779353e-10
4.6,0.14343835518453557,77.50000001885725,0,90,3.0,3,3.8880927801524053e-10
4.605,0.18829581417209276,77.50000001001226,0,90,3.0,3,2.064383028782592e-10
4.61,0.2257481735193119,77.50000000526427,0,90,3.0,3,1.0854162929277176e-10
4.615,0.24718154073554727,77.50000000274092,0,90,3.0,3,5.651378563287807e-11
4.62,0.24718154074102772,77.50000000141321,0,90,3.0,3,2.913840531975213e-11
4.625,0.22574817354072055,77.50000000072156,0,90,3.0,3,1.487744635390478e-11
4.63,0.18829581422840957,77.50000000036482,0,90,3.0,3,7.52208375770445e-12
4.635,0.14343835532456656,77.50000000018267,0,90,3.0,3,3.766316010499104e-12
4.64,0.09979255431561854,77.50000000009057,0,90,3.0,3,1.8673356103089148e-12
4.645,0.06340729067170194,77.50000000004447,0,90,3.0,3,9.16819884615816e-13
4.65,0.03679497683410042,77.50000000002161,0,90,3.0,3,4.4566412416128344e-13
4.655,0.019500578284482293,77.5000000000104,0,90,3.0,3,2.1448135363974982e-13
4.66,0.009439396781978427,77.50000000000496,0,90,3.0,3,1.0225955248671133e-13
4.665,0.004178588733610924,77.50000000000234,0,90,3.0,3,4.834620676305836e-14
4.67,0.0017299316936037381,77.5000000000011,0,90,3.0,3,2.25615631560939e-14
4.675,0.0008997325756988589,77.50000000000051,0,90,3.0,3,1.0548263293758189e-14
4.68,0.001634769674224814,77.50000000000023,0,90,3.0,3,4.688117019448084e-15
4.685,0.00614904736476635,77.5000000000001,0,90,3.0,3,2.0510511960085364e-15
4.69,0.02168080359963608,77.50000000000004,0,90,3.0,3,8.790219411465157e-16
4.695,0.06433400338904088,77.50000000000001,0,90,3.0,3,2.9300731371550523e-16
4.7,0.1593410769217493,77.50000000000001,0,90,3.0,3,2.9300731371550523e-16
4.705,0.3291989194808569,77.5,0,90,3.0,3,0.0
4.71,0.5672906802982638,77.5,0,90,3.0,3,0.0
4.715,0.815339152120446,77.5,0,90,3.0,3,0.0
4.72,0.9768711246313155,77.50000285188469,1,90,3.0,3,5.88017461343474e-08
4.725,0.9726380909165361,77.500005472104,0,90,3.0,3,1.1282688645449e-07
4.73,0.7921091683291741,77.50001114553572,0,90,3.0,3,2.2980486026370402e-07
4.735,0.49139090102639077,77.50002494746741,0,90,3.0,3,5.143807713241201e-07
4.74,0.15739335672107918,77.50006223014493,0,90,3.0,3,1.283095771835169e-06
4.745,-0.11102342218909485,77.5001692753466,0,90,3.0,3,3.4902133318178834e-06
4.75,-0.2314207883647528,77.50048103204684,0,90,3.0,3,9.918186532683284e-06
4.755,-0.2029124434754801,77.50137207546508,0,90,3.0,3,2.8290215774943847e-05
4.76,-0.11151350554305876,77.50382388761822,0,90,3.0,3,7.884304367473877e-05
4.765,-0.039430666652076896,77.51025255192553,0,90,3.0,3,0.00021139282320685189
4.77,-0.006087703519843621,77.52622730260188,0,90,3.0,3,0.0005407691258119953
4.775,0.005350271385530551,77.56373480349473,0,90,3.0,3,0.0013141196596850547
4.78,0.010381647827441833,77.64679192528084,0,90,3.0,3,0.0030266376346564368
4.785,0.015115203303506243,77.82003264790949,0,90,3.0,3,0.006598611297102794
4.79,0.021170964062928475,78.16002289075324,0,90,3.0,3,0.013608719396974014
4.795,0.029082821134029553,78.78715565839514,0,90,3.0,3,0.026539291925672906
4.8,0.03923107061708144,79.87309703665223,0,90,3.0,3,0.04892983580726239
4.805,0.051969043308817596,81.6357728352696,0,90,3.0,3,0.08527366670658981
4.81,0.06760532616283861,84.31274116702575,0,90,3.0,3,0.14046889004176802
4.815,0.08636519236693461,88.10699478553131,0,90,3.0,3,0.21870092341301678
4.82,0.10834733138818661,93.10840244452054,0,90,3.0,4,0.3218227308148564
4.825,0.1334809643017884,99.20787973600085,0,90,3.0,4,0.44758514919589376
4.83,0.16148868344343945,106.03465479272373,0,90,3.0,4,0.5883433977881181
4.835,0.191860907532018,112.95149073900936,0,90,3.0,4,0.7309585719383372
4.84,0.22384764873847726,119.13158563547512,0,90,3.0,4,0.8583832089788684
4.845,0.25647215537198226,123.71388588995438,0,90,3.0,4,0.9528636265969976
4.85,0.2885689161419028,126.0,0,90,3.0,4,1.0
4.855,0.31884566517832524,125.63168033832994,0,90,3.0,4,0.9924057801717514
4.86,0.3459657668955683,122.68717513676035,0,90,3.0,4,0.9316943327167081
4.865,0.3686441789190902,117.66114684156429,0,90,3.0,4,0.8280648833312224
4.87,0.3857476379544367,111.33557350136091,0,90,3.0,4,0.6976406907497096
4.875,0.3963882865005728,104.5882963007817,0,90,3.0,4,0.5585215732119939
4.88,0.4,98.20380090084146,0,90,3.0,4,0.4268824928008548
4.885,0.39638828650057273,92.74127363349305,0,90,3.0,4,0.31425306460810415
4.89,0.38574763795443656,88.48579720411917,0,90,3.0,4,0.22651128255915806
4.895,0.36864417891908974,85.47562070635212,0,90,3.0,4,0.16444578775983748
4.9,0.345965766895568,83.57616312899322,0,90,3.0,4,0.1252817139998601
4.905,0.3188456651783249,82.5659171942369,0,90,3.0,4,0.10445190091210109
4.91,0.28856891614190205,82.2077740060747,0,90,3.0,4,0.09706750527989073
4.915,0.2564721553719815,82.29359471173308,0,90,3.0,4,0.09883700436563048
4.92,0.22384764873847685,82.66255827345258,0,90,3.0,4,0.10644450048355825
4.925,0.19186090753201765,83.20095515387028,0,90,3.0,4,0.11754546709010891
4.93,0.16148868344343878,83.83258540626372,0,90,3.0,4,0.13056877126316943
4.935,0.1334809643017881,84.50688720883298,0,90,3.0,4,0.1444719012130511
4.94,0.10834733138818531,85.18879930614817,0,90,3.0,4,0.1585319444566633
4.945,0.08636519236690572,85.85174343024126,0,90,3.0,4,0.1722008954688919
4.95,0.06760532616242629,86.47356190947447,0,90,3.0,4,0.1850218950407107
4.955,0.05196904332202373,87.0346351717773,0,90,3.0,4,0.19659041591293394
4.96,0.03923107185803287,87.51735949791845,0,90,3.0,4,0.20654349480244225
4.965,0.02908287038705761,87.90635065364523,0,90,3.0,4,0.2145639310029945
4.97,0.02117220077308346,88.1889541011337,0,90,3.0,4,0.22039080620894233
4.975,0.0151361834125735,88.35580849564253,0,90,3.0,4,0.22383110300293885
4.98,0.010626454858290009,88.4013164549309,0,90,3.0,4,0.22476941144187437
4.985,0.007326255555493652,88.32394120303454,0,90,3.0,4,0.2231740454233925
4.99,0.004960179211183015,88.12628788072502,0,90,3.0,4,0.21909871919020651
4.995,0.0032978759379303545,87.8149564468404,0,90,3.0,4,0.21267951436784327
5.0,0.002153242296767213,87.40017534035806,0,90,3.0,4,0.20412732660532085
5.005,0.001380616732225004,86.89524350085946,0,90,3.0,4,0.1937163608424632
5.01,0.0008693106590991584,86.31582296936395,0,90,3.0,4,0.18176954576008145
5.015,0.000537524815942247,85.67913444059066,0,90,3.0,4,0.16864194722867337
5.02,0.0003263951340288585,85.00311320618148,0,90,3.0,4,0.15470336507590685
5.025,0.00019463030985187395,84.3055827268295,0,90,3.0,4,0.1403212933366907
5.03,0.00011397219555062695,83.60349793607864,0,90,3.0,4,0.12584531826966266
5.035,6.55403863487943e-05,82.91230113964602,0,90,3.0,4,0.11159383793084575
5.04,3.701184389455385e-05,82.24542123587032,0,90,3.0,4,0.09784373682206855
5.045,2.0525516217290957e-05,81.613933357956,0,90,3.0,4,0.08482336820527836
5.05,1.1178128483661116e-05,81.0263823663777,0,90,3.0,4,0.07270891477067429
5.055,5.978135409912517e-06,80.48876119719017,0,90,3.0,4,0.06162394221010664
5.06,3.1396702713238487e-06,80.00462491990231,0,90,3.0,4,0.05164175092582087
5.065,1.6192875458531019e-06,79.57531413717051,0,90,3.0,4,0.042789982209701205
5.07,8.201353897972012e-07,79.20025733794617,0,90,3.0,4,0.035056852328787
5.075,4.0791415086824765e-07,78.8773208986497,0,90,3.0,4,0.028398369044323704
5.08,1.9923866938774793e-07,78.60317721354771,0,90,3.0,4,0.02274592192881876
5.085,9.556527981051257e-08,78.37366531514834,0,90,3.0,4,0.01801371783811018
5.09,4.501406988770349e-08,78.18412359953327,0,90,3.0,4,0.014105641227490006
5.095,0.0,78.02968017202754,0,90,3.0,4,0.010921240660361643
5.1,0.0,77.90549221983429,0,90,3.0,4,0.008360664326480135
5.105,0.0,77.80693117491525,0,90,3.0,4,0.0063284778333041036
5.11,0.0,77.72971488846713,0,90,3.0,4,0.00473638945293049
5.115,0.0,77.66999140059843,0,90,3.0,4,0.003504977331926474
5.12,0.0,77.624381109498,0,90,3.0,4,0.002564558958721715
5.125,0.0,77.58998529958369,0,90,3.0,4,0.001855367001725527
5.13,0.0,77.56436923879633,0,90,3.0,4,0.001327200799924356
5.135,0.0,77.54552760933194,0,90,3.0,4,0.0009387135944730149
5.14,0.0,77.53183911478689,0,90,3.0,4,0.0006564765935441408
5.145,0.0,77.52201591751752,0,90,3.0,4,0.0004539364436602307
5.15,0.0,77.51505227902882,0,90,3.0,4,0.00031035626863550747
5.155,0.0,77.51017553839584,0,90,3.0,4,0.00020980491537818461
5.16,0.0,77.50680146081736,0,90,3.0,4,0.0001402363055125154
5.165,0.0,77.5044950721781,0,90,3.0,4,9.268190057942428e-05
5.17,0.0,77.50293738454126,0,90,3.0,4,6.056462971659852e-05
5.175,0.0,77.5018979055961,0,90,3.0,4,3.9132074146298636e-05
5.18,0.0,77.50121248974423,0,90,3.0,4,2.499978854089444e-05
5.185,0.0,77.50076589847964,0,90,3.0,4,1.5791721229734977e-05
5.19,0.0,77.50047835906365,0,90,3.0,4,9.863073477303842e-06
5.195,0.0,77.50029541087085,0,90,3.0,4,6.090945790679284e-06
5.2,0.0,77.50018038009229,0,90,3.0,4,3.7191771605897154e-06
5.205,0.0,77.50010890314022,0,90,3.0,4,2.2454255714627526e-06
5.21,0.0,77.5000650102546,0,90,3.0,4,1.3404176206560017e-06
5.215,0.0,77.50003837187288,0,90,3.0,4,7.911726366100336e-07
5.22,0.0,77.50002239410928,0,90,3.0,4,4.617342119555482e-07
5.225,0.0,77.500012922432,0,90,3.0,4,2.6644189703577083e-07
5.23,0.0,77.50000737300255,0,90,3.0,4,1.520206710571899e-07
5.235,0.001684486749771458,77.50000415943343,0,90,3.0,4,8.576151403242865e-08
5.24,0.004172395771277602,77.50000232013706,0,90,3.0,4,4.783787745772006e-08
5.245,0.009438687428818865,77.50000127962515,0,90,3.0,4,2.6384023763010605e-08
5.25,0.019500507867137046,77.50000069781701,0,90,3.0,4,1.4387979687394222e-08
5.255,0.03679496976339974,77.50000037626171,0,90,3.0,4,7.75797339771351e-09
5.26,0.06340728953298436,77.5000002005987,0,90,3.0,4,4.136055786523112e-09
5.265,0.09979255396093453,77.50000010574405,0,90,3.0,4,2.1802896899129167e-09
5.27,0.14343835518453557,77.50000005511545,0,90,3.0,4,1.1364010305507842e-09
5.275,0.18829581417209276,77.50000002840406,0,90,3.0,4,5.856507123473758e-10
5.28,0.2257481735193119,77.50000001447363,0,90,3.0,4,2.984253119534186e-10
5.285,0.24718154073554727,77.50000000729229,0,90,3.0,4,1.503564100257978e-10
5.29,0.24718154074102772,77.50000000363279,0,90,3.0,4,7.490292464166318e-11
5.295,0.22574817354072055,77.50000000178939,0,90,3.0,4,3.689460192111527e-11
5.3,0.18829581422840957,77.50000000087148,0,90,3.0,4,1.7968673513603357e-11
5.305,0.14343835532456656,77.50000000041966,0,90,3.0,4,8.652798981332584e-12
5.31,0.09979255431561854,77.50000000019982,0,90,3.0,4,4.119975838153719e-12
5.315,0.06340729067170194,77.50000000009408,0,90,3.0,4,1.9397084167966446e-12
5.32,0.03679497683410042,77.50000000004378,0,90,3.0,4,9.027555335574716e-13
5.325,0.019500578284482293,77.50000000002015,0,90,3.0,4,4.154843708485864e-13
5.33,0.009439396781978427,77.50000000000917,0,90,3.0,4,1.8898971734650088e-13
5.335,0.004178588733610924,77.50000000000412,0,90,3.0,4,8.497212097749652e-14
5.34,0.0017299316936037381,77.50000000000183,0,90,3.0,4,3.779794346930017e-14
5.345,0.0008997325756988589,77.50000000000081,0,90,3.0,4,1.67014168817838e-14
5.35,0.001634769674224814,77.50000000000036,0,90,3.0,4,7.32518284288763e-15
5.355,0.00614904736476635,77.50000000000016,0,90,3.0,4,3.2230804508705575e-15
5.36,0.02168080359963608,77.50000000000006,0,90,3.0,4,1.172029254862021e-15
5.365,0.06433400338904088,77.50000000000003,0,90,3.0,4,5.860146274310105e-16
5.37,0.1593410769217493,77.50000000000001,0,90,3.0,4,2.9300731371550523e-16
5.375,0.3291989194808569,77.5,0,90,3.0,4,0.0
5.38,0.5672906802982638,77.5,0,90,3.0,4,0.0
5.385,0.815339152120446,77.5,0,90,3.0,4,0.0
5.39,0.9768711246313155,77.50000284586159,1,90,3.0,4,5.8677558500516847e-08
5.395,0.9726380909165361,77.50000540621835,0,90,3.0,4,1.1146841957598394e-07
5.4,0.7921091683291741,77.5000108768639,0,90,3.0,4,2.2426523498287464e-07
5.405,0.49139090102639077,77.5000239632854,0,90,3.0,4,4.940883587719842e-07
5.41,0.15739335672107918,77.50005866103898,0,90,3.0,4,1.2095059582978926e-06
5.415,-0.11102342218909485,77.5001565274914,0,90,3.0,4,3.2273709566722866e-06
5.42,-0.2314207883647528,77.50043717338163,0,90,3.0,4,9.013884157259303e-06
5.425,-0.2029124434754801,77.50122904689188,0,90,3.0,4,2.534117302843697e-05
5.43,-0.11151350554305876,77.50338542462353,0,90,3.0,4,6.980256955733511e-05
5.435,-0.039430666652076896,77.50899344295689,0,90,3.0,4,0.0001854318135441804
5.44,-0.006087703519843621,77.52284424176906,0,90,3.0,4,0.00047101529420751363
5.445,0.005350271385530551,77.55523138800068,0,90,3.0,4,0.0011387915051686152
5.45,0.010381647827441833,77.62679470536686,0,90,3.0,4,0.002614323821997157
5.455,0.015115203303506243,77.77602863433232,0,90,3.0,4,0.005691312048089076
5.46,0.021170964062928475,78.06941882061071,0,90,3.0,4,0.011740594239396024
5.465,0.029082821134029553,78.61264705687972,0,90,3.0,4,0.022941176430509753
5.47,0.03923107061708144,79.55887006289213,0,90,3.0,4,0.04245092913179641
5.475,0.051969043308817596,81.10733409746567,0,90,3.0,4,0.07437802262815808
5.48,0.06760532616283861,83.4840347084959,0,90,3.0,4,0.12338215893805975
5.485,0.08636519236693461,86.89791075708786,0,90,3.0,4,0.19377135581624447
5.49,0.10834733138818661,91.47290531438892,0,90,3.0,4,0.28810114050286445
5.495,0.1334809643017884,97.16780461229023,0,90,3.0,4,0.40552174458330364
5.5,0.16148868344343945,103.70838557386074,0,90,3.0,4,0.5403790839971286
5.505,0.191860907532018,110.56339952140614,0,90,3.0,4,0.6817195777609514
5.51,0.22384764873847726,116.9905505634757,0,90,3.0,4,0.8142381559479525
5.515,0.25647215537198226,122.1585552525796,0,90,3.0,4,0.9207949536614352
5.52,0.2885689161419028,125.32204653102696,0,90,3.0,4,0.9860215779593187
5.525,0.31884566517832524,126.0,0,90,3.0,4,1.0
5.53,0.3459657668955683,124.09929318952061,0,90,3.0,4,0.960810168856095
5.535,0.3686441789190902,119.94001348411793,0,90,3.0,4,0.8750518244148026
5.54,0.3857476379544367,114.17337664266108,0,90,3.0,4,0.7561520957249708
5.545,0.3963882865005728,107.62152108345802,0,90,3.0,4,0.6210622903805777
5.55,0.4,101.0936464742221,0,90,3.0,4,0.4864669376128268
5.555,0.39638828650057273,95.23476363020654,0,90,3.0,4,0.3656652294887947
5.56,0.38574763795443656,90.4435854989949,0,90,3.0,4,0.2668780515256682
5.565,0.36864417891908974,86.86645009682657,0,90,3.0,4,0.19312268240879524
5.57,0.345965766895568,84.44866361769579,0,90,3.0,4,0.14327141479785124
5.575,0.3188456651783249,83.01238886958782,0,90,3.0,4,0.11365750246572832
5.58,0.28856891614190205,82.33219786893802,0,90,3.0,4,0.09963294575129947
5.585,0.2564721553719815,82.19037236159303,0,90,3.0,4,0.09670870848645433
5.59,0.22384764873847685,82.4067713597822,0,90,3.0,4,0.10117054350066387
5.595,0.19186090753201765,82.84733349045737,0,90,3.0,4,0.11025429877231697
5.6,0.16148868344343878,83.41925731830845,0,90,3.0,4,0.12204654264553512
5.605,0.1334809643017881,84.06060249564256,0,90,3.0,4,0.13527015454933106
5.61,0.10834733138818531,84.7296112585338,0,90,3.0,4,0.14906414966049059
5.615,0.08636519236690572,85.39633568541677,0,90,3.0,4,0.16281104506013966
5.62,0.06760532616242629,86.03717687645855,0,90,3.0,4,0.17602426549399064
5.625,0.05196904332202373,86.63190565549688,0,90,3.0,4,0.18828671454632742
5.63,0.03923107185803287,87.16241124326619,0,90,3.0,4,0.19922497408796272
5.635,0.02908287038705761,87.61248306715446,0,90,3.0,4,0.20850480550833933
5.64,0.02117220077308346,87.96811794886472,0,90,3.0,4,0.21583748348174672
5.645,0.0151361834125735,88.21802622801505,0,90,3.0,4,0.22099023150546493
5.65,0.010626454858290009,88.35414161770949,0,90,3.0,4,0.2237967343857626
5.655,0.007326255555493652,88.37202232834514,0,90,3.0,4,0.22416540883185854
5.66,0.004960179211183015,88.27108106749418,0,90,3.0,4,0.22208414572152949
5.665,0.0032978759379303545,88.05461363524023,0,90,3.0,4,0.21762089969567486
5.67,0.002153242296767213,87.7296191903864,0,90,3.0,4,0.21091998330693612
5.675,0.001380616732225004,87.30642415743608,0,90,3.0,4,0.20219431252445533
5.68,0.0008693106590991584,86.79813742453794,0,90,3.0,4,0.19171417370181323
5.685,0.000537524815942247,86.21997675578243,0,90,3.0,4,0.17979333517077167
5.69,0.0003263951340288585,85.58851459767371,0,90,3.0,4,0.16677349685925172
5.695,0.00019463030985187395,84.92089522273513,0,90,3.0,4,0.15300814892237374
5.7,0.00011397219555062695,84.2340743273611,0,90,3.0,4,0.13884689334765155
5.705,6.55403863487943e-05,83.54412713946391,0,90,3.0,4,0.1246211781332765
5.71,3.701184389455385e-05,82.86566255613282,0,90,3.0,4,0.11063221765222306
5.715,2.0525516217290957e-05,82.2113698868779,0,90,3.0,4,0.09714164715212173
5.72,1.1178128483661116e-05,81.59171264922182,0,90,3.0,4,0.08436520926230553
5.725,5.978135409912517e-06,81.0147717845139,0,90,3.0,4,0.07246952133018345
5.73,3.1396702713238487e-06,80.48622973646444,0,90,3.0,4,0.06157174714359665
5.735,1.6192875458531019e-06,80.00947792665202,0,90,3.0,4,0.0517418129206603
5.74,8.201353897972012e-07,79.58582382558662,0,90,3.0,4,0.04300667681621888
5.745,4.0791415086824765e-07,79.21477027933115,0,90,3.0,4,0.03535608823363192
5.75,1.9923866938774793e-07,78.89433892375651,0,90,3.0,4,0.02874925615992798
5.755,9.556527981051257e-08,78.62141105818226,0,90,3.0,4,0.02312187748829404
5.76,4.501406988770349e-08,78.39206273455854,0,90,3.0,4,0.018393046073371874
5.765,0.0,78.20187543065295,0,90,3.0,4,0.014471658363978296
5.77,0.0,78.04620888776554,0,90,3.0,4,0.01126203892300092
5.775,0.0,77.9204279351801,0,90,3.0,4,0.00866861722020826
5.78,0.0,77.82007993256983,0,90,3.0,4,0.0065995862385531045
5.785,0.0,77.74102351106553,0,90,3.0,4,0.004969556929186289
5.79,0.0,77.67951239873214,0,90,3.0,4,0.003701286571796767
5.795,0.0,77.63224022257143,0,90,3.0,4,0.0027266025272458896
5.8,0.0,77.59635333975864,0,90,3.0,4,0.0019866667991471345
5.805,0.0,77.56943909521827,0,90,3.0,4,0.0014317339220262168
5.81,0.0,77.54949660528963,0,90,3.0,4,0.0010205485626728467
5.815,0.0,77.53489641831816,0,90,3.0,4,0.000719513779755774
5.82,0.0,77.52433438497737,0,90,3.0,4,0.0005017398964405191
5.825,0.0,77.51678394216378,0,90,3.0,4,0.0003460606631707969
5.83,0.0,77.51144989895161,0,90,3.0,4,0.0002360803907548608
5.835,0.0,77.50772579914724,0,90,3.0,4,0.00015929482777810147
5.84,0.0,77.50515607531464,0,90,3.0,4,0.00010631083122978725
5.845,0.0,77.50340352677404,0,90,3.0,4,7.017580977394714e-05
5.85,0.0,77.50222214896947,0,90,3.0,4,4.581750452506846e-05
5.855,0.0,77.50143499784357,0,90,3.0,4,2.9587584403599846e-05
5.86,0.0,77.50091656528996,0,90,3.0,4,1.8898253401142864e-05
5.865,0.0,77.50057904143834,0,90,3.0,4,1.1938998728714274e-05
5.87,0.0,77.50036181782804,0,90,3.0,4,7.460161402809014e-06
5.875,0.0,77.50022361676467,0,90,3.0,4,4.610654941678749e-06
5.88,0.0,77.50013669506535,0,90,3.0,4,2.818454955680882e-06
5.885,0.0,77.50008264857955,0,90,3.0,4,1.7040944237109704e-06
5.89,0.0,77.50004942560916,0,90,3.0,4,1.0190847250055179e-06
5.895,0.0,77.50002923497637,0,90,3.0,4,6.027830178735121e-07
5.9,0.0,77.50001710360048,0,90,3.0,4,3.5265155637829334e-07
5.905,0.0,77.50000989706493,0,90,3.0,4,2.0406319438350074e-07
5.91,0.0,77.50000566447123,0,90,3.0,4,1.1679322127063117e-07
5.915,0.001684486749771458,77.50000320661198,0,90,3.0,4,6.611571089922212e-08
5.92,0.004172395771277602,77.50000179542606,0,90,3.0,4,3.7019093989544774e-08
5.925,0.009438687428818865,77.50000099431209,0,90,3.0,4,2.0501280178652132e-08
5.93,0.019500507867137046,77.50000054464309,0,90,3.0,4,1.1229754354363397e-08
5.935,0.03679496976339974,77.50000029507699,0,90,3.0,4,6.084061584429552e-09
5.94,0.06340728953298436,77.50000015812218,0,90,3.0,4,3.2602510656811926e-09
5.945,0.09979255396093453,77.50000008380778,0,90,3.0,4,1.727995396256879e-09
5.95,0.14343835518453557,77.50000004393492,0,90,3.0,4,9.058745964119732e-10
5.955,0.18829581417209276,77.50000002278082,0,90,3.0,4,4.697077183101503e-10
5.96,0.2257481735193119,77.50000001168324,0,90,3.0,4,2.408915678614969e-10
5.965,0.24718154073554727,77.5000000059264,0,90,3.0,4,1.221937190607183e-10
5.97,0.24718154074102772,77.5000000029734,0,90,3.0,4,6.130709227795003e-11
5.975,0.22574817354072055,77.50000000147553,0,90,3.0,4,3.0423242390394625e-11
5.98,0.18829581422840957,77.50000000072423,0,90,3.0,4,1.4932531728883294e-11
5.985,0.14343835532456656,77.50000000035159,0,90,3.0,4,7.249293948635315e-12
5.99,0.09979255431561854,77.50000000016882,0,90,3.0,4,3.4809268869402023e-12
5.995,0.06340729067170194,77.50000000008018,0,90,3.0,4,1.6531472639828805e-12
6.0,0.03679497683410042,77.50000000003766,0,90,3.0,4,7.764693813460888e-13
6.005,0.019500578284482293,77.5000000000175,0,90,3.0,4,3.606920031837869e-13
6.01,0.009439396781978427,77.50000000000804,0,90,3.0,4,1.6584213956297595e-13
6.015,0.004178588733610924,77.50000000000365,0,90,3.0,4,7.530287962488484e-14
6.02,0.0017299316936037381,77.50000000000165,0,90,3.0,4,3.3988848390998606e-14
6.025,0.0008997325756988589,77.50000000000072,0,90,3.0,5,1.4943372999490767e-14
6.03,0.001634769674224814,77.50000000000033,0,90,3.0,5,6.73916821545662e-15
6.035,0.00614904736476635,77.50000000000014,0,90,3.0,5,2.930073137155052e-15
6.04,0.02168080359963608,77.50000000000006,0,90,3.0,5,1.172029254862021e-15
6.045,0.06433400338904088,77.50000000000003,0,90,3.0,5,5.860146274310105e-16
6.05,0.1593410769217493,77.50000000000001,0,90,3.0,5,2.9300731371550523e-16
6.055,0.3291989194808569,77.5,0,90,3.0,5,0.0
6.06,0.5672906802982638,77.5,0,90,3.0,5,0.0
6.065,0.815339152120446,77.5,0,90,3.0,5,0.0
6.07,0.9768711246313155,77.5000028551147,1,90,3.0,5,5.8868344352696425e-08
6.075,0.9726380909165361,77.50000509675978,0,90,3.0,5,1.0508783048797191e-07
6.08,0.7921091683291741,77.50000951136758,0,90,3.0,5,1.961106717476703e-07
6.085,0.49139090102639077,77.50001903897957,0,90,3.0,5,3.9255627986264145e-07
6.09,0.15739335672107918,77.50004154149926,0,90,3.0,5,8.565257578843603e-07
6.095,-0.11102342218909485,77.50009820262278,0,90,3.0,5,2.024796345984814e-06
6.1,-0.2314207883647528,77.5002450493498,0,90,3.0,5,5.0525639134081864e-06
6.105,-0.2029124434754801,77.50062532647016,0,90,3.0,5,1.2893329281587753e-05
6.11,-0.11151350554305876,77.50159006558083,0,90,3.0,5,3.278485733666148e-05
6.115,-0.039430666652076896,77.50395976386687,0,90,3.0,5,8.164461581183092e-05
6.12,-0.006087703519843621,77.509558029154,0,90,3.0,5,0.00019707276606171494
6.125,0.005350271385530551,77.52223006700713,0,90,3.0,5,0.0004583518970542093
6.13,0.010381647827441833,77.54965236886618,0,90,3.0,5,0.001023760182807768
6.135,0.015115203303506243,77.60630411554565,0,90,3.0,5,0.0021918374339310216
6.14,0.021170964062928475,77.71792412237131,0,90,3.0,5,0.004493280873635358
6.145,0.029082821134029553,77.92749908235004,0,90,3.0,5,0.008814414069072966
6.15,0.03923107061708144,78.30219445411461,0,90,3.0,5,0.016540091837414693
6.155,0.051969043308817596,78.9396010556152,0,90,3.0,5,0.029682495992065964
6.16,0.06760532616283861,79.97037813308847,0,90,3.0,5,0.05093563161007163
6.165,0.08636519236693461,81.55328051691828,0,90,3.0,5,0.08357279416326346
6.17,0.10834733138818661,83.85841525262556,0,90,3.0,5,0.13110134541496005
6.175,0.1334809643017884,87.03621626592275,0,90,3.0,5,0.19662301579222158
6.18,0.16148868344343945,91.17352049317606,0,90,3.0,5,0.2819282575912589
6.185,0.191860907532018,96.24382795723774,0,90,3.0,5,0.3864706795306751
6.19,0.22384764873847726,102.06464559783686,0,90,3.0,5,0.506487538099729
6.195,0.25647215537198226,108.27808647577884,0,90,3.0,5,0.6345997211500791
6.2,0.2885689161419028,114.36898440675728,0,90,3.0,5,0.7601852455001501
6.205,0.31884566517832524,119.726540843299,0,90,3.0,5,0.8706503266659589
6.21,0.3459657668955683,123.74247552860498,0,90,3.0,5,0.953453103682577
6.215,0.3686441789190902,125.92507722305399,0,90,3.0,5,0.99845520047534
6.22,0.3857476379544367,126.0,0,90,3.0,5,1.0
6.225,0.3963882865005728,123.96944364845882,0,90,3.0,5,0.9581328587311098
6.23,0.4,120.11225240741231,0,90,3.0,5,0.8786031424208725
6.235,0.39638828650057273,114.92489118114372,0,90,3.0,5,0.7716472408483241
6.24,0.38574763795443656,109.02069777638775,0,90,3.0,5,0.6499112943585102
6.245,0.36864417891908974,103.0157423158548,0,90,3.0,5,0.5260977797083463
6.25,0.345965766895568,97.43046142826427,0,90,3.0,5,0.41093734903637663
6.255,0.3188456651783249,92.62771663477741,0,90,3.0,5,0.31191168319128687
6.26,0.28856891614190205,88.79436262350897,0,90,3.0,5,0.23287345615482422
6.265,0.2564721553719815,85.9603564630008,0,90,3.0,5,0.1744403394433156
6.27,0.22384764873847685,84.04117422451625,0,90,3.0,5,0.1348695716395104
6.275,0.19186090753201765,82.88736818594299,0,90,3.0,5,0.11107975641119566
6.28,0.16148868344343878,82.32835607123288,0,90,3.0,5,0.09955373342748196
6.285,0.1334809643017881,82.20334847453948,0,90,3.0,5,0.09697625720699962
6.29,0.10834733138818531,82.37802533117728,0,90,3.0,5,0.100577841879944
6.295,0.08636519236690572,82.74947601817391,0,90,3.0,5,0.10823661893142078
6.3,0.06760532616242629,83.24356815260268,0,90,3.0,5,0.11842408562067375
6.305,0.05196904332202373,83.8087710734139,0,90,3.0,5,0.1300777540910081
6.31,0.03923107185803287,84.40936541562792,0,90,3.0,5,0.14246114259026632
6.315,0.02908287038705761,85.01967300626876,0,90,3.0,5,0.15504480425296413
6.32,0.02117220077308346,85.61989625769553,0,90,3.0,5,0.1674205413957841
6.325,0.0151361834125735,86.1935145858505,0,90,3.0,5,0.1792477234195978
6.33,0.010626454858290009,86.72590057808648,0,90,3.0,5,0.19022475418735013
6.335,0.007326255555493652,87.20376630633332,0,90,3.0,5,0.20007765580068704
6.34,0.004960179211183015,87.61511013467465,0,90,3.0,5,0.20855897184896188
6.345,0.0032978759379303545,87.94942531867703,0,90,3.0,5,0.2154520684263305
6.35,0.002153242296767213,88.19801300303018,0,90,3.0,5,0.220577587691344
6.355,0.001380616732225004,88.3543013569685,0,90,3.0,5,0.22380002797873208
6.36,0.0008693106590991584,88.41411121591545,0,90,3.0,5,0.2250332209467104
6.365,0.000537524815942247,88.37583294666375,0,90,3.0,5,0.2242439782817268
6.37,0.0003263951340288585,88.24049522363691,0,90,3.0,5,0.22145350976570954
6.375,0.00019463030985187395,88.01171798894731,0,90,3.0,5,0.2167364533803569
6.38,0.00011397219555062695,87.69555119971342,0,90,3.0,5,0.21021755050955507
6.385,6.55403863487943e-05,87.3002088822698,0,90,3.0,5,0.2020661625210268
6.39,3.701184389455385e-05,86.8357146365197,0,90,3.0,5,0.19248896157772571
6.395,2.0525516217290957e-05,86.31347988015781,0,90,3.0,5,0.18172123464242915
6.4,1.1178128483661116e-05,85.74583955071263,0,90,3.0,5,0.17001731032397177
6.405,5.978135409912517e-06,85.14557153020662,0,90,3.0,5,0.15764065010735306
6.41,3.1396702713238487e-06,84.5254256988194,0,90,3.0,5,0.1448541381199877
6.415,1.6192875458531019e-06,83.89768639140668,0,90,3.0,5,0.13191105961663258
6.42,8.201353897972012e-07,83.27378839713461,0,90,3.0,5,0.11904718344607441
6.425,4.0791415086824765e-07,82.66400189107254,0,90,3.0,5,0.10647426579531019
6.43,1.9923866938774793e-07,82.0771962680399,0,90,3.0,5,0.0943751807843278
6.435,9.556527981051257e-08,81.5206872343762,0,90,3.0,5,0.08290076771909685
6.44,4.501406988770349e-08,81.00016614843322,0,90,3.0,5,0.07216837419449945
6.445,0.0,80.51970586708367,0,90,3.0,5,0.06226197664090046
6.45,0.0,80.08183354198295,0,90,3.0,5,0.05323368127799887
6.455,0.0,79.68765809484466,0,90,3.0,5,0.04510635247102401
6.46,0.0,79.33703855163972,0,90,3.0,5,0.037877083538963345
6.465,0.0,79.02877899242638,0,90,3.0,5,0.03152121633868829
6.47,0.0,78.76083644990005,0,90,3.0,5,0.025996627832990813
6.475,0.0,78.53052947528113,0,90,3.0,5,0.021248030418167585
6.48,0.0,78.33473705710682,0,90,3.0,5,0.01721107334240868
6.485,0.0,78.17007988803523,0,90,3.0,5,0.013816080165674894
6.49,0.0,78.03307840011358,0,90,3.0,5,0.010991307218836724
6.495,0.0,77.92028433344609,0,90,3.0,5,0.008665656359713213
6.5,0.0,77.82838471233613,0,90,3.0,5,0.006770818811054251
6.505,0.0,77.75427887027756,0,90,3.0,5,0.00524286330469195
6.51,0.0,77.69513053223781,0,90,3.0,5,0.004023309943047667
6.515,0.0,77.64839791473344,0,90,3.0,5,0.0030597508192461167
6.52,0.0,77.6118453623572,0,90,3.0,5,0.0023060899455092966
6.525,0.0,77.58354025118703,0,90,3.0,5,0.001722479405918172
6.53,0.0,77.56183881887893,0,90,3.0,5,0.001275027193379905
6.535,0.0,77.54536429944484,0,90,3.0,5,0.0009353463803060113
6.54,0.0,77.53298031842075,0,90,3.0,5,0.0006800065653763894
6.545,0.0,77.52376200558362,0,90,3.0,5,0.0004899382594560885
6.55,0.0,77.51696676154249,0,90,3.0,5,0.00034983013489672837
6.555,0.0,77.51200611315076,0,90,3.0,5,0.0002475487247579622
6.56,0.0,77.50841963997159,0,90,3.0,5,0.00017360082415653852
6.565,0.0,77.50585156756235,0,90,3.0,5,0.00012065087757413184
6.57,0.0,77.50403031081224,0,90,3.0,5,8.309919200495145e-05
6.575,0.0,77.50275101189904,0,90,3.0,5,5.672189482549218e-05
6.58,0.0,77.5018609470294,0,90,3.0,5,3.837004184328949e-05
6.585,0.0,77.50124756495694,0,90,3.0,5,2.5722988802907323e-05
6.59,0.0,77.50082885762389,0,90,3.0,5,1.708984791519273e-05
6.595,0.0,77.5005457381559,0,90,3.0,5,1.1252333111481666e-05
6.6,0.0,77.50035610355962,0,90,3.0,5,7.342341435564917e-06
6.605,0.0,77.50023027984271,0,90,3.0,5,4.74803799404034e-06
6.61,0.0,77.50014757851864,0,90,3.0,5,3.0428560543460313e-06
6.615,0.0,77.50009372986307,0,90,3.0,5,1.9325744962358285e-06
6.62,0.0,77.50005899570995,0,90,3.0,5,1.2164063907066427e-06
6.625,0.0,77.50003680022672,0,90,3.0,5,7.587675613133788e-07
6.63,0.0,77.50002274930694,0,90,3.0,5,4.690578749694996e-07
6.635,0.0,77.50001393713347,0,90,3.0,5,2.8736357678295914e-07
6.64,0.0,77.50000846187025,0,90,3.0,5,1.7447155157954972e-07
6.645,0.0,77.50000509151324,0,90,3.0,5,1.0497965453180665e-07
6.65,0.0,77.50000303609255,0,90,3.0,5,6.25998464062091e-08
6.655,0.0,77.50000179419958,0,90,3.0,5,3.6993805700327245e-08
6.66,0.0,77.50000105078558,0,90,3.0,5,2.1665682160130826e-08
6.665,0.001684486749771458,77.50000060988096,0,90,3.0,5,1.2574865080488361e-08
6.67,0.004172395771277602,77.50000035080329,0,90,3.0,5,7.233057534360398e-09
6.675,0.009438687428818865,77.5000001999723,0,90,3.0,5,4.123140317141847e-09
6.68,0.019500507867137046,77.50000011297014,0,90,3.0,5,2.3292812718714276e-09
6.685,0.03679496976339974,77.50000006324775,0,90,3.0,5,1.3040773958976192e-09
6.69,0.06340728953298436,77.50000003509248,0,90,3.0,5,7.235563625914606e-10
6.695,0.09979255396093453,77.50000001929615,0,90,3.0,5,3.978588088993439e-10
6.7,0.14343835518453557,77.50000001051514,0,90,3.0,5,2.168069526887098e-10
6.705,0.18829581417209276,77.50000000567867,0,90,3.0,5,1.1708601556802962e-10
6.71,0.2257481735193119,77.50000000303925,0,90,3.0,5,6.266488816970767e-11
6.715,0.24718154073554727,77.50000000161204,0,90,3.0,5,3.3237870645945765e-11
6.72,0.24718154074102772,77.50000000084736,0,90,3.0,5,1.7471440102228146e-11
6.725,0.22574817354072055,77.50000000044142,0,90,3.0,5,9.101393178631024e-12
6.73,0.18829581422840957,77.50000000022789,0,90,3.0,5,4.698665282741842e-12
6.735,0.14343835532456656,77.5000000001166,0,90,3.0,5,2.4041250090357205e-12
6.74,0.09979255431561854,77.50000000005912,0,90,3.0,5,1.2189104250565017e-12
6.745,0.06340729067170194,77.5000000000297,0,90,3.0,5,6.12385285665406e-13
6.75,0.03679497683410042,77.5000000000148,0,90,3.0,5,3.050206135778409e-13
6.755,0.019500578284482293,77.5000000000073,0,90,3.0,5,1.5060575924976968e-13
6.76,0.009439396781978427,77.50000000000357,0,90,3.0,5,7.354483574259182e-14
6.765,0.004178588733610924,77.50000000000173,0,90,3.0,5,3.574689227329164e-14
6.77,0.0017299316936037381,77.50000000000082,0,90,3.0,5,1.6994424195499303e-14
6.775,0.0008997325756988589,77.5000000000004,0,90,3.0,5,8.204204784034146e-15
6.78,0.001634769674224814,77.50000000000018,0,90,3.0,5,3.809095078301568e-15
6.785,0.00614904736476635,77.50000000000009,0,90,3.0,5,1.7580438822930315e-15
6.79,0.02168080359963608,77.50000000000004,0,90,3.0,5,8.790219411465157e-16
6.795,0.06433400338904088,77.50000000000001,0,90,3.0,5,2.9300731371550523e-16
6.8,0.1593410769217493,77.50000000000001,0,90,3.0,5,2.9300731371550523e-16
6.805,0.3291989194808569,77.5,0,90,3.0,5,0.0
6.81,0.5672906802982638,77.5,0,90,3.0,5,0.0
6.815,0.815339152120446,77.5,0,90,3.0,5,0.0
6.82,0.9768711246313155,77.50000284517176,1,90,3.0,5,5.866333533949447e-08
6.825,0.9726380909165361,77.50000599086852,0,90,3.0,5,1.235230621842703e-07
6.83,0.7921091683291741,77.50001371504612,0,90,3.0,5,2.827844561401547e-07
6.835,0.49139090102639077,77.50003575767096,0,90,3.0,5,7.372715661347815e-07
6.84,0.15739335672107918,77.50010645385059,0,90,3.0,5,2.1949247544637626e-06
6.845,-0.11102342218909485,77.50034420257653,0,90,3.0,5,7.096960340785952e-06
6.85,-0.2314207883647528,77.50113535267691,0,90,3.0,5,2.3409333544563685e-05
6.855,-0.2029124434754801,77.5036539979212,0,90,3.0,5,7.534016332381715e-05
6.86,-0.11151350554305876,77.51119612985639,0,90,3.0,5,0.0002308480382760198
6.865,-0.039430666652076896,77.5322660631709,0,90,3.0,5,0.0006652796530081278
6.87,-0.006087703519843621,77.58694783499028,0,90,3.0,5,0.0017927388657790406
6.875,0.005350271385530551,77.71846037182966,0,90,3.0,5,0.004504337563498232
6.88,0.010381647827441833,78.01106364117669,0,90,3.0,5,0.010537394663436917
6.885,0.015115203303506243,78.61237735668999,0,90,3.0,5,0.022935615601855464
6.89,0.021170964062928475,79.75184586570822,0,90,3.0,5,0.046429811664086995
6.895,0.029082821134029553,81.73882007738028,0,90,3.0,5,0.08739835211093365
6.9,0.03923107061708144,84.91860303871091,0,90,3.0,5,0.15296088739610128
6.905,0.051969043308817596,89.57102603363346,0,90,3.0,5,0.24888713471409193
6.91,0.06760532616283861,95.75995516646122,0,90,3.0,5,0.3764939209579634
6.915,0.08636519236693461,103.17959546791647,0,90,3.0,5,0.5294761952147726
6.92,0.10834733138818661,111.07529572488261,0,90,3.0,5,0.6922741386573733
6.925,0.1334809643017884,118.31491599029209,0,90,3.0,5,0.8415446595936514
6.93,0.16148868344343945,123.6350965286457,0,90,3.0,5,0.9512391036834166
6.935,0.191860907532018,126.0,0,90,3.0,5,1.0
6.94,0.22384764873847726,124.93569714392498,0,90,3.0,5,0.9780556112149481
6.945,0.25647215537198226,120.69324675494863,0,90,3.0,5,0.8905824073185284
6.95,0.2885689161419028,114.16448719602343,0,90,3.0,5,0.7559688081654315
6.955,0.31884566517832524,106.58997952724316,0,90,3.0,5,0.599793392314292
6.96,0.3459657668955683,99.19070521703549,0,90,3.0,5,0.4472310354027935
6.965,0.3686441789190902,92.87269437123547,0,90,3.0,5,0.31696277054093747
6.97,0.3857476379544367,88.09593320330579,0,90,3.0,5,0.21847284955269672
6.975,0.3963882865005728,84.90996574510642,0,90,3.0,5,0.15278279886817359
6.98,0.4,83.09173789306756,0,90,3.0,5,0.1152935648055167
6.985,0.39638828650057273,82.30358025723456,0,90,3.0,5,0.09904289190174345
6.99,0.38574763795443656,82.21299299338393,0,90,3.0,5,0.09717511326564815
6.995,0.36864417891908974,82.55434514980914,0,90,3.0,5,0.10421330205792036
7.0,0.345965766895568,83.14213323761874,0,90,3.0,5,0.11633264407461312
7.005,0.3188456651783249,83.85713499989839,0,90,3.0,5,0.13107494845151324
7.01,0.28856891614190205,84.62445237318394,0,90,3.0,5,0.14689592522028747
7.015,0.2564721553719815,85.39442165237334,0,90,3.0,5,0.16277158046130596
7.02,0.22384764873847685,86.13005760319332,0,90,3.0,5,0.17793933202460457
7.025,0.19186090753201765,86.80051488700863,0,90,3.0,5,0.19176319354656973
7.03,0.16148868344343878,87.37864083674023,0,90,3.0,5,0.20368331622144809
7.035,0.1334809643017881,87.84078957026018,0,90,3.0,5,0.21321215608783886
7.04,0.10834733138818531,88.16763091157353,0,90,3.0,5,0.21995115281594896
7.045,0.08636519236690572,88.34520608502723,0,90,3.0,5,0.22361249659849958
7.05,0.06760532616242629,88.3658232744403,0,90,3.0,5,0.22403759328742892
7.055,0.05196904332202373,88.22858236069101,0,90,3.0,5,0.22120788372558778
7.06,0.03923107185803287,87.93943245316206,0,90,3.0,5,0.21524602996210424
7.065,0.02908287038705761,87.5107422335758,0,90,3.0,5,0.20640705636238757
7.07,0.02117220077308346,86.96042199889514,0,90,3.0,5,0.19506024739989986
7.075,0.0151361834125735,86.31068307456295,0,90,3.0,5,0.18166356854768959
7.08,0.010626454858290009,85.58655398140446,0,90,3.0,5,0.16673307178153535
7.085,0.007326255555493652,84.81429109138962,0,90,3.0,5,0.15081012559566226
7.09,0.004960179211183015,84.01982337083714,0,90,3.0,5,0.13442934785231225
7.095,0.0032978759379303545,83.22735707724202,0,90,3.0,5,0.11808983664416534
7.1,0.002153242296767213,82.45823983750614,0,90,3.0,5,0.10223174922693075
7.105,0.001380616732225004,81.73014876001216,0,90,3.0,5,0.0872195620621063
7.11,0.0008693106590991584,81.05662920318574,0,90,3.0,5,0.07333256089042754
7.115,0.000537524815942247,80.44697451294529,0,90,3.0,5,0.06076236109165544
7.12,0.0003263951340288585,79.90640659695114,0,90,3.0,5,0.049616630864972026
7.125,0.00019463030985187395,79.43649544175723,0,90,3.0,5,0.03992774106715939
7.13,0.00011397219555062695,79.03574386308755,0,90,3.0,5,0.03166482191933085
7.135,6.55403863487943e-05,78.70026167185499,0,90,3.0,5,0.024747663337216265
7.14,3.701184389455385e-05,78.42445957982034,0,90,3.0,5,0.01906102226433683
7.145,2.0525516217290957e-05,78.20170529949084,0,90,3.0,5,0.014468150504965768
7.15,1.1178128483661116e-05,78.02489982213942,0,90,3.0,5,0.010822676745142628
7.155,5.978135409912517e-06,77.88694829258561,0,90,3.0,5,0.007978315311043602
7.16,3.1396702713238487e-06,77.78111517083715,0,90,3.0,5,0.005796189089425855
7.165,1.6192875458531019e-06,77.70126602646864,0,90,3.0,5,0.004149814978734939
7.17,8.201353897972012e-07,77.64200757176874,0,90,3.0,5,0.0029279911704895648
7.175,4.0791415086824765e-07,77.5987432392567,0,90,3.0,5,0.0020359430774578515
7.18,1.9923866938774793e-07,77.56766406402257,0,90,3.0,5,0.0013951353406714566
7.185,9.556527981051257e-08,77.54569446819863,0,90,3.0,5,0.0009421539834769665
7.19,4.501406988770349e-08,77.53041053186217,0,90,3.0,5,0.0006270212755087358
7.195,0.0,77.51994523897304,0,90,3.0,5,0.00041124204068117103
7.2,0.0,77.51289167393386,0,90,3.0,5,0.00026580770997659635
7.205,0.0,77.50821172166673,0,90,3.0,5,0.00016931384879846764
7.21,0.0,77.50515482550728,0,90,3.0,5,0.00010628506200569016
7.215,0.0,77.50318895621916,0,90,3.0,5,6.575167462190236e-05
7.22,0.0,77.5019441867763,0,90,3.0,5,4.008632528452086e-05
7.225,0.0,77.50116810599482,0,90,3.0,5,2.4084659687044213e-05
7.23,0.0,77.50069164200418,0,90,3.0,6,1.4260659880096917e-05
7.235,0.0,77.50040358527119,0,90,3.0,6,8.321345797660975e-06
7.24,0.0,77.50023208340949,0,90,3.0,6,4.785224937855561e-06
7.245,0.0,77.50013152482224,0,90,3.0,6,2.7118520048841993e-06
7.25,0.0,77.50007345581658,0,90,3.0,6,1.5145529190933827e-06
7.255,0.001684486749771458,77.50004042960501,0,90,3.0,6,8.33600103254229e-07
7.26,0.004172395771277602,77.50002192944527,0,90,3.0,6,4.521535106739731e-07
7.265,0.009438687428818865,77.50001172224064,0,90,3.0,6,2.41695683361914e-07
7.27,0.019500507867137046,77.50000617516349,0,90,3.0,6,1.2732295859096508e-07
7.275,0.03679496976339974,77.50000320583472,0,90,3.0,6,6.609968486419845e-08
7.28,0.06340728953298436,77.50000164016913,0,90,3.0,6,3.3817920230484156e-08
7.285,0.09979255396093453,77.50000082697234,0,90,3.0,6,1.7050976072082964e-08
7.29,0.14343835518453557,77.50000041091138,0,90,3.0,6,8.472399652409596e-09
7.295,0.18829581417209276,77.50000020121493,0,90,3.0,6,4.148761462667758e-09
7.3,0.2257481735193119,77.50000009710175,0,90,3.0,6,2.00209787809146e-09
7.305,0.24718154073554727,77.50000004617945,0,90,3.0,6,9.521536365767686e-10
7.31,0.24718154074102772,77.50000002164339,0,90,3.0,6,4.4625541292036135e-10
7.315,0.22574817354072055,77.5000000099967,0,90,3.0,6,2.0611745986974073e-10
7.32,0.18829581422840957,77.50000000455033,0,90,3.0,6,9.382123485901849e-11
7.325,0.14343835532456656,77.50000000204119,0,90,3.0,6,4.208639851284031e-11
7.33,0.09979255431561854,77.50000000090236,0,90,3.0,6,1.860537840630715e-11
7.335,0.06340729067170194,77.50000000039313,0,90,3.0,6,8.105754326625737e-12
7.34,0.03679497683410042,77.50000000016878,0,90,3.0,6,3.4800478649990555e-12
7.345,0.019500578284482293,77.50000000007141,0,90,3.0,6,1.4723617514204137e-12
7.35,0.009439396781978427,77.50000000002977,0,90,3.0,6,6.138503222339835e-13
7.355,0.004178588733610924,77.50000000001224,0,90,3.0,6,2.5227929710905e-13
7.36,0.0017299316936037381,77.50000000000496,0,90,3.0,6,1.0225955248671133e-13
7.365,0.0008997325756988589,77.50000000000198,0,90,3.0,6,4.072801660645523e-14
7.37,0.001634769674224814,77.50000000000078,0,90,3.0,6,1.6115402254352787e-14
7.375,0.00614904736476635,77.5000000000003,0,90,3.0,6,6.15315358802561e-15
7.38,0.02168080359963608,77.50000000000011,0,90,3.0,6,2.344058509724042e-15
7.385,0.06433400338904088,77.50000000000004,0,90,3.0,6,8.790219411465157e-16
7.39,0.1593410769217493,77.50000000000001,0,90,3.0,6,2.9300731371550523e-16
7.395,0.3291989194808569,77.5,0,90,3.0,6,0.0
7.4,0.5672906802982638,77.5,0,90,3.0,6,0.0
7.405,0.815339152120446,77.5,0,90,3.0,6,0.0
7.41,0.9768711246313155,77.50000285825222,1,90,3.0,6,5.8933035386440475e-08
7.415,0.9726380909165361,77.50000594036287,0,90,3.0,6,1.224817086241864e-07
7.42,0.7921091683291741,77.50001337402189,0,90,3.0,6,2.757530286586545e-07
7.425,0.49139090102639077,77.50003411114669,0,90,3.0,6,7.033226121545818e-07
7.43,0.15739335672107918,77.50009905101307,0,90,3.0,6,2.0422889292017928e-06
7.435,-0.11102342218909485,77.50031282604864,0,90,3.0,6,6.450021621485013e-06
7.44,-0.2314207883647528,77.50101180394222,0,90,3.0,6,2.0861936952980576e-05
7.445,-0.2029124434754801,77.50320628067372,0,90,3.0,6,6.610887987057675e-05
7.45,-0.11151350554305876,77.5097083342598,0,90,3.0,6,0.0002001718404082131
7.455,-0.039430666652076896,77.52773550414375,0,90,3.0,6,0.0005718660648195631
7.46,-0.006087703519843621,77.57430149812981,0,90,3.0,6,0.0015319896521610954
7.465,0.005350271385530551,77.68608776188607,0,90,3.0,6,0.0038368610698159018
7.47,0.010381647827441833,77.93505151613147,0,90,3.0,6,0.008970134353226106
7.475,0.015115203303506243,78.44869900131016,0,90,3.0,6,0.019560804150724958
7.48,0.021170964062928475,79.42886553050614,0,90,3.0,6,0.03977042330940503
7.485,0.029082821134029553,81.15564224728983,0,90,3.0,6,0.07537406695442955
7.49,0.03923107061708144,83.95743100629066,0,90,3.0,6,0.1331429073461992
7.495,0.051969043308817596,88.13067751083202,0,90,3.0,6,0.21918922702746424
7.5,0.06760532616283861,93.80996484958598,0,90,3.0,6,0.3362879350430099
7.505,0.08636519236693461,100.82021919530587,0,90,3.0,6,0.48082926175888385
7.51,0.10834733138818661,108.5746424352862,0,90,3.0,6,0.6407142770162102
7.515,0.1334809643017884,116.09149675272828,0,90,3.0,6,0.7957009639737789
7.52,0.16148868344343945,122.1708699381281,0,90,3.0,6,0.9210488647036723
7.525,0.191860907532018,125.70242168485359,0,90,3.0,6,0.9938643646361565
7.53,0.22384764873847726,126.0,0,90,3.0,6,1.0
7.535,0.25647215537198226,123.02595539656775,0,90,3.0,6,0.9386794927127372
7.54,0.2885689161419028,117.40540703112458,0,90,3.0,6,0.8227918975489604
7.545,0.31884566517832524,110.22390458902505,0,90,3.0,6,0.6747196822479392
7.55,0.3459657668955683,102.6988702200439,0,90,3.0,6,0.5195643344338948
7.555,0.3686441789190902,95.86131478539745,0,90,3.0,6,0.3785838100081949
7.56,0.3857476379544367,90.35920588711383,0,90,3.0,6,0.2651382657136872
7.565,0.3963882865005728,86.42147190082585,0,90,3.0,6,0.18394787424383197
7.57,0.4,83.94856219402728,0,90,3.0,6,0.13296004523767577
7.575,0.39638828650057273,82.65797428518042,0,90,3.0,6,0.10634998526145187
7.58,0.38574763795443656,82.2182852697095,0,90,3.0,6,0.09728423236514427
7.585,0.36864417891908974,82.33567972165656,0,90,3.0,6,0.09970473652900126
7.59,0.345965766895568,82.78912793599538,0,90,3.0,6,0.10905418424732745
7.595,0.3188456651783249,83.42948059532878,0,90,3.0,6,0.12225733186244914
7.6,0.28856891614190205,84.16183548499009,0,90,3.0,6,0.13735743268020809
7.605,0.2564721553719815,84.9254687356599,0,90,3.0,6,0.1531024481579362
7.61,0.22384764873847685,85.67831436291021,0,90,3.0,6,0.16862503841051987
7.615,0.19186090753201765,86.38751009403914,0,90,3.0,6,0.18324763080493078
7.62,0.16148868344343878,87.02485660821559,0,90,3.0,6,0.19638879604568218
7.625,0.1334809643017881,87.56539713454409,0,90,3.0,6,0.20753396153699144
7.63,0.10834733138818531,87.98762906708204,0,90,3.0,6,0.2162397745790111
7.635,0.08636519236690572,88.2743731604016,0,90,3.0,6,0.22215202392580607
7.64,0.06760532616242629,88.41373774873865,0,90,3.0,6,0.22502552059254957
7.645,0.05196904332202373,88.39987340594568,0,90,3.0,6,0.2247396578545502
7.65,0.03923107185803287,88.23336128795665,0,90,3.0,6,0.22130641830838463
7.655,0.02908287038705761,87.9211675222714,0,90,3.0,6,0.21486943344889492
7.66,0.02117220077308346,87.4761584369445,0,90,3.0,6,0.2056939883906083
7.665,0.0151361834125735,86.91622069331245,0,90,3.0,6,0.19414888027448357
7.67,0.010626454858290009,86.26306937829109,0,90,3.0,6,0.18068184285136274
7.675,0.007326255555493652,85.54085446501574,0,90,3.0,6,0.16579081371166476
7.68,0.004960179211183015,84.77468987273289,0,90,3.0,6,0.14999360562335862
7.685,0.0032978759379303545,83.98922893361755,0,90,3.0,6,0.133798534713764
7.69,0.002153242296767213,83.20739642000936,0,90,3.0,6,0.11767827670122391
7.695,0.001380616732225004,82.44936304617364,0,90,3.0,6,0.10204872260151844
7.7,0.0008693106590991584,81.73181734819437,0,90,3.0,6,0.08725396594215193
7.705,0.000537524815942247,81.06755640391896,0,90,3.0,6,0.073557863998329
7.71,0.0003263951340288585,80.46538517467127,0,90,3.0,6,0.06114196236435606
7.715,0.00019463030985187395,79.93028779670026,0,90,3.0,6,0.05010902673608775
7.72,0.00011397219555062695,79.46381526096127,0,90,3.0,6,0.04049103630847977
7.725,6.55403863487943e-05,79.06462363170958,0,90,3.0,6,0.032260281066176906
7.73,3.701184389455385e-05,78.72909505266246,0,90,3.0,6,0.025342166034277493
7.735,2.0525516217290957e-05,78.45197903888902,0,90,3.0,6,0.019628433791526217
7.74,1.1178128483661116e-05,78.22700204374355,0,90,3.0,6,0.014989732860691822
7.745,5.978135409912517e-06,78.04740682497273,0,90,3.0,6,0.01128673865923145
7.75,3.1396702713238487e-06,77.90639758097078,0,90,3.0,6,0.008379331566407744
7.755,1.6192875458531019e-06,77.79748039597577,0,90,3.0,6,0.006133616411871504
7.76,8.201353897972012e-07,77.71469993745711,0,90,3.0,6,0.004426802834167265
7.765,4.0791415086824765e-07,77.6527818678595,0,90,3.0,6,0.003150141605350568
7.77,1.9923866938774793e-07,77.60719586742373,0,90,3.0,6,0.0022102240705923
7.775,9.556527981051257e-08,77.5741567351036,0,90,3.0,6,0.0015290048474969002
7.78,4.501406988770349e-08,77.5505812420148,0,90,3.0,6,0.0010429122064907301
7.785,0.0,77.534016898,0,90,3.0,6,0.0007013793402062764
7.79,0.0,77.5225562166196,0,90,3.0,6,0.0004650766313320744
7.795,0.0,77.5147470154736,0,90,3.0,6,0.0003040621747134575
7.8,0.0,77.50950623060861,0,90,3.0,6,0.00019600475481665525
7.805,0.0,77.50604197446326,0,90,3.0,6,0.00012457679305687155
7.81,0.0,77.50378630640013,0,90,3.0,6,7.806817319855673e-05
7.815,0.0,77.50233947794905,0,90,3.0,6,4.8236658743303216e-05
7.82,0.0,77.50142524158959,0,90,3.0,6,2.9386424527562676e-05
7.825,0.0,77.50085609970625,0,90,3.0,6,1.765154033514544e-05
7.83,0.0,77.50050702169113,0,90,3.0,6,1.045405548731801e-05
7.835,0.0,77.50029607044829,0,90,3.0,6,6.104545325483413e-06
7.84,0.0,77.500170462916,0,90,3.0,6,3.5146992990327638e-06
7.845,0.0,77.50009676785085,0,90,3.0,6,1.9952134195624316e-06
7.85,0.0,77.50005416248834,0,90,3.0,6,1.1167523369004277e-06
7.855,0.001684486749771458,77.50002989044987,0,90,3.0,6,6.162979353885208e-07
7.86,0.004172395771277602,77.50001626419696,0,90,3.0,6,3.353442671774134e-07
7.865,0.009438687428818865,77.50000872567692,0,90,3.0,6,1.7991086434149204e-07
7.87,0.019500507867137046,77.50000461564036,0,90,3.0,6,9.516784255950923e-08
7.875,0.03679496976339974,77.50000240730505,0,90,3.0,6,4.963515560533422e-08
7.88,0.06340728953298436,77.50000123793151,0,90,3.0,6,2.5524361108088584e-08
7.885,0.09979255396093453,77.50000062766577,0,90,3.0,6,1.2941562268566748e-08
7.89,0.14343835518453557,77.50000031378097,0,90,3.0,6,6.469710778566371e-09
7.895,0.18829581417209276,77.50000015466466,0,90,3.0,6,3.1889620932468966e-09
7.9,0.2257481735193119,77.50000007516608,0,90,3.0,6,1.5498161837499115e-09
7.905,0.24718154073554727,77.50000003601795,0,90,3.0,6,7.426381708898692e-10
7.91,0.24718154074102772,77.50000001701699,0,90,3.0,6,3.5086570991102377e-10
7.915,0.22574817354072055,77.50000000792706,0,90,3.0,6,1.6344446071484199e-10
7.92,0.18829581422840957,77.50000000364089,0,90,3.0,6,7.506993881048102e-11
7.925,0.14343835532456656,77.50000000164881,0,90,3.0,6,3.399617357384149e-11
7.93,0.09979255431561854,77.50000000073621,0,90,3.0,6,1.5179536894345465e-11
7.935,0.06340729067170194,77.5000000003241,0,90,3.0,6,6.682617803909528e-12
7.94,0.03679497683410042,77.50000000014069,0,90,3.0,6,2.900772405783502e-12
7.945,0.019500578284482293,77.50000000006021,0,90,3.0,6,1.2414719882125956e-12
7.95,0.009439396781978427,77.50000000002541,0,90,3.0,6,5.238970769233233e-13
7.955,0.004178588733610924,77.50000000001057,0,90,3.0,6,2.179974414043359e-13
7.96,0.0017299316936037381,77.50000000000433,0,90,3.0,6,8.936723068322909e-14
7.965,0.0008997325756988589,77.50000000000175,0,90,3.0,6,3.603989958700714e-14
7.97,0.001634769674224814,77.5000000000007,0,90,3.0,6,1.4357358372059756e-14
7.975,0.00614904736476635,77.50000000000027,0,90,3.0,6,5.567138960594599e-15
7.98,0.02168080359963608,77.5000000000001,0,90,3.0,6,2.0510511960085364e-15
7.985,0.06433400338904088,77.50000000000004,0,90,3.0,6,8.790219411465157e-16
7.99,0.1593410769217493,77.50000000000001,0,90,3.0,6,2.9300731371550523e-16
7.995,0.3291989194808569,77.5,0,90,3.0,6,0.0
8.0,0.5672906802982638,77.5,0,90,3.0,6,0.0
8.005,0.815339152120446,77.5,0,90,3.0,6,0.0
8.01,0.9768711246313155,77.50000284159387,1,90,3.0,6,5.8589564302105686e-08
8.015,0.9726380909165361,77.50000524787401,0,90,3.0,6,1.0820358792696744e-07
8.02,0.7921091683291741,77.50001020135224,0,90,3.0,6,2.1033715957508826e-07
8.025,0.49139090102639077,77.50002150542502,0,90,3.0,6,4.434108252529974e-07
8.03,0.15739335672107918,77.50004994250548,0,90,3.0,6,1.029742381114815e-06
8.035,-0.11102342218909485,77.50012616702794,0,90,3.0,6,2.6013820194499933e-06
8.04,-0.2314207883647528,77.50033515612391,0,90,3.0,6,6.91043554453601e-06
8.045,-0.2029124434754801,77.50090303081406,0,90,3.0,6,1.8619192042434434e-05
8.05,-0.11151350554305876,77.50240249680841,0,90,3.0,6,4.953601666834777e-05
8.055,-0.039430666652076896,77.50620751786776,0,90,3.0,6,0.0001279900591291654
8.06,-0.006087703519843621,77.5154305665507,0,90,3.0,6,0.0003181560113547483
8.065,0.005350271385530551,77.53671277936931,0,90,3.0,6,0.0007569645230785578
8.07,0.010381647827441833,77.58336925368212,0,90,3.0,6,0.0017189536841674593
8.075,0.015115203303506243,77.68041720673176,0,90,3.0,6,0.0037199424068404302
8.08,0.021170964062928475,77.87175652575355,0,90,3.0,6,0.0076650830052279175
8.085,0.029082821134029553,78.22901047082749,0,90,3.0,6,0.015031143728401848
8.09,0.03923107061708144,78.86012402198301,0,90,3.0,6,0.028043794267690964
8.095,0.051969043308817596,79.91389549240841,0,90,3.0,6,0.049771041080585866
8.1,0.06760532616283861,81.57482242680061,0,90,3.0,6,0.0840169572536208
8.105,0.08636519236693461,84.0421715252154,0,90,3.0,6,0.1348901345405236
8.11,0.10834733138818661,87.48945991030922,0,90,3.0,6,0.20596824557338603
8.115,0.1334809643017884,92.00641812482755,0,90,3.0,6,0.2991014046356195
8.12,0.16148868344343945,97.53425909127935,0,90,3.0,6,0.41307750703668766
8.125,0.191860907532018,103.81376504638375,0,90,3.0,6,0.5425518566264691
8.13,0.22384764873847726,110.36973877181947,0,90,3.0,6,0.6777265726148345
8.135,0.25647215537198226,116.55051103954558,0,90,3.0,6,0.8051651760731048
8.14,0.2885689161419028,121.62632944907975,0,90,3.0,6,0.9098212257542216
8.145,0.31884566517832524,124.92946092995325,0,90,3.0,6,0.9779270294835722
8.15,0.3459657668955683,126.0,0,90,3.0,6,1.0
8.155,0.3686441789190902,124.6938252063791,0,90,3.0,6,0.9730685609562701
8.16,0.3857476379544367,121.217996840846,0,90,3.0,6,0.9014019967184742
8.165,0.3963882865005728,116.0818526852693,0,90,3.0,6,0.7955021172220473
8.17,0.4,109.9799438267282,0,90,3.0,6,0.6696895634376949
8.175,0.39638828650057273,103.64408632484154,0,90,3.0,6,0.5390533262853925
8.18,0.38574763795443656,97.70790999607995,0,90,3.0,6,0.4166579380635041
8.185,0.36864417891908974,92.61737317677957,0,90,3.0,6,0.3116984160160735
8.19,0.345965766895568,88.60086034957897,0,90,3.0,6,0.22888371854801992
8.195,0.3188456651783249,85.69201554683798,0,90,3.0,6,0.16890753704820574
8.2,0.28856891614190205,83.78511991060593,0,90,3.0,6,0.12959010124960677
8.205,0.2564721553719815,82.69962175115714,0,90,3.0,6,0.10720869590014719
8.21,0.22384764873847685,82.23556131460678,0,90,3.0,6,0.09764043947642853
8.215,0.19186090753201765,82.2106215981608,0,90,3.0,6,0.09712621851877935
8.22,0.16148868344343878,82.47796263165895,0,90,3.0,6,0.10263840477647328
8.225,0.1334809643017881,82.92928438636176,0,90,3.0,6,0.11194400796622181
8.23,0.10834733138818531,83.48930152774871,0,90,3.0,6,0.1234907531494579
8.235,0.08636519236690572,84.10702158041188,0,90,3.0,6,0.13622724908065736
8.24,0.06760532616242629,84.74732780110544,0,90,3.0,6,0.14942943919805035
8.245,0.05196904332202373,85.38449416816793,0,90,3.0,6,0.16256689006531821
8.25,0.03923107185803287,85.99794855016432,0,90,3.0,6,0.1752154340240067
8.255,0.02908287038705761,86.56992629687204,0,90,3.0,6,0.18700878962622763
8.26,0.02117220077308346,87.08445158300941,0,90,3.0,6,0.19761755841256518
8.265,0.0151361834125735,87.52713026604603,0,90,3.0,6,0.2067449539390934
8.27,0.010626454858290009,87.88537120331262,0,90,3.0,6,0.21413136501675498
8.275,0.007326255555493652,88.1487839356451,0,90,3.0,6,0.21956255537412575
8.28,0.004960179211183015,88.30959800302992,0,90,3.0,6,0.22287830934082306
8.285,0.0032978759379303545,88.36301228718621,0,90,3.0,6,0.2239796347873445
8.29,0.002153242296767213,88.30742168835918,0,90,3.0,6,0.22283343687338525
8.295,0.001380616732225004,88.14449333257545,0,90,3.0,6,0.2194740893314526
8.3,0.0008693106590991584,87.8790822595265,0,90,3.0,6,0.2140016960727113
8.305,0.000537524815942247,87.51899071950872,0,90,3.0,6,0.20657712823729324
8.31,0.0003263951340288585,87.0745871119695,0,90,3.0,6,0.19741416725710323
8.315,0.00019463030985187395,86.55831033385357,0,90,3.0,6,0.18676928523409422
8.32,0.00011397219555062695,85.98409251928744,0,90,3.0,6,0.17492974266572048
8.325,6.55403863487943e-05,85.36673745743582,0,90,3.0,6,0.1622007723182643
8.33,3.701184389455385e-05,84.72129317056762,0,90,3.0,6,0.14889264269211588
8.335,2.0525516217290957e-05,84.06245528666152,0,90,3.0,6,0.13530835642601066
8.34,1.1178128483661116e-05,83.40403329311125,0,90,3.0,6,0.12173264521878875
8.345,5.978135409912517e-06,82.75850508583088,0,90,3.0,6,0.10842278527486343
8.35,3.1396702713238487e-06,82.13667716646533,0,90,3.0,6,0.09560159106114088
8.355,1.6192875458531019e-06,81.54745919615713,0,90,3.0,6,0.08345276693107495
8.36,8.201353897972012e-07,80.99775317592832,0,90,3.0,6,0.07211862218408915
8.365,4.0791415086824765e-07,80.49244998191267,0,90,3.0,6,0.06169999962706538
8.37,1.9923866938774793e-07,80.03451987045568,0,90,3.0,6,0.05225814165888004
8.375,9.556527981051257e-08,79.62517922034833,0,90,3.0,6,0.043818128254604724
8.38,4.501406988770349e-08,79.26411332828589,0,90,3.0,6,0.036373470686306954
8.385,0.0,78.9497344579457,0,90,3.0,6,0.02989143212259165
8.39,0.0,78.67945534241619,0,90,3.0,6,0.024318666853942073
8.395,0.0,78.44996061991971,0,90,3.0,6,0.01958681690556098
8.4,0.0,78.2574618470744,0,90,3.0,6,0.015617770042771045
8.405,0.0,78.0979253726538,0,90,3.0,6,0.01232835819904752
8.41,0.0,77.96726608808848,0,90,3.0,6,0.009634352331721219
8.415,0.0,77.86150358080003,0,90,3.0,6,0.007453682078351193
8.42,0.0,77.77688026614771,0,90,3.0,6,0.005708871466963173
8.425,0.0,77.70994351493611,0,90,3.0,6,0.004328732266724004
8.43,0.0,77.65759556235399,0,90,3.0,6,0.0032493930382265926
8.435,0.0,77.61711608993805,0,90,3.0,7,0.0024147647409907425
8.44,0.0,77.58616287958085,0,90,3.0,7,0.0017765542181619428
8.445,0.0,77.56275594951525,0,90,3.0,7,0.0012939371034072094
8.45,0.0,77.54525021688922,0,90,3.0,7,0.0009329941626642323
8.455,0.0,77.53230111287208,0,90,3.0,7,0.000666002327259309
8.46,0.0,77.52282681744146,0,90,3.0,7,0.0004706560297207259
8.465,0.0,77.5159699775533,0,90,3.0,7,0.0003292778876968474
8.47,0.0,77.51106099779811,0,90,3.0,7,0.00022806181027033642
8.475,0.0,77.50758429760151,0,90,3.0,7,0.00015637727013424795
8.48,0.0,77.50514834315162,0,90,3.0,7,0.00010615140518798961
8.485,0.0,77.50345979738647,0,90,3.0,7,7.133602858699334e-05
8.49,0.0,77.50230178579928,0,90,3.0,7,4.745950101599042e-05
8.495,0.0,77.5015160384165,0,90,3.0,7,3.1258524051487987e-05
8.5,0.0,77.50098852251757,0,90,3.0,7,2.0381907578837984e-05
8.505,0.0,77.50063810770203,0,90,3.0,7,1.3156859835685891e-05
8.51,0.0,77.50040778614562,0,90,3.0,7,8.407961765264303e-06
8.515,0.0,77.50025798948569,0,90,3.0,7,5.3193708389553834e-06
8.52,0.0,77.50016158558198,0,90,3.0,7,3.3316614840798852e-06
8.525,0.0,77.50010019228165,0,90,3.0,7,2.06582024020463e-06
8.53,0.0,77.50006150309721,0,90,3.0,7,1.2681050971999884e-06
8.535,0.0,77.50003737582321,0,90,3.0,7,7.706355301341262e-07
8.54,0.0,77.50002248617606,0,90,3.0,7,4.63632496170361e-07
8.545,0.0,77.50001339280381,0,90,3.0,7,2.761402847048997e-07
8.55,0.0,77.50000789693324,0,90,3.0,7,1.6282336578677638e-07
8.555,0.0,77.50000460974059,0,90,3.0,7,9.50461976431471e-08
8.56,0.0,77.50000266394692,0,90,3.0,7,5.49267405258621e-08
8.565,0.001684486749771458,77.50000152407277,0,90,3.0,7,3.1424180865683086e-08
8.57,0.004172395771277602,77.50000086321089,0,90,3.0,7,1.779816259550364e-08
8.575,0.009438687428818865,77.50000048401539,0,90,3.0,7,9.979698716895505e-09
8.58,0.019500507867137046,77.50000026867824,0,90,3.0,7,5.539757427127885e-09
8.585,0.03679496976339974,77.50000014765116,0,90,3.0,7,3.0443539007015697e-09
8.59,0.06340728953298436,77.50000008032899,0,90,3.0,7,1.6562677918739506e-09
8.595,0.09979255396093453,77.5000000432652,0,90,3.0,7,8.920660407385026e-10
8.6,0.14343835518453557,77.5000000230694,0,90,3.0,7,4.756578178297711e-10
8.605,0.18829581417209276,77.5000000121777,0,90,3.0,7,2.510864643349142e-10
8.61,0.2257481735193119,77.50000000636392,0,90,3.0,7,1.3121482823539128e-10
8.615,0.24718154073554727,77.50000000329243,0,90,3.0,7,6.788510647086312e-11
8.62,0.24718154074102772,77.5000000016863,0,90,3.0,7,3.4769126867423e-11
8.625,0.22574817354072055,77.50000000085505,0,90,3.0,7,1.7629957058948234e-11
8.63,0.18829581422840957,77.50000000042921,0,90,3.0,7,8.849699896149405e-12
8.635,0.14343835532456656,77.5000000002133,0,90,3.0,7,4.3980397788697334e-12
8.64,0.09979255431561854,77.50000000010493,0,90,3.0,7,2.1635660044752906e-12
8.645,0.06340729067170194,77.50000000005112,0,90,3.0,7,1.0539473074346723e-12
8.65,0.03679497683410042,77.50000000002464,0,90,3.0,7,5.080746819826861e-13
8.655,0.019500578284482293,77.50000000001177,0,90,3.0,7,2.4261005575643833e-13
8.66,0.009439396781978427,77.50000000000556,0,90,3.0,7,1.1456585966276254e-13
