Time,ECG,Pressure,R_Peaks,mean_hr,hrv_scale,Phase_Bin,Normalized_Pressure
0.0,0.001684486749771458,77.5,0,90,3.0,0,0.0
0.005,0.004172395771277602,77.5,0,90,3.0,0,0.0
0.01,0.009438687428818865,77.5,0,90,3.0,0,0.0
0.015,0.019500507867137046,77.5,0,90,3.0,0,0.0
0.02,0.03679496976339974,77.5,0,90,3.0,0,0.0
0.025,0.06340728953298436,77.5,0,90,3.0,0,0.0
0.03,0.09979255396093453,77.5,0,90,3.0,0,0.0
0.035,0.14343835518453557,77.5,0,90,3.0,0,0.0
0.04,0.18829581417209276,77.5,0,90,3.0,0,0.0
0.045,0.2257481735193119,77.5,0,90,3.0,0,0.0
0.05,0.24718154073554727,77.5,0,90,3.0,0,0.0
0.055,0.24718154074102772,77.5,0,90,3.0,0,0.0
0.06,0.22574817354072055,77.5,0,90,3.0,0,0.0
0.065,0.18829581422840957,77.5,0,90,3.0,0,0.0
0.07,0.14343835532456656,77.5,0,90,3.0,0,0.0
0.075,0.09979255431561854,77.5,0,90,3.0,0,0.0
0.08,0.06340729067170194,77.5,0,90,3.0,0,0.0
0.085,0.03679497683410042,77.5,0,90,3.0,0,0.0
0.09,0.019500578284482293,77.5,0,90,3.0,0,0.0
0.095,0.009439396781978427,77.5,0,90,3.0,0,0.0
0.1,0.004178588733610924,77.5,0,90,3.0,0,0.0
0.105,0.0017299316936037381,77.5,0,90,3.0,0,0.0
0.11,0.0008997325756988589,77.5,0,90,3.0,0,0.0
0.115,0.001634769674224814,77.5,0,90,3.0,0,0.0
0.12,0.00614904736476635,77.5,0,90,3.0,0,0.0
0.125,0.02168080359963608,77.5,0,90,3.0,0,0.0
0.13,0.06433400338904088,77.5,0,90,3.0,0,0.0
0.135,0.1593410769217493,77.5,0,90,3.0,0,0.0
0.14,0.3291989194808569,77.5,0,90,3.0,0,0.0
0.145,0.5672906802982638,77.5,0,90,3.0,0,0.0
0.15,0.815339152120446,77.5,0,90,3.0,0,0.0
0.155,0.9768711246313155,77.5,0,90,3.0,0,0.0
0.16,0.9726380909165361,77.5,0,90,3.0,0,0.0
0.165,0.7921091683291741,77.5,0,90,3.0,0,0.0
0.17,0.49139090102639077,77.5,0,90,3.0,0,0.0
0.175,0.15739335672107918,77.5,0,90,3.0,0,0.0
0.18,-0.11102342218909485,77.5,0,90,3.0,0,0.0
0.185,-0.2314207883647528,77.5,0,90,3.0,0,0.0
0.19,-0.2029124434754801,77.5,0,90,3.0,0,0.0
0.195,-0.11151350554305876,77.5,0,90,3.0,0,0.0
0.2,-0.039430666652076896,77.5,0,90,3.0,0,0.0
0.205,-0.006087703519843621,77.5,0,90,3.0,0,0.0
0.21,0.005350271385530551,77.5,0,90,3.0,0,0.0
0.215,0.010381647827441833,77.5,0,90,3.0,0,0.0
0.22,0.015115203303506243,77.5,0,90,3.0,0,0.0
0.225,0.021170964062928475,77.5,0,90,3.0,0,0.0
0.23,0.029082821134029553,77.5,0,90,3.0,0,0.0
0.235,0.03923107061708144,77.5,0,90,3.0,0,0.0
0.24,0.051969043308817596,77.5,0,90,3.0,0,0.0
0.245,0.06760532616283861,77.5,0,90,3.0,0,0.0
0.25,0.08636519236693461,77.5,0,90,3.0,0,0.0
0.255,0.10834733138818661,77.5,0,90,3.0,0,0.0
0.26,0.1334809643017884,77.5,0,90,3.0,0,0.0
0.265,0.16148868344343945,77.5,0,90,3.0,0,0.0
0.27,0.191860907532018,77.5,0,90,3.0,0,0.0
0.275,0.22384764873847726,77.5,0,90,3.0,0,0.0
0.28,0.25647215537198226,77.5,0,90,3.0,0,0.0
0.285,0.2885689161419028,77.5,0,90,3.0,0,0.0
0.29,0.31884566517832524,77.5,0,90,3.0,0,0.0
0.295,0.3459657668955683,77.5,0,90,3.0,0,0.0
0.3,0.3686441789190902,77.5,0,90,3.0,0,0.0
0.305,0.3857476379544367,77.5,0,90,3.0,0,0.0
0.31,0.3963882865005728,77.5,0,90,3.0,0,0.0
0.315,0.4,77.5,0,90,3.0,0,0.0
0.32,0.39638828650057273,77.5,0,90,3.0,0,0.0
0.325,0.38574763795443656,77.5,0,90,3.0,0,0.0
0.33,0.36864417891908974,77.5,0,90,3.0,0,0.0
0.335,0.345965766895568,77.5,0,90,3.0,0,0.0
0.34,0.3188456651783249,77.5,0,90,3.0,0,0.0
0.345,0.28856891614190205,77.5,0,90,3.0,0,0.0
0.35,0.2564721553719815,77.5,0,90,3.0,0,0.0
0.355,0.22384764873847685,77.5,0,90,3.0,0,0.0
0.36,0.19186090753201765,77.5,0,90,3.0,0,0.0
0.365,0.16148868344343878,77.5,0,90,3.0,0,0.0
0.37,0.1334809643017881,77.5,0,90,3.0,0,0.0
0.375,0.10834733138818531,77.5,0,90,3.0,0,0.0
0.38,0.08636519236690572,77.5,0,90,3.0,0,0.0
0.385,0.06760532616242629,77.5,0,90,3.0,0,0.0
0.39,0.05196904332202373,77.5,0,90,3.0,0,0.0
0.395,0.03923107185803287,77.5,0,90,3.0,0,0.0
0.4,0.02908287038705761,77.5,0,90,3.0,0,0.0
0.405,0.02117220077308346,77.5,0,90,3.0,0,0.0
0.41,0.0151361834125735,77.5,0,90,3.0,0,0.0
0.415,0.010626454858290009,77.5,0,90,3.0,0,0.0
0.42,0.007326255555493652,77.5,0,90,3.0,0,0.0
0.425,0.004960179211183015,77.5,0,90,3.0,0,0.0
0.43,0.0032978759379303545,77.5,0,90,3.0,0,0.0
0.435,0.002153242296767213,77.5,0,90,3.0,0,0.0
0.44,0.001380616732225004,77.5,0,90,3.0,0,0.0
0.445,0.0008693106590991584,77.5,0,90,3.0,0,0.0
0.45,0.000537524815942247,77.5,0,90,3.0,0,0.0
0.455,0.0003263951340288585,77.5,0,90,3.0,0,0.0
0.46,0.00019463030985187395,77.5,0,90,3.0,0,0.0
0.465,0.00011397219555062695,77.5,0,90,3.0,0,0.0
0.47,6.55403863487943e-05,77.5,0,90,3.0,0,0.0
0.475,3.701184389455385e-05,77.5,0,90,3.0,0,0.0
0.48,2.0525516217290957e-05,77.5,0,90,3.0,0,0.0
0.485,1.1178128483661116e-05,77.5,0,90,3.0,0,0.0
0.49,5.978135409912517e-06,77.5,0,90,3.0,0,0.0
0.495,3.1396702713238487e-06,77.5,0,90,3.0,0,0.0
0.5,1.6192875458531019e-06,77.5,0,90,3.0,0,0.0
0.505,8.201353897972012e-07,77.5,0,90,3.0,0,0.0
0.51,4.0791415086824765e-07,77.5,0,90,3.0,0,0.0
0.515,1.9923866938774793e-07,77.5,0,90,3.0,0,0.0
0.52,9.556527981051257e-08,77.5,0,90,3.0,0,0.0
0.525,4.501406988770349e-08,77.5,0,90,3.0,0,0.0
0.53,0.0,77.5,0,90,3.0,0,0.0
0.535,0.0,77.5,0,90,3.0,0,0.0
0.54,0.0,77.5,0,90,3.0,0,0.0
0.545,0.0,77.5,0,90,3.0,0,0.0
0.55,0.0,77.5,0,90,3.0,0,0.0
0.555,0.0,77.5,0,90,3.0,0,0.0
0.56,0.0,77.5,0,90,3.0,0,0.0
0.565,0.0,77.5,0,90,3.0,0,0.0
0.57,0.0,77.5,0,90,3.0,0,0.0
0.575,0.0,77.5,0,90,3.0,0,0.0
0.58,0.0,77.5,0,90,3.0,0,0.0
0.585,0.0,77.5,0,90,3.0,0,0.0
0.59,0.0,77.5,0,90,3.0,0,0.0
0.595,0.0,77.5,0,90,3.0,0,0.0
0.6,0.0,77.5,0,90,3.0,0,0.0
0.605,0.0,77.5,0,90,3.0,0,0.0
0.61,0.0,77.5,0,90,3.0,0,0.0
0.615,0.0,77.5,0,90,3.0,0,0.0
0.62,0.0,77.5,0,90,3.0,0,0.0
0.625,0.0,77.5,0,90,3.0,0,0.0
0.63,0.0,77.5,0,90,3.0,0,0.0
0.635,0.0,77.5,0,90,3.0,0,0.0
0.64,0.0,77.5,0,90,3.0,0,0.0
0.645,0.0,77.5,0,90,3.0,0,0.0
0.65,0.0,77.5,0,90,3.0,0,0.0
0.655,0.0,77.5,0,90,3.0,0,0.0
0.66,0.0,77.5,0,90,3.0,0,0.0
0.665,0.0,77.5,0,90,3.0,0,0.0
0.67,0.0,77.5,0,90,3.0,0,0.0
0.675,0.0,77.5,0,90,3.0,0,0.0
0.68,0.0,77.5,0,90,3.0,0,0.0
0.685,0.0,77.5,0,90,3.0,0,0.0
0.69,0.0,77.5,0,90,3.0,0,0.0
0.695,0.0,77.5,0,90,3.0,0,0.0
0.7,0.0,77.5,0,90,3.0,0,0.0
0.705,0.0,77.5,0,90,3.0,0,0.0
0.71,0.0,77.5,0,90,3.0,0,0.0
0.715,0.0,77.5,0,90,3.0,0,0.0
0.72,0.0,77.5,0,90,3.0,0,0.0
0.725,0.0,77.5,0,90,3.0,0,0.0
0.73,0.001684486749771458,77.5,0,90,3.0,0,0.0
0.735,0.004172395771277602,77.5,0,90,3.0,0,0.0
0.74,0.009438687428818865,77.5,0,90,3.0,0,0.0
0.745,0.019500507867137046,77.5,0,90,3.0,0,0.0
0.75,0.03679496976339974,77.5,0,90,3.0,0,0.0
0.755,0.06340728953298436,77.5,0,90,3.0,0,0.0
0.76,0.09979255396093453,77.5,0,90,3.0,0,0.0
0.765,0.14343835518453557,77.5,0,90,3.0,0,0.0
0.77,0.18829581417209276,77.5,0,90,3.0,0,0.0
0.775,0.2257481735193119,77.5,0,90,3.0,0,0.0
0.78,0.24718154073554727,77.5,0,90,3.0,0,0.0
0.785,0.24718154074102772,77.5,0,90,3.0,0,0.0
0.79,0.22574817354072055,77.5,0,90,3.0,0,0.0
0.795,0.18829581422840957,77.5,0,90,3.0,0,0.0
0.8,0.14343835532456656,77.5,0,90,3.0,0,0.0
0.805,0.09979255431561854,77.5,0,90,3.0,0,0.0
0.81,0.06340729067170194,77.5,0,90,3.0,0,0.0
0.815,0.03679497683410042,77.5,0,90,3.0,0,0.0
0.82,0.019500578284482293,77.5,0,90,3.0,0,0.0
0.825,0.009439396781978427,77.5,0,90,3.0,0,0.0
0.83,0.004178588733610924,77.5,0,90,3.0,0,0.0
0.835,0.0017299316936037381,77.5,0,90,3.0,0,0.0
0.84,0.0008997325756988589,77.5,0,90,3.0,0,0.0
0.845,0.001634769674224814,77.5,0,90,3.0,0,0.0
0.85,0.00614904736476635,77.5,0,90,3.0,0,0.0
0.855,0.02168080359963608,77.5,0,90,3.0,0,0.0
0.86,0.06433400338904088,77.5,0,90,3.0,0,0.0
0.865,0.1593410769217493,77.5,0,90,3.0,0,0.0
0.87,0.3291989194808569,77.5,0,90,3.0,0,0.0
0.875,0.5672906802982638,77.5,0,90,3.0,0,0.0
0.88,0.815339152120446,77.5,0,90,3.0,0,0.0
0.885,0.9768711246313155,77.50000284170193,1,90,3.0,0,5.859179232971918e-08
0.89,0.9726380909165361,77.50000503285692,0,90,3.0,0,1.0377024574791932e-07
0.895,0.7921091683291741,77.50000930409628,0,90,3.0,0,1.9183703672105056e-07
0.9,0.49139090102639077,77.50001840464809,0,90,3.0,0,3.7947728016951796e-07
0.905,0.15739335672107918,77.50003958615409,0,90,3.0,0,8.162093626403297e-07
0.91,-0.11102342218909485,77.5000921414233,0,90,3.0,0,1.8998231607182197e-06
0.915,-0.2314207883647528,77.50022652678895,0,90,3.0,0,4.6706554422650425e-06
0.92,-0.2029124434754801,77.50057050667888,0,90,3.0,0,1.1763024306875786e-05
0.925,-0.11151350554305876,77.5014346633525,0,90,3.0,0,2.958068768037068e-05
0.93,-0.039430666652076896,77.5035402483488,0,90,3.0,0,7.299481131543328e-05
0.935,-0.006087703519843621,77.5084824168074,0,90,3.0,0,0.00017489519190508197
0.94,0.005350271385530551,77.51961353181807,0,90,3.0,0,0.00040440271789827993
0.945,0.010381647827441833,77.54361522582357,0,90,3.0,0,0.0008992830066715927
0.95,0.015115203303506243,77.59309207295647,0,90,3.0,0,0.0019194241846694053
0.955,0.021170964062928475,77.69049761660041,0,90,3.0,0,0.003927785909286813
0.96,0.029082821134029553,77.8734934172902,0,90,3.0,0,0.0077008952018599135
0.965,0.03923107061708144,78.20133133287578,0,90,3.0,0,0.014460439853108902
0.97,0.051969043308817596,78.76097869260391,0,90,3.0,0,0.02599956067224564
0.975,0.06760532616283861,79.67056732260144,0,90,3.0,0,0.044753965414462735
0.98,0.08636519236693461,81.07668200469112,0,90,3.0,0,0.07374602071528087
0.985,0.10834733138818661,83.14162477864075,0,90,3.0,0,0.1163221603843453
0.99,0.1334809643017884,86.01784071349742,0,90,3.0,0,0.1756255817215963
0.995,0.16148868344343945,89.80969422797408,0,90,3.0,0,0.25380812841183664
1.0,0.191860907532018,94.52758547167707,0,90,3.0,0,0.35108423652942417
1.005,0.22384764873847726,100.04479939843002,0,90,3.0,0,0.46484122470989725
1.01,0.25647215537198226,106.07132404484602,0,90,3.0,0,0.589099464842186
1.015,0.2885689161419028,112.15872126191934,0,90,3.0,0,0.7146128095241101
1.02,0.31884566517832524,117.74445800121651,0,90,3.0,0,0.8297826392003405
1.025,0.3459657668955683,122.23346230346327,0,90,3.0,0,0.922339428937387
1.03,0.3686441789190902,125.10210180274234,0,90,3.0,0,0.9814866351080894
1.035,0.3857476379544367,126.0,0,90,3.0,0,1.0
1.04,0.3963882865005728,124.82253010733184,0,90,3.0,0,0.9757222702542648
1.045,0.4,121.73341154269684,0,90,3.0,0,0.9120291039731308
1.05,0.39638828650057273,117.13081994280068,0,90,3.0,0,0.8171303080989832
1.055,0.38574763795443656,111.56683901662487,0,90,3.0,0,0.7024090518891726
1.06,0.36864417891908974,105.64288097089806,0,90,3.0,0,0.580265587028826
1.065,0.345965766895568,99.90843683080504,0,90,3.0,0,0.4620296253774236
1.07,0.3188456651783249,94.78620717559241,0,90,3.0,0,0.3564166427957198
1.075,0.28856891614190205,90.53591316349355,0,90,3.0,0,0.26878171471120715
1.08,0.2564721553719815,87.25656497713105,0,90,3.0,0,0.20116628818826904
1.085,0.22384764873847685,84.91716751525064,0,90,3.0,0,0.15293128897424
1.09,0.19186090753201765,83.40133290066056,0,90,3.0,0,0.12167696702392913
1.095,0.16148868344343878,82.55210677419915,0,90,3.0,0,0.10416714998348754
1.1,0.1334809643017881,82.20768344907756,0,90,3.0,0,0.09706563812531059
1.105,0.10834733138818531,82.22411640343044,0,90,3.0,0,0.0974044619264009
1.11,0.08636519236690572,82.48562548468695,0,90,3.0,0,0.10279640174612266
1.115,0.06760532616242629,82.90569019111014,0,90,3.0,0,0.11145752971361111
1.12,0.05196904332202373,83.42281838807591,0,90,3.0,0,0.12211996676445176
1.125,0.03923107185803287,83.99429823516142,0,90,3.0,0,0.1339030563950809
1.13,0.02908287038705761,84.59011548964331,0,90,3.0,0,0.14618794824006826
1.135,0.02117220077308346,85.18811147604099,0,90,3.0,0,0.15851776239259768
1.14,0.0151361834125735,85.77065412755941,0,90,3.0,0,0.1705289510836992
1.145,0.010626454858290009,86.32264810961959,0,90,3.0,0,0.1819102703014349
1.15,0.007326255555493652,86.830542901149,0,90,3.0,0,0.19238232785874232
1.155,0.004960179211183015,87.28199626292012,0,90,3.0,0,0.20169064459629107
1.16,0.0032978759379303545,87.66591973310685,0,90,3.0,0,0.20960659243519272
1.165,0.002153242296767213,87.97271414579524,0,90,3.0,0,0.21593225042876776
1.17,0.001380616732225004,88.19457042241281,0,90,3.0,0,0.2205066066476868
1.175,0.0008693106590991584,88.32575807551892,0,90,3.0,0,0.2232115067117303
1.18,0.000537524815942247,88.36285431258266,0,90,3.0,0,0.22397637757902383
1.185,0.0003263951340288585,88.30488598470359,0,90,3.0,0,0.22278115432378534
1.19,0.00019463030985187395,88.15336966408535,0,90,3.0,0,0.21965710647598652
1.195,0.00011397219555062695,87.91224489901583,0,90,3.0,0,0.21468546183537798
1.2,6.55403863487943e-05,87.58770372647423,0,90,3.0,0,0.20799389126750992
1.205,3.701184389455385e-05,87.18792637142545,0,90,3.0,1,0.19975105920464842
1.21,2.0525516217290957e-05,86.72273875212919,0,90,3.0,1,0.1901595618995709
1.215,1.1178128483661116e-05,86.20321175685625,0,90,3.0,1,0.17944766508981955
1.22,5.978135409912517e-06,85.64122505394732,0,90,3.0,1,0.16786031039066646
1.225,3.1396702713238487e-06,85.04901931930311,0,90,3.0,1,0.15564988287222914
1.23,1.6192875458531019e-06,84.4387602126974,0,90,3.0,1,0.14306722088035884
1.235,8.201353897972012e-07,83.82213533947811,0,90,3.0,1,0.1303533059686208
1.24,4.0791415086824765e-07,83.2100020492971,0,90,3.0,1,0.1177320010164351
1.245,1.9923866938774793e-07,82.61209959132367,0,90,3.0,1,0.10540411528502412
1.25,9.556527981051257e-08,82.03683426260197,0,90,3.0,1,0.09354297448663858
1.255,4.501406988770349e-08,81.49114116317358,0,90,3.0,1,0.08229157037471299
1.26,0.0,80.98042139400573,0,90,3.0,1,0.07176126585578826
1.265,0.0,80.50854933008819,0,90,3.0,1,0.06203194495027189
1.27,0.0,80.07794121862382,0,90,3.0,1,0.05315342718812001
1.275,0.0,79.68967394383145,0,90,3.0,1,0.04514791636765879
1.28,0.0,79.343641421038,0,90,3.0,1,0.038013225176041256
1.285,0.0,79.03873569877285,0,90,3.0,1,0.031726509253048533
1.29,0.0,78.7730403484588,0,90,3.0,1,0.026248254607398075
1.295,0.0,78.54402494176766,0,90,3.0,1,0.021526287459127005
1.3,0.0,78.34873115785241,0,90,3.0,1,0.017499611502111604
1.305,0.0,78.18394311820627,0,90,3.0,1,0.014101919963015928
1.31,0.0,78.04633671698512,0,90,3.0,1,0.011264674577012863
1.315,0.0,77.9326048255094,0,90,3.0,1,0.008919687123905172
1.32,0.0,77.83955716327065,0,90,3.0,1,0.007001178624137214
1.325,0.0,77.76419524710677,0,90,3.0,1,0.005447324682613807
1.33,0.0,77.70376409986814,0,90,3.0,1,0.004201321646765737
1.335,0.0,77.6557833026171,0,90,3.0,1,0.003212026858084441
1.34,0.0,77.61806052479223,0,90,3.0,1,0.002434237624582006
1.345,0.0,77.58869090336411,0,90,3.0,1,0.0018286784198785638
1.35,0.0,77.56604561884642,0,90,3.0,1,0.0013617653370395194
1.355,0.0,77.54875279463894,0,90,3.0,1,0.001005212260596772
1.36,0.0,77.53567348873486,0,90,3.0,1,0.0007355358502032573
1.365,0.0,77.52587511080905,0,90,3.0,1,0.0005335074393619296
1.37,0.0,77.51860413229706,0,90,3.0,1,0.0003835903566403445
1.375,0.0,77.51325950118392,0,90,3.0,1,0.0002733917769881293
1.38,0.0,77.50936775491698,0,90,3.0,1,0.00019314958591710763
1.385,0.0,77.50656046193507,0,90,3.0,1,0.00013526725639312456
1.39,0.0,77.50455432360889,0,90,3.0,1,9.390357956466144e-05
1.395,0.0,77.50313403555388,0,90,3.0,1,6.461928977081388e-05
1.4,0.0,77.50213783664955,0,90,3.0,1,4.4079106176341905e-05
1.405,0.0,77.50144555853898,0,90,3.0,1,2.98053307005244e-05
1.41,0.0,77.50096891887269,0,90,3.0,1,1.99777087151894e-05
1.415,0.0,77.50064376848633,0,90,3.0,1,1.3273577037674016e-05
1.42,0.0,77.50042399679897,0,90,3.0,1,8.742202040657129e-06
1.425,0.0,77.50027681269826,0,90,3.0,1,5.7074783146430326e-06
1.43,0.0,77.50017914306727,0,90,3.0,1,3.6936714901251614e-06
1.435,0.0,77.50011492236888,0,90,3.0,1,2.369533378966771e-06
1.44,0.0,77.50007308019532,0,90,3.0,1,1.5068081509492838e-06
1.445,0.0,77.50004606651895,0,90,3.0,1,9.498251329463079e-07
1.45,0.0,77.50002878469674,0,90,3.0,1,5.934989018179604e-07
1.455,0.0,77.50001782906168,0,90,3.0,1,3.6760951909095593e-07
1.46,0.0,77.50001094676722,0,90,3.0,1,2.2570654059610703e-07
1.465,0.0,77.50000666244819,0,90,3.0,1,1.3737006569143203e-07
1.47,0.0,77.50000401950314,0,90,3.0,1,8.287635334932723e-08
1.475,0.0,77.50000240381736,0,90,3.0,1,4.9563244578372907e-08
1.48,0.0,77.50000142502056,0,90,3.0,1,2.9381867147769542e-08
1.485,0.0,77.50000083739691,0,90,3.0,1,1.7265915689161365e-08
1.49,0.001684486749771458,77.50000048778917,0,90,3.0,1,1.0057508567096539e-08
1.495,0.004172395771277602,77.50000028165891,0,90,3.0,1,5.807400269724294e-09
1.5,0.009438687428818865,77.500000161215,0,90,3.0,1,3.324020591423608e-09
1.505,0.019500507867137046,77.50000009146984,0,90,3.0,1,1.8859761495928676e-09
1.51,0.03679496976339974,77.50000005144474,0,90,3.0,1,1.060716362396128e-09
1.515,0.06340728953298436,77.50000002868101,0,90,3.0,1,5.913611318843773e-10
1.52,0.09979255396093453,77.50000001585035,0,90,3.0,1,3.2681127449154937e-10
1.525,0.14343835518453557,77.50000000868307,0,90,3.0,1,1.7903244980450685e-10
1.53,0.18829581417209276,77.50000000471519,0,90,3.0,1,9.722041270543207e-11
1.535,0.2257481735193119,77.50000000253813,0,90,3.0,1,5.2332571266157815e-11
1.54,0.24718154073554727,77.50000000135432,0,90,3.0,1,2.792418301171508e-11
1.545,0.24718154074102772,77.50000000071634,0,90,3.0,1,1.4769912669771188e-11
1.55,0.22574817354072055,77.50000000037558,0,90,3.0,1,7.743890294187087e-12
1.555,0.18829581422840957,77.5000000001952,0,90,3.0,1,4.02474846119618e-12
1.56,0.14343835532456656,77.50000000010057,0,90,3.0,1,2.0736127591646305e-12
1.565,0.09979255431561854,77.50000000005136,0,90,3.0,1,1.058928431767836e-12
1.57,0.06340729067170194,77.50000000002599,0,90,3.0,1,5.359103767856591e-13
1.575,0.03679497683410042,77.50000000001305,0,90,3.0,1,2.689807139908338e-13
1.58,0.019500578284482293,77.5000000000065,0,90,3.0,1,1.339043423679859e-13
1.585,0.009439396781978427,77.5000000000032,0,90,3.0,1,6.592664558598868e-14
1.59,0.004178588733610924,77.50000000000156,0,90,3.0,1,3.2230804508705575e-14
1.595,0.0017299316936037381,77.50000000000075,0,90,3.0,1,1.5529387626921776e-14
1.6,0.0008997325756988589,77.50000000000037,0,90,3.0,1,7.618190156603136e-15
1.605,0.001634769674224814,77.50000000000017,0,90,3.0,1,3.516087764586063e-15
1.61,0.00614904736476635,77.50000000000009,0,90,3.0,1,1.7580438822930315e-15
1.615,0.02168080359963608,77.50000000000004,0,90,3.0,1,8.790219411465157e-16
1.62,0.06433400338904088,77.50000000000001,0,90,3.0,1,2.9300731371550523e-16
1.625,0.1593410769217493,77.50000000000001,0,90,3.0,1,2.9300731371550523e-16
1.63,0.3291989194808569,77.5,0,90,3.0,1,0.0
1.635,0.5672906802982638,77.5,0,90,3.0,1,0.0
1.64,0.815339152120446,77.5,0,90,3.0,1,0.0
1.645,0.9768711246313155,77.50000284586159,1,90,3.0,1,5.8677558500516847e-08
1.65,0.9726380909165361,77.50000554640805,0,90,3.0,1,1.1435892881458993e-07
1.655,0.7921091683291741,77.50001151682932,0,90,3.0,1,2.374603983045426e-07
1.66,0.49139090102639077,77.50002643002445,0,90,3.0,1,5.449489576934416e-07
1.665,0.15739335672107918,77.50006790101995,0,90,3.0,1,1.4000210298195504e-06
1.67,-0.11102342218909485,77.50019028911501,0,90,3.0,1,3.923486907442379e-06
1.675,-0.2314207883647528,77.50055528372543,0,90,3.0,1,1.1449148977995606e-05
1.68,-0.2029124434754801,77.5016191003873,0,90,3.0,1,3.338351314024416e-05
1.685,-0.11151350554305876,77.50459268016454,0,90,3.0,1,9.469443638216635e-05
1.69,-0.039430666652076896,77.51248521717368,0,90,3.0,1,0.00025742715822012853
1.695,-0.006087703519843621,77.53227388620262,0,90,3.0,1,0.0006654409526312796
1.7,0.005350271385530551,77.57900721106344,0,90,3.0,1,0.0016290146611018807
1.705,0.010381647827441833,77.68277725789753,0,90,3.0,1,0.003768603255619115
1.71,0.015115203303506243,77.89914273187748,0,90,3.0,1,0.008229747049020112
1.715,0.021170964062928475,78.32227751227126,0,90,3.0,1,0.01695417551074755
1.72,0.029082821134029553,79.09751100293126,0,90,3.0,1,0.03293837119445889
1.725,0.03923107061708144,80.42630442384339,0,90,3.0,1,0.06033617368749259
1.73,0.051969043308817596,82.55354337917821,0,90,3.0,1,0.10419677070470533
1.735,0.06760532616283861,85.72706210298368,0,90,3.0,1,0.16963014645327176
1.74,0.08636519236693461,90.12554414875623,0,90,3.0,1,0.26032049791249967
1.745,0.10834733138818661,95.76438236317041,0,90,3.0,1,0.3765852033643384
1.75,0.1334809643017884,102.40631247838554,0,90,3.0,1,0.5135322160491865
1.755,0.16148868344343945,109.51624731799802,0,90,3.0,1,0.6601288106803715
1.76,0.191860907532018,116.29749655462248,0,90,3.0,1,0.7999483825695357
1.765,0.22384764873847726,121.82388594751711,0,90,3.0,1,0.9138945556189095
1.77,0.25647215537198226,125.24436869130892,0,90,3.0,1,0.9844199730166788
1.775,0.2885689161419028,126.0,0,90,3.0,1,1.0
1.78,0.31884566517832524,123.97778706854874,0,90,3.0,1,0.9583048880113142
1.785,0.3459657668955683,119.54358950815404,0,90,3.0,1,0.8668781341887432
1.79,0.3686441789190902,113.44132554854066,0,90,3.0,1,0.7410582587327972
1.795,0.3857476379544367,106.59703250521925,0,90,3.0,1,0.599938814540603
1.8,0.3963882865005728,99.89899699454637,0,90,3.0,1,0.46183498957827557
1.805,0.4,94.02516929242782,0,90,3.0,1,0.3407251400500581
1.81,0.39638828650057273,89.3603322958374,0,90,3.0,1,0.24454293393479165
1.815,0.38574763795443656,86.00561321118767,0,90,3.0,1,0.1753734682719106
1.82,0.36864417891908974,83.85152120488316,0,90,3.0,1,0.13095920010068363
1.825,0.345965766895568,82.67378992307566,0,90,3.0,1,0.10667608088815793
1.83,0.3188456651783249,82.21795644486333,0,90,3.0,1,0.09727745247140893
1.835,0.28856891614190205,82.25491311032039,0,90,3.0,1,0.09803944557361624
1.84,0.2564721553719815,82.60568848479885,0,90,3.0,1,0.10527192752162572
1.845,0.22384764873847685,83.14350119463039,0,90,3.0,1,0.11636084937382245
1.85,0.19186090753201765,83.78381880877807,0,90,3.0,1,0.12956327440779516
1.855,0.16148868344343878,84.47111934410529,0,90,3.0,1,0.14373441946608845
1.86,0.1334809643017881,85.16736816282359,0,90,3.0,1,0.15809006521285757
1.865,0.10834733138818531,85.84401473859923,0,90,3.0,1,0.17204154100204594
1.87,0.08636519236690572,86.47738375513784,0,90,3.0,1,0.18510069598222342
1.875,0.06760532616242629,87.04656798666497,0,90,3.0,1,0.1968364533332983
1.88,0.05196904332202373,87.53286735530213,0,90,3.0,1,0.2068632444392192
1.885,0.03923107185803287,87.92003875076709,0,90,3.0,1,0.21484615980963073
1.89,0.02908287038705761,88.1948762403954,0,90,3.0,1,0.22051291217310107
1.895,0.02117220077308346,88.34783554716185,0,90,3.0,1,0.22366671231261545
1.9,0.0151361834125735,88.37354028569607,0,90,3.0,1,0.22419670692156837
1.905,0.010626454858290009,88.27108106749418,0,90,3.0,1,0.22208414572152949
1.91,0.007326255555493652,88.04406438191086,0,90,3.0,1,0.21740338931774963
1.915,0.004960179211183015,87.70040053904515,0,90,3.0,1,0.21031753688752883
1.92,0.0032978759379303545,87.25184573884796,0,90,3.0,1,0.20106898430614353
1.925,0.002153242296767213,86.71333452777212,0,90,3.0,1,0.18996566036643545
1.93,0.001380616732225004,86.10215528685912,0,90,3.0,1,0.17736402653317765
1.935,0.0008693106590991584,85.43703209507676,0,90,3.0,1,0.16365014629024247
1.94,0.000537524815942247,84.73718067857484,0,90,3.0,1,0.14922022017680092
1.945,0.0003263951340288585,84.02140412721407,0,90,3.0,1,0.1344619407673004
1.95,0.00019463030985187395,83.30728624532938,0,90,3.0,1,0.11973786072844081
1.955,0.00011397219555062695,82.61052800894745,0,90,3.0,1,0.10537171152468978
1.96,6.55403863487943e-05,81.94445724555983,0,90,3.0,1,0.09163829372288314
1.965,3.701184389455385e-05,81.31972513974611,0,90,3.0,1,0.07875721937620848
1.97,2.0525516217290957e-05,80.74418725350604,0,90,3.0,1,0.06689045883517611
1.975,1.1178128483661116e-05,80.22295293316265,0,90,3.0,1,0.056143359446652476
1.98,5.978135409912517e-06,79.75857634759942,0,90,3.0,1,0.046568584486585886
1.985,3.1396702713238487e-06,79.35135557138227,0,90,3.0,1,0.038172279822314865
1.99,1.6192875458531019e-06,78.9997032039245,0,90,3.0,1,0.030921715544834992
1.995,8.201353897972012e-07,78.70055267993662,0,90,3.0,1,0.02475366350384785
2.0,4.0791415086824765e-07,78.44976802421002,0,90,3.0,1,0.01958284586000033
2.005,1.9923866938774793e-07,78.24253048240675,0,90,3.0,1,0.015309906853747415
2.01,9.556527981051257e-08,78.07368229950097,0,90,3.0,1,0.011828501020638621
2.015,4.501406988770349e-08,77.93801505095327,0,90,3.0,1,0.009031238163984913
2.02,0.0,77.8304966317818,0,90,3.0,1,0.006814363541892754
2.025,0.0,77.74643674394598,0,90,3.0,1,0.005081169978267584
2.03,0.0,77.68159517563214,0,90,3.0,1,0.0037442304254049416
2.035,0.0,77.63224022257143,0,90,3.0,1,0.0027266025272458896
2.04,0.0,77.59516631581924,0,90,3.0,1,0.0019621920787472524
2.045,0.0,77.56768046943643,0,90,3.0,1,0.0013954735966273202
2.05,0.0,77.54756679479637,0,90,3.0,1,0.0009807586555951992
2.055,0.0,77.53303732186714,0,90,3.0,1,0.0006811818941678587
2.06,0.0,77.52267598708985,0,90,3.0,1,0.00046754612556401535
2.065,0.0,77.51538112097494,0,90,3.0,1,0.0003171365149471419
2.07,0.0,77.51031027372,0,90,3.0,1,0.00021258296329886004
2.075,0.0,77.50682987606086,0,90,3.0,1,0.00014082218682191167
2.08,0.0,77.50447111531227,0,90,3.0,1,9.218794458289717e-05
2.085,0.0,77.50289253977044,0,90,3.0,1,5.963999526685941e-05
2.09,0.0,77.50184928236199,0,90,3.0,1,3.812953323686604e-05
2.095,0.0,77.50116838920664,0,90,3.0,1,2.4090499105981152e-05
2.1,0.0,77.50072951170684,0,90,3.0,1,1.5041478491477542e-05
2.105,0.0,77.50045012943687,0,90,3.0,1,9.281019316924508e-06
2.11,0.0,77.50027447512092,0,90,3.0,1,5.659280843666547e-06
2.115,0.0,77.50016539751311,0,90,3.0,1,3.4102580023678343e-06
2.12,0.0,77.50009849527245,0,90,3.0,1,2.03083035986901e-06
2.125,0.0,77.50005796451639,0,90,3.0,1,1.1951446677676826e-06
2.13,0.0,77.50003371083174,0,90,3.0,1,6.950686957497027e-07
2.135,0.0,77.50001937479605,0,90,3.0,1,3.9948033100493557e-07
2.14,0.0,77.50001100437119,0,90,3.0,1,2.2689425130939178e-07
2.145,0.001684486749771458,77.50000617666068,0,90,3.0,1,1.2735382837650157e-07
2.15,0.004172395771277602,77.50000342612084,0,90,3.0,1,7.064166682998944e-08
2.155,0.009438687428818865,77.5000018780711,0,90,3.0,1,3.872311552739345e-08
2.16,0.019500507867137046,77.50000101737673,0,90,3.0,1,2.097683983903181e-08
2.165,0.03679496976339974,77.50000054464309,0,90,3.0,1,1.1229754354363397e-08
2.17,0.06340728953298436,77.50000028813938,0,90,3.0,1,5.941018050939466e-09
2.175,0.09979255396093453,77.50000015064462,0,90,3.0,1,3.106074719306486e-09
2.18,0.14343835518453557,77.50000007783323,0,90,3.0,1,1.6048089684172924e-09
2.185,0.18829581417209276,77.50000003974084,0,90,3.0,1,8.193987619004887e-10
2.19,0.2257481735193119,77.50000002005254,0,90,3.0,1,4.134544161791654e-10
2.195,0.24718154073554727,77.50000000999913,0,90,3.0,1,2.061675641203861e-10
2.2,0.24718154074102772,77.50000000492737,0,90,3.0,1,1.0159530490651828e-10
2.205,0.22574817354072055,77.50000000239955,0,90,3.0,1,4.94751639428042e-11
2.21,0.18829581422840957,77.50000000115479,0,90,3.0,1,2.381006731983567e-11
2.215,0.14343835532456656,77.5000000005492,0,90,3.0,1,1.132385365316313e-11
2.22,0.09979255431561854,77.50000000025813,0,90,3.0,1,5.322184846328437e-12
2.225,0.06340729067170194,77.5000000001199,0,90,3.0,1,2.4721027058177174e-12
2.23,0.03679497683410042,77.50000000005502,0,90,3.0,1,1.1345243187064363e-12
2.235,0.019500578284482293,77.50000000002495,0,90,3.0,1,5.145208428844272e-13
2.24,0.009439396781978427,77.50000000001118,0,90,3.0,1,2.305967558941026e-13
2.245,0.004178588733610924,77.50000000000496,0,90,3.0,1,1.0225955248671133e-13
2.25,0.0017299316936037381,77.50000000000217,0,90,3.0,1,4.48301189984723e-14
2.255,0.0008997325756988589,77.50000000000094,0,90,3.0,1,1.9338482705223346e-14
2.26,0.001634769674224814,77.5000000000004,0,90,3.0,1,8.204204784034146e-15
2.265,0.00614904736476635,77.50000000000017,0,90,3.0,1,3.516087764586063e-15
2.27,0.02168080359963608,77.50000000000007,0,90,3.0,1,1.465036568577526e-15
2.275,0.06433400338904088,77.50000000000003,0,90,3.0,1,5.860146274310105e-16
2.28,0.1593410769217493,77.50000000000001,0,90,3.0,1,2.9300731371550523e-16
2.285,0.3291989194808569,77.5,0,90,3.0,1,0.0
2.29,0.5672906802982638,77.5,0,90,3.0,1,0.0
2.295,0.815339152120446,77.5,0,90,3.0,1,0.0
2.3,0.9768711246313155,77.5000028564677,1,90,3.0,1,5.889624128602796e-08
2.305,0.9726380909165361,77.50000545335169,0,90,3.0,1,1.1244024103548654e-07
2.31,0.7921091683291741,77.50001103870419,0,90,3.0,1,2.2760214818910904e-07
2.315,0.49139090102639077,77.50002451145392,0,90,3.0,1,5.053908023807342e-07
2.32,0.15739335672107918,77.50006056508865,0,90,3.0,1,1.2487647143423357e-06
2.325,-0.11102342218909485,77.500163159277,0,90,3.0,1,3.364108803999002e-06
2.33,-0.2314207883647528,77.50045963921588,0,90,3.0,1,9.477097234556608e-06
2.335,-0.2029124434754801,77.50130157200853,0,90,3.0,1,2.6836536258334144e-05
2.34,-0.11151350554305876,77.50360621062502,0,90,3.0,1,7.435485824789184e-05
2.345,-0.039430666652076896,77.50962435840236,0,90,3.0,1,0.0001984403794301553
2.35,-0.006087703519843621,77.5245336611205,0,90,3.0,1,0.0005058486828969172
2.355,0.005350271385530551,77.55946841825335,0,90,3.0,1,0.0012261529536772287
2.36,0.010381647827441833,77.63674715233715,0,90,3.0,1,0.002819528914168054
2.365,0.015115203303506243,77.79792448353166,0,90,3.0,1,0.006142772856322871
2.37,0.021170964062928475,78.11453494517251,0,90,3.0,1,0.012670823611804292
2.375,0.029082821134029553,78.69968859351175,0,90,3.0,1,0.0247358472889021
2.38,0.03923107061708144,79.71601941372563,0,90,3.0,1,0.04569112193248727
2.385,0.051969043308817596,81.3726112396058,0,90,3.0,1,0.07984765442486191
2.39,0.06760532616283861,83.90214348528451,0,90,3.0,1,0.13200295845947446
2.395,0.08636519236693461,87.51194056320449,0,90,3.0,1,0.2064317641897833
2.4,0.10834733138818661,92.31057839827544,0,90,3.0,1,0.305372750479906
2.405,0.1334809643017884,98.22445209684186,0,90,3.0,1,0.42730829065653314
2.41,0.16148868344343945,104.93176617201091,0,90,3.0,2,0.5656034262270291
2.415,0.191860907532018,111.84734002058431,0,90,3.0,2,0.7081925777440065
2.42,0.22384764873847726,118.18353745375319,0,90,3.0,2,0.8388358237887256
2.425,0.25647215537198226,123.08912705128517,0,90,3.0,2,0.9399820010574262
2.43,0.2885689161419028,125.83623498218132,0,90,3.0,2,0.9966234016944603
2.435,0.31884566517832524,126.0,0,90,3.0,2,1.0
2.44,0.3459657668955683,123.57027949337669,0,90,3.0,2,0.9499026699665296
2.445,0.3686441789190902,118.95531468006659,0,90,3.0,2,0.8547487562900329
2.45,0.3857476379544367,112.8759914170416,0,90,3.0,2,0.7294018848874557
2.455,0.3963882865005728,106.18868862199935,0,90,3.0,2,0.5915193530309144
2.46,0.4,99.69679952472116,0,90,3.0,2,0.45766596958187955
2.465,0.39638828650057273,94.00737257354771,0,90,3.0,2,0.3403581973927363
2.47,0.38574763795443656,89.46469600444867,0,90,3.0,2,0.24669476297832307
2.475,0.36864417891908974,86.1609302263463,0,90,3.0,2,0.1785758809555937
2.48,0.345965766895568,83.99956239812894,0,90,3.0,2,0.1340115958377102
2.485,0.3188456651783249,82.77835198542279,0,90,3.0,2,0.10883199969943892
2.49,0.28856891614190205,82.26364992927617,0,90,3.0,2,0.09821958617064268
2.495,0.2564721553719815,82.24082003149722,0,90,3.0,2,0.0977488666288087
2.5,0.22384764873847685,82.53843885242503,0,90,3.0,2,0.1038853371634027
2.505,0.19186090753201765,83.03228371198631,0,90,3.0,2,0.11406770540177957
2.51,0.16148868344343878,83.63787548612598,0,90,3.0,2,0.12655413373455623
2.515,0.1334809643017881,84.29912711951967,0,90,3.0,2,0.14018818803133334
2.52,0.10834733138818531,84.97779720332112,0,90,3.0,2,0.15418138563548694
2.525,0.08636519236690572,85.64573159835365,0,90,3.0,2,0.167953228832034
2.53,0.06760532616242629,86.28008889382897,0,90,3.0,2,0.18103276069750462
2.535,0.05196904332202373,86.86092112745918,0,90,3.0,2,0.19300868304039542
2.54,0.03923107185803287,87.37030590214425,0,90,3.0,2,0.2035114618998815
2.545,0.02908287038705761,87.79235702367464,0,90,3.0,2,0.2122135468798895
2.55,0.02117220077308346,88.11364773149214,0,90,3.0,2,0.2188380975565389
2.555,0.0151361834125735,88.32375687702194,0,90,3.0,2,0.22317024488705023
2.56,0.010626454858290009,88.41576824699521,0,90,3.0,2,0.2250673865359838
2.565,0.007326255555493652,88.38662664092895,0,90,3.0,2,0.22446652867894748
2.57,0.004960179211183015,88.2372990391203,0,90,3.0,2,0.22138760905402685
2.575,0.0032978759379303545,87.97271905935307,0,90,3.0,2,0.21593235173923853
2.58,0.002153242296767213,87.60151563015489,0,90,3.0,2,0.20827867278669882
2.585,0.001380616732225004,87.1355455413843,0,90,3.0,2,0.19867104209039801
2.59,0.0008693106590991584,86.58926483861305,0,90,3.0,2,0.18740752244562983
2.595,0.000537524815942247,85.97898542150867,0,90,3.0,2,0.17482444168059108
2.6,0.0003263951340288585,85.32207004119032,0,90,3.0,2,0.16127979466371783
2.605,0.00019463030985187395,84.63612080609002,0,90,3.0,2,0.1471365114657736
2.61,0.00011397219555062695,83.93821340240603,0,90,3.0,2,0.1327466680908461
2.615,6.55403863487943e-05,83.24422209684201,0,90,3.0,2,0.11843756900705173
2.62,3.701184389455385e-05,82.5682702000534,0,90,3.0,2,0.10450041649594649
2.625,2.0525516217290957e-05,81.92232827693294,0,90,3.0,2,0.09118202632851431
2.63,1.1178128483661116e-05,81.31596934262296,0,90,3.0,2,0.0786797802602673
2.635,5.978135409912517e-06,80.7562778662365,0,90,3.0,2,0.06713974981930931
2.64,3.1396702713238487e-06,80.24789870051464,0,90,3.0,2,0.056657705165250295
2.645,1.6192875458531019e-06,79.79320384552783,0,90,3.0,2,0.047282553516037676
2.65,8.201353897972012e-07,79.39254966509434,0,90,3.0,2,0.03902164257926466
2.655,4.0791415086824765e-07,79.04459487797472,0,90,3.0,2,0.03184731707164365
2.66,1.9923866938774793e-07,78.74665010120292,0,90,3.0,2,0.025704125797998287
2.665,9.556527981051257e-08,78.4950324497986,0,90,3.0,2,0.02051613298553815
2.67,4.501406988770349e-08,78.28540306685832,0,90,3.0,2,0.0161938776671819
2.675,0.0,78.11307078741693,0,90,3.0,2,0.012640634792101656
2.68,0.0,77.97325077488534,0,90,3.0,2,0.00975774793578028
2.685,0.0,77.86127235160261,0,90,3.0,2,0.007448914466033154
2.69,0.0,77.7727349529587,0,90,3.0,2,0.005623401091931963
2.695,0.0,77.70361489944557,0,90,3.0,2,0.004198245349393168
2.7,0.0,77.65032838439267,0,90,3.0,2,0.0030995543173745416
2.705,0.0,77.60975772765077,0,90,3.0,2,0.002263045930943784
2.71,0.0,77.57924865595666,0,90,3.0,2,0.0016339929063229112
2.715,0.0,77.55658631135569,0,90,3.0,2,0.001166728069189428
2.72,0.0,77.53995706181816,0,90,3.0,2,0.0008238569447042692
2.725,0.0,77.5279021961484,0,90,3.0,2,0.000575303013369142
2.73,0.0,77.5192684114055,0,90,3.0,2,0.00039728683310320627
2.735,0.0,77.51315879480705,0,90,3.0,2,0.000271315356846487
2.74,0.0,77.50888687354049,0,90,3.0,2,0.00018323450598948688
2.745,0.0,77.50593532585206,0,90,3.0,2,0.0001223778526198859
2.75,0.0,77.50392015117043,0,90,3.0,2,8.082785918419439e-05
2.755,0.0,77.5025604938901,0,90,3.0,2,5.279368845569395e-05
2.76,0.0,77.50165389279071,0,90,3.0,2,3.4100882282752264e-05
2.765,0.0,77.5010564614286,0,90,3.0,2,2.1782709868122447e-05
2.77,0.0,77.5006673637583,0,90,3.0,2,1.3760077490646321e-05
2.775,0.0,77.50041690228181,0,90,3.0,2,8.595923336355385e-06
2.78,0.0,77.50025755418267,0,90,3.0,2,5.310395518912647e-06
2.785,0.0,77.50015734959284,0,90,3.0,2,3.2443215018505274e-06
2.79,0.0,77.5000950660219,0,90,3.0,2,1.9601241628662914e-06
2.795,0.0,77.5000567999168,0,90,3.0,2,1.1711323052683848e-06
2.8,0.0,77.50003356083515,0,90,3.0,2,6.91975982456909e-07
2.805,0.0,77.50001961013126,0,90,3.0,2,4.0433260332084156e-07
2.81,0.0,77.50001133159184,0,90,3.0,2,2.3364106877378027e-07
2.815,0.0,77.50000647536162,0,90,3.0,2,1.3351261063502365e-07
2.82,0.001684486749771458,77.50000365931513,0,90,3.0,2,7.544979642205494e-08
2.825,0.004172395771277602,77.50000204502338,0,90,3.0,2,4.216543049654685e-08
2.83,0.009438687428818865,77.50000113021072,0,90,3.0,2,2.3303313807830526e-08
2.835,0.019500507867137046,77.50000061770804,0,90,3.0,2,1.2736248234751216e-08
2.84,0.03679496976339974,77.50000033386414,0,90,3.0,2,6.8837966255065934e-09
2.845,0.06340728953298436,77.50000017845099,0,90,3.0,2,3.6794018370463013e-09
2.85,0.09979255396093453,77.50000009432587,0,90,3.0,2,1.9448632944668417e-09
2.855,0.14343835518453557,77.50000004930664,0,90,3.0,2,1.0166316540037479e-09
2.86,0.18829581417209276,77.5000000254884,0,90,3.0,2,5.255341087850519e-10
2.865,0.2257481735193119,77.50000001302995,0,90,3.0,2,2.686586989530605e-10
2.87,0.24718154073554727,77.50000000658727,0,90,3.0,2,1.3582002418505787e-10
2.875,0.24718154074102772,77.5000000032933,0,90,3.0,2,6.790297991699976e-11
2.88,0.22574817354072055,77.50000000162824,0,90,3.0,2,3.3571898983581445e-11
2.885,0.18829581422840957,77.5000000007961,0,90,3.0,2,1.6414562721656317e-11
2.89,0.14343835532456656,77.50000000038493,0,90,3.0,2,7.936689106611891e-12
2.895,0.09979255431561854,77.50000000018406,0,90,3.0,2,3.795030727243224e-12
2.9,0.06340729067170194,77.50000000008704,0,90,3.0,2,1.7946697965074695e-12
2.905,0.03679497683410042,77.5000000000407,0,90,3.0,2,8.39172946481207e-13
2.91,0.019500578284482293,77.50000000001882,0,90,3.0,2,3.879416833593289e-13
2.915,0.009439396781978427,77.50000000000861,0,90,3.0,2,1.7756243211159617e-13
2.92,0.004178588733610924,77.5000000000039,0,90,3.0,2,8.028400395804844e-14
2.925,0.0017299316936037381,77.50000000000173,0,90,3.0,2,3.574689227329164e-14
2.93,0.0008997325756988589,77.50000000000077,0,90,3.0,2,1.5822394940637283e-14
2.935,0.001634769674224814,77.50000000000034,0,90,3.0,2,7.032175529172126e-15
2.94,0.00614904736476635,77.50000000000014,0,90,3.0,2,2.930073137155052e-15
2.945,0.02168080359963608,77.50000000000006,0,90,3.0,2,1.172029254862021e-15
2.95,0.06433400338904088,77.50000000000003,0,90,3.0,2,5.860146274310105e-16
2.955,0.1593410769217493,77.50000000000001,0,90,3.0,2,2.9300731371550523e-16
2.96,0.3291989194808569,77.5,0,90,3.0,2,0.0
2.965,0.5672906802982638,77.5,0,90,3.0,2,0.0
2.97,0.815339152120446,77.5,0,90,3.0,2,0.0
2.975,0.9768711246313155,77.50000284784167,1,90,3.0,2,5.871838496758071e-08
2.98,0.9726380909165361,77.50000500507221,0,90,3.0,2,1.0319736517332561e-07
2.985,0.7921091683291741,77.5000091686428,0,90,3.0,2,1.890441815459743e-07
2.99,0.49139090102639077,77.50001793011047,0,90,3.0,2,3.696929994574245e-07
2.995,0.15739335672107918,77.50003803451901,0,90,3.0,2,7.842168867645126e-07
3.0,-0.11102342218909485,77.50008720525884,0,90,3.0,2,1.7980465739447495e-06
3.005,-0.2314207883647528,77.50021128600096,0,90,3.0,2,4.356412390964194e-06
3.01,-0.2029124434754801,77.50052526321522,0,90,3.0,2,1.0830169386051624e-05
3.015,-0.11151350554305876,77.50130643511761,0,90,3.0,2,2.6936806548714156e-05
3.02,-0.039430666652076896,77.50319460251153,0,90,3.0,2,6.586809302118512e-05
3.025,-0.006087703519843621,77.50759776984054,0,90,3.0,2,0.00015665504825863573
3.03,0.005350271385530551,77.51746486457824,0,90,3.0,2,0.0003601003005823512
3.035,0.010381647827441833,77.53866271321813,0,90,3.0,2,0.0007971693447037176
3.04,0.015115203303506243,77.58225742402149,0,90,3.0,2,0.0016960293612678751
3.045,0.021170964062928475,77.66799595773713,0,90,3.0,2,0.0034638341801470824
3.05,0.029082821134029553,77.82912594226663,0,90,3.0,2,0.006786101902404714
3.055,0.03923107061708144,78.11828020202714,0,90,3.0,2,0.012748045402621377
3.06,0.051969043308817596,78.6134212101303,0,90,3.0,2,0.022957138353202018
3.065,0.06760532616283861,79.42184006803714,0,90,3.0,2,0.03962556841313694
3.07,0.08636519236693461,80.67918959102214,0,90,3.0,2,0.06555030084581726
3.075,0.10834733138818661,82.53999862869271,0,90,3.0,2,0.10391749749881886
3.08,0.1334809643017884,85.15671549570214,0,90,3.0,2,0.1578704225917968
3.085,0.16148868344343945,88.64660514927232,0,90,3.0,2,0.2298269102942746
3.09,0.191860907532018,93.0498208292531,0,90,3.0,2,0.32061486245882664
3.095,0.22384764873847726,98.28687733416436,0,90,3.0,2,0.42859540895184245
3.1,0.25647215537198226,104.1278521713547,0,90,3.0,2,0.5490278798217465
3.105,0.2885689161419028,110.1867551126686,0,90,3.0,2,0.6739537136632703
3.11,0.31884566517832524,115.95093583348796,0,90,3.0,2,0.7928028006904734
3.115,0.3459657668955683,120.84699252210778,0,90,3.0,2,0.8937524231362429
3.12,0.3686441789190902,124.33341809910247,0,90,3.0,2,0.9656374865794325
3.125,0.3857476379544367,126.0,0,90,3.0,2,1.0
3.13,0.3963882865005728,125.64899379590275,0,90,3.0,2,0.9927627586784074
3.135,0.4,123.33600858159323,0,90,3.0,2,0.9450723418885203
3.14,0.39638828650057273,119.35905971777999,0,90,3.0,2,0.8630733962428863
3.145,0.38574763795443656,114.19889310231652,0,90,3.0,2,0.756678208295186
3.15,0.36864417891908974,108.4272130436868,0,90,3.0,2,0.6376744957461197
3.155,0.345965766895568,102.60708895577622,0,90,3.0,2,0.5176719372324994
3.16,0.3188456651783249,97.20932083286478,0,90,3.0,2,0.4063777491312325
3.165,0.28856891614190205,92.56094072447954,0,90,3.0,2,0.31053486029854716
3.17,0.2564721553719815,88.83086392400567,0,90,3.0,2,0.2336260602887767
3.175,0.22384764873847685,86.04725942611216,0,90,3.0,2,0.1762321531157147
3.18,0.19186090753201765,84.1346807598539,0,90,3.0,2,0.13679754144028644
3.185,0.16148868344343878,82.95748856417065,0,90,3.0,2,0.11252553740558033
3.19,0.1334809643017881,82.35870067278485,0,90,3.0,2,0.10017939531515152
3.195,0.10834733138818531,82.1880929738592,0,90,3.0,2,0.09666171080122059
3.2,0.08636519236690572,82.31806683684977,0,90,3.0,2,0.09934158426494363
3.205,0.06760532616242629,82.64913028424574,0,90,3.0,2,0.10616763472671635
3.21,0.05196904332202373,83.10838225134538,0,90,3.0,2,0.11563674745042012
3.215,0.03923107185803287,83.64444151385598,0,90,3.0,2,0.12668951574960785
3.22,0.02908287038705761,84.22145386082907,0,90,3.0,2,0.13858667754286746
3.225,0.02117220077308346,84.81375179244516,0,90,3.0,2,0.15079900602979712
3.23,0.0151361834125735,85.40182976721093,0,90,3.0,2,0.1629243250971325
3.235,0.010626454858290009,85.96969660892174,0,90,3.0,2,0.1746329197715822
3.24,0.007326255555493652,86.50336664105231,0,90,3.0,2,0.1856364255887074
3.245,0.004960179211183015,86.99016444250195,0,90,3.0,2,0.19567349365983402
3.25,0.0032978759379303545,87.418546690176,0,90,3.0,2,0.20450611732321652
3.255,0.002153242296767213,87.77821501494395,0,90,3.0,2,0.21192195907100933
3.26,0.001380616732225004,88.06036485670985,0,90,3.0,2,0.21773948158164647
3.265,0.0008693106590991584,88.2579706783744,0,90,3.0,2,0.22181382842009084
3.27,0.000537524815942247,88.36604570398518,0,90,3.0,2,0.22404217946361193
3.275,0.0003263951340288585,88.38183858849678,0,90,3.0,2,0.22436780594838715
3.28,0.00019463030985187395,88.30494505127466,0,90,3.0,2,0.22278237219123004
3.285,0.00011397219555062695,88.13732333923794,0,90,3.0,2,0.21932625441727707
3.29,6.55403863487943e-05,87.88321074397193,0,90,3.0,2,0.21408681946333874
3.295,3.701184389455385e-05,87.5489453886372,0,90,3.0,2,0.20719475028117926
3.3,2.0525516217290957e-05,87.14270347494788,0,90,3.0,2,0.1988186283494408
3.305,1.1178128483661116e-05,86.67416710033316,0,90,3.0,2,0.18915808454295185
3.31,5.978135409912517e-06,86.15414144283855,0,90,3.0,2,0.17843590603790827
3.315,3.1396702713238487e-06,85.59414239296551,0,90,3.0,2,0.1668895338755775
3.32,1.6192875458531019e-06,85.00597649365882,0,90,3.0,2,0.1547624019311097
3.325,8.201353897972012e-07,84.401334349279,0,90,3.0,2,0.1422955535933814
3.33,4.0791415086824765e-07,83.79141661387153,0,90,3.0,2,0.12971993018291822
3.335,1.9923866938774793e-07,83.18660850156178,0,90,3.0,2,0.11724965982601605
3.34,9.556527981051257e-08,82.5962147859916,0,90,3.0,2,0.10507659352560011
3.345,4.501406988770349e-08,82.02826282300234,0,90,3.0,2,0.09336624377324405
3.35,0.0,81.48937660159106,0,90,3.0,2,0.08225518766167136
3.355,0.0,80.98472053897156,0,90,3.0,2,0.07184990802003213
3.36,0.0,80.5180079714542,0,90,3.0,2,0.062226968483591674
3.365,0.0,80.09156626764032,0,90,3.0,2,0.053434356033820976
3.37,0.0,79.70644833556666,0,90,3.0,2,0.04549378011477655
3.375,0.0,79.36257905801442,0,90,3.0,2,0.03840369191782306
3.38,0.0,79.05892483911421,0,90,3.0,2,0.032142780187921896
3.385,0.0,78.79367488414451,0,90,3.0,2,0.026673708951433155
3.39,0.0,78.56442391838769,0,90,3.0,2,0.021946884915210085
3.395,0.0,78.3683476065922,0,90,3.0,2,0.01790407436272567
3.4,0.0,78.20236377881581,0,90,3.0,2,0.01448172739826409
3.405,0.0,78.06327452543111,0,90,3.0,2,0.011613907740847666
3.41,0.0,77.9478861391376,0,90,3.0,2,0.009234765755414317
3.415,0.0,77.85310563068178,0,90,3.0,2,0.007280528467665602
3.42,0.0,77.77601403877705,0,90,3.0,2,0.005691011108805136
3.425,0.0,77.71391794082291,0,90,3.0,2,0.004410679192224942
3.43,0.0,77.66438143043999,0,90,3.0,2,0.003389307844123468
3.435,0.0,77.62524137001843,0,90,3.0,2,0.0025822962890397765
3.44,0.0,77.59460898267879,0,90,3.0,2,0.001950700673789538
3.445,0.0,77.5708608640907,0,90,3.0,2,0.0014610487441382364
3.45,0.0,77.55262232393028,0,90,3.0,2,0.0010849963696964832
3.455,0.0,77.53874566435232,0,90,3.0,2,0.0007988796773674105
3.46,0.0,77.52828562039277,0,90,3.0,2,0.0005832086678920629
3.465,0.0,77.52047376969986,0,90,3.0,2,0.00042213958144045425
3.47,0.0,77.514693302759,0,90,3.0,2,0.00030295469606184523
3.475,0.0,77.51045515677697,0,90,3.0,2,0.00021557024282413192
3.48,0.0,77.50737617446104,0,90,3.0,2,0.00015208607136172497
3.485,0.0,77.50515966278871,0,90,3.0,2,0.0001063847997672908
3.49,0.0,77.5035784995472,0,90,3.0,2,7.378349581861435e-05
3.495,0.0,77.50246076489488,0,90,3.0,2,5.073742051293491e-05
3.5,0.0,77.50167775594724,0,90,3.0,2,3.459290612869323e-05
3.505,0.0,77.50113416687736,0,90,3.0,2,2.3384884069358676e-05
3.51,0.0,77.50076017685257,0,90,3.0,2,1.5673749537443692e-05
3.515,0.0,77.50050517497772,0,90,3.0,2,1.0415978922022068e-05
3.52,0.0,77.50033285763969,0,90,3.0,2,6.863044117341074e-06
3.525,0.0,77.50021745266571,0,90,3.0,2,4.483560117703221e-06
3.53,0.0,77.5001408511675,0,90,3.0,2,2.904147783524844e-06
3.535,0.0,77.50009045772786,0,90,3.0,2,1.8651077910236222e-06
3.54,0.0,77.5000575997246,0,90,3.0,2,1.1876231876050445e-06
3.545,0.0,77.50003636508839,0,90,3.0,2,7.497956369324007e-07
3.55,0.0,77.50002276346639,0,90,3.0,2,4.693498224757614e-07
3.555,0.0,77.50001412803148,0,90,3.0,2,2.912996181589499e-07
3.56,0.0,77.50000869389558,0,90,3.0,2,1.7925557897600362e-07
3.565,0.0,77.50000530440524,0,90,3.0,2,1.0936918010415444e-07
3.57,0.0,77.50000320884307,0,90,3.0,2,6.616171275446814e-08
3.575,0.0,77.50000192464115,0,90,3.0,2,3.9683322762995006e-08
3.58,0.0,77.50000114456529,0,90,3.0,2,2.3599284304509638e-08
3.585,0.0,77.50000067487117,0,90,3.0,2,1.3914869568157208e-08
3.59,0.001684486749771458,77.50000039453968,0,90,3.0,2,8.134838818599764e-09
3.595,0.004172395771277602,77.50000022869149,0,90,3.0,2,4.715288466670864e-09
3.6,0.009438687428818865,77.50000013143132,0,90,3.0,2,2.7099241430461033e-09
3.605,0.019500507867137046,77.5000000748923,0,90,3.0,2,1.5441711048438687e-09
3.61,0.03679496976339974,77.50000004231214,0,90,3.0,2,8.724152122368584e-10
3.615,0.06340728953298436,77.50000002370186,0,90,3.0,3,4.886981083266797e-10
3.62,0.09979255396093453,77.50000001316404,0,90,3.0,3,2.7142351596528e-10
3.625,0.14343835518453557,77.50000000724913,0,90,3.0,3,1.494665468140438e-10
3.63,0.18829581417209276,77.50000000395796,0,90,3.0,3,8.160751799410137e-11
3.635,0.2257481735193119,77.50000000214263,0,90,3.0,3,4.417788471814158e-11
3.64,0.24718154073554727,77.50000000115004,0,90,3.0,3,2.371220287705469e-11
3.645,0.24718154074102772,77.50000000061202,0,90,3.0,3,1.2618945979785664e-11
3.65,0.22574817354072055,77.50000000032293,0,90,3.0,3,6.658298196871141e-12
3.655,0.18829581422840957,77.50000000016894,0,90,3.0,3,3.4832709454499263e-12
3.66,0.14343835532456656,77.50000000008764,0,90,3.0,3,1.8069761036835207e-12
3.665,0.09979255431561854,77.50000000004506,0,90,3.0,3,9.291261917918671e-13
3.67,0.06340729067170194,77.50000000002298,0,90,3.0,3,4.73792826277972e-13
3.675,0.03679497683410042,77.50000000001162,0,90,3.0,3,2.396799826192833e-13
3.68,0.019500578284482293,77.50000000000583,0,90,3.0,3,1.2013299862335715e-13
3.685,0.009439396781978427,77.5000000000029,0,90,3.0,3,5.977349199796307e-14
3.69,0.004178588733610924,77.50000000000142,0,90,3.0,3,2.930073137155052e-14
3.695,0.0017299316936037381,77.5000000000007,0,90,3.0,3,1.4357358372059756e-14
3.7,0.0008997325756988589,77.50000000000034,0,90,3.0,3,7.032175529172126e-15
3.705,0.001634769674224814,77.50000000000016,0,90,3.0,3,3.2230804508705575e-15
3.71,0.00614904736476635,77.50000000000007,0,90,3.0,3,1.465036568577526e-15
3.715,0.02168080359963608,77.50000000000004,0,90,3.0,3,8.790219411465157e-16
3.72,0.06433400338904088,77.50000000000001,0,90,3.0,3,2.9300731371550523e-16
3.725,0.1593410769217493,77.50000000000001,0,90,3.0,3,2.9300731371550523e-16
3.73,0.3291989194808569,77.5,0,90,3.0,3,0.0
3.735,0.5672906802982638,77.5,0,90,3.0,3,0.0
3.74,0.815339152120446,77.5,0,90,3.0,3,0.0
3.745,0.9768711246313155,77.50000284146185,1,90,3.0,3,5.858684226416127e-08
3.75,0.9726380909165361,77.50000566108393,0,90,3.0,3,1.1672338004733394e-07
3.755,0.7921091683291741,77.50001208193964,0,90,3.0,3,2.49112157614514e-07
3.76,0.49139090102639077,77.50002873397177,0,90,3.0,3,5.924530262760039e-07
3.765,0.15739335672107918,77.50007697165655,0,90,3.0,3,1.5870444650369519e-06
3.77,-0.11102342218909485,77.5002248661891,0,90,3.0,3,4.636416270107747e-06
3.775,-0.2314207883647528,77.50068051525129,0,90,3.0,3,1.4031242294631925e-05
3.78,-0.2029124434754801,77.50204432602273,0,90,3.0,3,4.215105201498454e-05
3.785,-0.11151350554305876,77.50593777613041,0,90,3.0,3,0.00012242837382286874
3.79,-0.039430666652076896,77.5164399231014,0,90,3.0,3,0.00033896748662683775
3.795,-0.006087703519843621,77.5430754284251,0,90,3.0,3,0.0008881531634040833
3.8,0.005350271385530551,77.60641853580098,0,90,3.0,3,0.0021941966144532724
3.805,0.010381647827441833,77.74742477142738,0,90,3.0,3,0.005101541678914966
3.81,0.015115203303506243,78.0408498094408,0,90,3.0,3,0.011151542462696914
3.815,0.021170964062928475,78.61092688858213,0,90,3.0,3,0.022905709042930475
3.82,0.029082821134029553,79.6435860439409,0,90,3.0,3,0.04419765039053402
3.825,0.03923107061708144,81.38481376725014,0,90,3.0,3,0.08009925293299251
3.83,0.051969043308817596,84.11198300521768,0,90,3.0,3,0.13632954649933363
3.835,0.06760532616283861,88.06822919931167,0,90,3.0,3,0.21790163297549842
3.84,0.08636519236693461,93.3624433467146,0,90,3.0,3,0.3270606875611258
3.845,0.10834733138818661,99.85796314992469,0,90,3.0,3,0.4609889309262822
3.85,0.1334809643017884,107.09329543873122,0,90,3.0,3,0.6101710399738396
3.855,0.16148868344343945,114.28467844096284,0,90,3.0,3,0.7584469781641822
3.86,0.191860907532018,120.44171590167264,0,90,3.0,3,0.8853962041581988
3.865,0.22384764873847726,124.58441298286456,0,90,3.0,3,0.9708126388219498
3.87,0.25647215537198226,126.0,0,90,3.0,3,1.0
3.875,0.2885689161419028,124.44805851086043,0,90,3.0,3,0.9680012064094935
3.88,0.31884566517832524,120.23336770229193,0,90,3.0,3,0.8811003649957099
3.885,0.3459657668955683,114.1166790767293,0,90,3.0,3,0.7549830737469958
3.89,0.3686441789190902,107.09975419133913,0,90,3.0,3,0.6103042101307037
3.895,0.3857476379544367,100.16845034237797,0,90,3.0,3,0.46739072870882403
3.9,0.3963882865005728,94.08390247082684,0,90,3.0,3,0.34193613341911017
3.905,0.4,89.27867445647695,0,90,3.0,3,0.2428592671438546
3.91,0.39638828650057273,85.864344835223,0,90,3.0,3,0.1724607182520205
3.915,0.38574763795443656,83.71609774519702,0,90,3.0,3,0.1281669638184952
3.92,0.36864417891908974,82.5841699556867,0,90,3.0,3,0.10482824650900421
3.925,0.345965766895568,82.19056841459238,0,90,3.0,3,0.09671275081633768
3.93,0.3188456651783249,82.29034138789683,0,90,3.0,3,0.098769925523646
3.935,0.28856891614190205,82.69662523703138,0,90,3.0,3,0.10714691210373987
3.94,0.2564721553719815,83.28017122082787,0,90,3.0,3,0.11917878805830655
3.945,0.22384764873847685,83.95647708211006,0,90,3.0,3,0.1331232388063929
3.95,0.19186090753201765,84.67048907652408,0,90,3.0,3,0.1478451355984346
3.955,0.16148868344343878,85.38412783726835,0,90,3.0,3,0.16255933685089385
3.96,0.1334809643017881,86.06814495598806,0,90,3.0,3,0.17666278259769197
3.965,0.10834733138818531,86.69778161152293,0,90,3.0,3,0.1896449816808851
3.97,0.08636519236690572,87.25104168924796,0,90,3.0,3,0.20105240596387536
3.975,0.06760532616242629,87.70847176089451,0,90,3.0,3,0.21048395383287652
3.98,0.05196904332202373,88.05365884673252,0,90,3.0,3,0.21760121333469107
3.985,0.03923107185803287,88.27395822955663,0,90,3.0,3,0.2221434686506521
3.99,0.02908287038705761,88.36117218288662,0,90,3.0,3,0.22394169449250761
3.995,0.02117220077308346,88.31202622987558,0,90,3.0,3,0.22292837587372338
4.0,0.0151361834125735,88.12836388999429,0,90,3.0,3,0.2191415235050369
4.005,0.010626454858290009,87.81702923229327,0,90,3.0,3,0.2127222522122323
4.01,0.007326255555493652,87.38944286440807,0,90,3.0,3,0.20390603844140345
4.015,0.004960179211183015,86.86090652517962,0,90,3.0,3,0.1930083819624663
4.02,0.0032978759379303545,86.24969489964558,0,90,3.0,3,0.18040608040506342
4.025,0.002153242296767213,85.57600963817242,0,90,3.0,3,0.16651566264273035
4.03,0.001380616732225004,84.86087877929835,0,90,3.0,3,0.15177069648037828
4.035,0.0008693106590991584,84.1250844861679,0,90,3.0,3,0.13659968012717333
4.04,0.000537524815942247,83.38819378194358,0,90,3.0,3,0.12140605735966155
4.045,0.0003263951340288585,82.66775226181372,0,90,3.0,3,0.10655159302708696
4.05,0.00019463030985187395,81.97868166934622,0,90,3.0,3,0.0923439519452828
4.055,0.00011397219555062695,81.33290118404989,0,90,3.0,3,0.07902889039278119
4.06,6.55403863487943e-05,80.73917169351294,0,90,3.0,3,0.066787045227071
4.065,3.701184389455385e-05,80.20314431499443,0,90,3.0,3,0.05573493432978211
4.07,2.0525516217290957e-05,79.72758053473622,0,90,3.0,3,0.04592949556157153
4.075,1.1178128483661116e-05,79.31270241863277,0,90,3.0,3,0.03737530760067562
4.08,5.978135409912517e-06,78.95662759204296,0,90,3.0,3,0.030033558598823985
4.085,3.1396702713238487e-06,78.6558446534466,0,90,3.0,3,0.02383184852467202
4.09,1.6192875458531019e-06,78.40568947884991,0,90,3.0,3,0.018674009873193977
4.095,8.201353897972012e-07,78.20079032117712,0,90,3.0,3,0.014449284972724198
4.1,4.0791415086824765e-07,78.03545846105052,0,90,3.0,3,0.011040380640216993
4.105,1.9923866938774793e-07,77.90401025968183,0,90,3.0,3,0.008330108447047955
4.11,9.556527981051257e-08,77.80101484957184,0,90,3.0,3,0.006206491743749331
4.115,4.501406988770349e-08,77.72146870454772,0,90,3.0,3,0.004566365042220984
4.12,0.0,77.66090358782964,0,90,3.0,3,0.0033175997490646754
4.125,0.0,77.61543779137935,0,90,3.0,3,0.0023801606469968993
4.13,0.0,77.58178227885897,0,90,3.0,3,0.001686232553793126
4.135,0.0,77.55721360654816,0,90,3.0,3,0.0011796619906837135
4.14,0.0,77.539524679794,0,90,3.0,3,0.0008149418514226595
4.145,0.0,77.5269628821488,0,90,3.0,3,0.0005559357144081271
4.15,0.0,77.51816323428235,0,90,3.0,3,0.0003744996759248408
4.155,0.0,77.51208228217608,0,90,3.0,3,0.0002491192201253834
4.16,0.0,77.50793658518138,0,90,3.0,3,0.00016364093157491326
4.165,0.0,77.5051481039483,0,90,3.0,3,0.00010614647316084095
4.17,0.0,77.50329753832021,0,90,3.0,3,6.799048082910107e-05
4.175,0.0,77.50208574548876,0,90,3.0,3,4.300506162383865e-05
4.18,0.0,77.50130275183275,0,90,3.0,3,2.686086253099591e-05
4.185,0.0,77.50080350945366,0,90,3.0,3,1.6567205230122108e-05
4.19,0.0,77.50048938336957,0,90,3.0,3,1.0090378753998781e-05
4.195,0.0,77.5002943312271,0,90,3.0,3,6.068685094758096e-06
4.2,0.0,77.50017480441339,0,90,3.0,3,3.6042147090816777e-06
4.205,0.0,77.50010251734817,0,90,3.0,3,2.1137597560393317e-06
4.21,0.0,77.50005937057459,0,90,3.0,3,1.2241355585553447e-06
4.215,0.0,77.50003395267987,0,90,3.0,3,7.000552550755284e-07
4.22,0.0,77.50001917369362,0,90,3.0,3,3.9533388898816314e-07
4.225,0.001684486749771458,77.50001069218405,0,90,3.0,3,2.204574030591025e-07
4.23,0.004172395771277602,77.50000588783982,0,90,3.0,3,1.2139875915983288e-07
4.235,0.009438687428818865,77.50000320165451,0,90,3.0,3,6.601349500482514e-08
4.24,0.019500507867137046,77.50000171918202,0,90,3.0,3,3.5447052029020285e-08
4.245,0.03679496976339974,77.50000091158711,0,90,3.0,3,1.8795610474663807e-08
4.25,0.06340728953298436,77.50000047731316,0,90,3.0,3,9.841508556549802e-09
4.255,0.09979255396093453,77.50000024679568,0,90,3.0,3,5.088570701117692e-09
4.26,0.14343835518453557,77.50000012600873,0,90,3.0,3,2.5981181192712274e-09
4.265,0.18829581417209276,77.50000006353201,0,90,3.0,3,1.3099384211938703e-09
4.27,0.2257481735193119,77.50000003163105,0,90,3.0,3,6.52186520138579e-10
4.275,0.24718154073554727,77.50000001555118,0,90,3.0,3,3.2064288452321053e-10
4.28,0.24718154074102772,77.50000000754991,0,90,3.0,3,1.5566833961614618e-10
4.285,0.22574817354072055,77.5000000036195,0,90,3.0,3,7.462896280333919e-11
4.29,0.18829581422840957,77.5000000017135,0,90,3.0,3,3.5329942865874475e-11
4.295,0.14343835532456656,77.50000000080104,0,90,3.0,3,1.65162362595156e-11
4.3,0.09979255431561854,77.50000000036978,0,90,3.0,3,7.624343310191161e-12
4.305,0.06340729067170194,77.50000000016857,0,90,3.0,3,3.475652755293323e-12
4.31,0.03679497683410042,77.50000000007587,0,90,3.0,3,1.5643660479270824e-12
4.315,0.019500578284482293,77.50000000003372,0,90,3.0,3,6.953063554468939e-13
4.32,0.009439396781978427,77.50000000001481,0,90,3.0,3,3.0531362089155643e-13
4.325,0.004178588733610924,77.50000000000642,0,90,3.0,3,1.3243930579940837e-13
4.33,0.0017299316936037381,77.50000000000274,0,90,3.0,3,5.655041154709251e-14
4.335,0.0008997325756988589,77.50000000000117,0,90,3.0,3,2.402659972467143e-14
4.34,0.001634769674224814,77.50000000000048,0,90,3.0,3,9.962248666327177e-15
4.345,0.00614904736476635,77.5000000000002,0,90,3.0,3,4.102102392017073e-15
4.35,0.02168080359963608,77.50000000000009,0,90,3.0,3,1.7580438822930315e-15
4.355,0.06433400338904088,77.50000000000003,0,90,3.0,3,5.860146274310105e-16
4.36,0.1593410769217493,77.50000000000001,0,90,3.0,3,2.9300731371550523e-16
4.365,0.3291989194808569,77.5,0,90,3.0,3,0.0
4.37,0.5672906802982638,77.5,0,90,3.0,3,0.0
4.375,0.815339152120446,77.5,0,90,3.0,3,0.0
4.38,0.9768711246313155,77.50000285552753,1,90,3.0,3,5.887685621515986e-08
4.385,0.9726380909165361,77.50000520447219,0,90,3.0,3,1.0730870491391488e-07
4.39,0.7921091683291741,77.50000995709195,0,90,3.0,3,2.053008648948252e-07
4.395,0.49139090102639077,77.50002056893659,0,90,3.0,3,4.2410178538769276e-07
4.4,0.15739335672107918,77.50004661724779,0,90,3.0,3,9.61180366803748e-07
4.405,-0.11102342218909485,77.5001147729744,0,90,3.0,3,2.366453080393859e-06
4.41,-0.2314207883647528,77.50029764967344,0,90,3.0,3,6.137106668905655e-06
4.415,-0.2029124434754801,77.500785544837,0,90,3.0,3,1.6196800762904832e-05
4.42,-0.11151350554305876,77.50205444575526,0,90,3.0,3,4.235970629408548e-05
4.425,-0.039430666652076896,77.50523518400281,0,90,3.0,3,0.00010794193820234542
4.43,-0.006087703519843621,77.5128715865154,0,90,3.0,3,0.0002653935364000433
4.435,0.005350271385530551,77.53036900776213,0,90,3.0,3,0.000626165108497579
4.44,0.010381647827441833,77.56855265968096,0,90,3.0,3,0.0014134569006383694
4.445,0.015115203303506243,77.64780523667532,0,90,3.0,3,0.003047530653099477
4.45,0.021170964062928475,77.80410206391555,0,90,3.0,3,0.006270145647743309
4.455,0.029082821134029553,78.09673098914041,0,90,3.0,3,0.012303731734853843
4.46,0.03923107061708144,78.61642614987835,0,90,3.0,3,0.02301909587378042
4.465,0.051969043308817596,79.4910919701668,0,90,3.0,3,0.04105344268385168
4.47,0.06760532616283861,80.88464026599783,0,90,3.0,3,0.06978639723706868
4.475,0.08636519236693461,82.98356379225271,0,90,3.0,3,0.11306317097428267
4.48,0.10834733138818661,85.96688820539036,0,90,3.0,3,0.17457501454413116
4.485,0.1334809643017884,89.95903925839481,0,90,3.0,3,0.2568874073895837
4.49,0.16148868344343945,94.97189481779964,0,90,3.0,3,0.36024525397525026
4.495,0.191860907532018,100.85015339549444,0,90,3.0,3,0.48144646176277206
4.5,0.22384764873847726,107.23978686486039,0,90,3.0,3,0.6131914817496988
4.505,0.25647215537198226,113.59888774071936,0,90,3.0,3,0.7443069637261724
4.51,0.2885689161419028,119.26134258801082,0,90,3.0,3,0.8610586100620787
4.515,0.31884566517832524,123.54766026960566,0,90,3.0,3,0.9494362942186734
4.52,0.3459657668955683,125.89923871534836,0,90,3.0,3,0.9979224477391414
4.525,0.3686441789190902,126.0,0,90,3.0,3,1.0
4.53,0.3857476379544367,123.84907570229969,0,90,3.0,3,0.955651045408241
4.535,0.3963882865005728,119.7616889687283,0,90,3.0,3,0.8713750302830576
4.54,0.4,114.29793734683884,0,90,3.0,3,0.7587203576667801
4.545,0.39638828650057273,108.14185634187781,0,90,3.0,3,0.6317908524098518
4.55,0.38574763795443656,101.9669055072934,0,90,3.0,3,0.5044722785008949
4.555,0.36864417891908974,96.32410807616269,0,90,3.0,3,0.3881259397146946
4.56,0.345965766895568,91.5769525838489,0,90,3.0,3,0.2902464450278122
4.565,0.3188456651783249,87.88916740062149,0,90,3.0,3,0.21420963712621627
4.57,0.28856891614190205,85.25525676975919,0,90,3.0,3,0.15990220143833372
4.575,0.2564721553719815,83.5546076577607,0,90,3.0,3,0.12483727129403502
4.58,0.22384764873847685,82.60933738960881,0,90,3.0,3,0.10534716267234662
4.585,0.19186090753201765,82.23158842901915,0,90,3.0,3,0.0975585243096733
4.59,0.16148868344343878,82.25383195221784,0,90,3.0,3,0.09801715365397602
4.595,0.1334809643017881,82.54253002609308,0,90,3.0,3,0.10396969125965104
4.6,0.10834733138818531,82.99947464006678,0,90,3.0,3,0.11339122969209854
4.605,0.08636519236690572,83.55619835507063,0,90,3.0,3,0.12487006917671412
4.61,0.06760532616242629,84.16597981518647,0,90,3.0,3,0.13744288278735
4.615,0.05196904332202373,84.79631481539536,0,90,3.0,3,0.1504394807298013
4.62,0.03923107185803287,85.42315549922839,0,90,3.0,3,0.1633640309119255
4.625,0.02908287038705761,86.02714157677354,0,90,3.0,3,0.1758173520984236
4.63,0.02117220077308346,86.59149776477696,0,90,3.0,3,0.1874535621603497
4.635,0.0151361834125735,87.10110657272229,0,90,3.0,3,0.1979609602623152
4.64,0.010626454858290009,87.54230692597022,0,90,3.0,3,0.20705787476227264
4.645,0.007326255555493652,87.90308268100586,0,90,3.0,3,0.21449655012383206
4.65,0.004960179211183015,88.17341751366388,0,90,3.0,3,0.22007046419925522
4.655,0.0032978759379303545,88.34567729336746,0,90,3.0,3,0.22362221223438059
4.66,0.002153242296767213,88.41493667849002,0,90,3.0,3,0.22505024079360872
4.665,0.001380616732225004,88.37920128564389,0,90,3.0,3,0.22431342856997705
4.67,0.0008693106590991584,88.23949893803727,0,90,3.0,3,0.22143296779458294
4.675,0.000537524815942247,87.99982916518661,0,90,3.0,3,0.21649132299353838
4.68,0.0003263951340288585,87.66697253824412,0,90,3.0,3,0.2096282997576108
4.685,0.00019463030985187395,87.25017186629793,0,90,3.0,3,0.20103447147006048
4.69,0.00011397219555062695,86.76070595231047,0,90,3.0,3,0.19094239076928812
4.695,6.55403863487943e-05,86.2113832602049,0,90,3.0,3,0.17961614969494633
4.7,3.701184389455385e-05,85.61598714496203,0,90,3.0,3,0.1673399411332378
4.705,2.0525516217290957e-05,84.98870603231623,0,90,3.0,3,0.15440630994466453
4.71,1.1178128483661116e-05,84.34358109610417,0,90,3.0,3,0.14110476486812729
4.715,5.978135409912517e-06,83.6940007858222,0,90,3.0,3,0.1277113564087051
4.72,3.1396702713238487e-06,83.05226642030458,0,90,3.0,3,0.11447972000627993
4.725,1.6192875458531019e-06,82.4292465496576,0,90,3.0,3,0.1016339494774764
4.73,8.201353897972012e-07,81.83413054256579,0,90,3.0,3,0.08936351634156264
4.735,4.0791415086824765e-07,81.2742845367467,0,90,3.0,3,0.0778202997267362
4.74,1.9923866938774793e-07,80.75520609839504,0,90,3.0,3,0.0671176515132997
4.745,9.556527981051257e-08,80.28056816437005,0,90,3.0,3,0.05733130235814541
4.75,4.501406988770349e-08,79.8523384350145,0,90,3.0,3,0.04850182340236087
4.755,0.0,79.47095752906112,0,90,3.0,3,0.0406382995682706
4.76,0.0,79.1355579274932,0,90,3.0,3,0.03372284386583908
4.765,0.0,78.84420590116895,0,90,3.0,3,0.02771558559111233
4.77,0.0,78.59415000792092,0,90,3.0,3,0.02255979397775085
4.775,0.0,78.38206205733981,0,90,3.0,3,0.01818684654308884
4.78,0.0,78.20425934252283,0,90,3.0,3,0.01452081118603777
4.785,0.0,78.05690009997573,0,90,3.0,3,0.011482476288159484
4.79,0.0,77.93614728935393,0,90,3.0,3,0.00899272761554486
4.795,0.0,77.83829864822604,0,90,3.0,3,0.006975229860330794
4.8,0.0,77.75988340609467,0,90,3.0,3,0.005358420744220059
4.805,0.0,77.69772793951074,0,90,3.0,3,0.0040768647321802395
4.81,0.0,77.6489939843806,0,90,3.0,3,0.0030720409150638275
4.815,0.0,77.61119381491554,0,90,3.0,3,0.002292655977639955
4.82,0.0,77.58218711388949,0,90,3.0,4,0.0016945796678245193
4.825,0.0,77.5601641841833,0,90,3.0,4,0.0012404986429544937
4.83,0.0,77.5436197866701,0,90,3.0,4,0.0008993770447444632
4.835,0.0,77.53132133361025,0,90,3.0,4,0.0006458006929948596
4.84,0.0,77.52227450985573,0,90,3.0,4,0.00045926824444812335
4.845,0.0,77.51568871125951,0,90,3.0,4,0.00032347858267039835
4.85,0.0,77.51094403786472,0,90,3.0,4,0.00022565026525191484
4.855,0.0,77.50756099771273,0,90,3.0,4,0.00015589686005628865
4.86,0.0,77.50517358786546,0,90,3.0,4,0.00010667191475168768
4.865,0.0,77.50350603102491,0,90,3.0,4,7.228929948272585e-05
4.87,0.0,77.50235315688904,0,90,3.0,4,4.85186987431621e-05
4.875,0.0,77.50156421776774,0,90,3.0,4,3.225191273683317e-05
4.88,0.0,77.50102980441392,0,90,3.0,4,2.1233080699332895e-05
4.885,0.0,77.50067146516402,0,90,3.0,4,1.3844642557073384e-05
4.89,0.0,77.50043361413033,0,90,3.0,4,8.940497532573796e-06
4.895,0.0,77.50027732854254,0,90,3.0,4,5.718114279127888e-06
4.9,0.0,77.50017566972248,0,90,3.0,4,3.622056133621037e-06
4.905,0.0,77.50011020732575,0,90,3.0,4,2.272315994784933e-06
4.91,0.0,77.50006847550058,0,90,3.0,4,1.4118659914130177e-06
4.915,0.0,77.50004213773335,0,90,3.0,4,8.688192442323927e-07
4.92,0.0,77.50002568137829,0,90,3.0,4,5.295129544274741e-07
4.925,0.0,77.50001550160579,0,90,3.0,4,3.1962073788554804e-07
4.93,0.0,77.50000926715127,0,90,3.0,4,1.9107528392504315e-07
4.935,0.0,77.50000548689967,0,90,3.0,4,1.1313195189818685e-07
4.94,0.0,77.5000032175032,0,90,3.0,4,6.63402722904683e-08
4.945,0.0,77.50000186862502,0,90,3.0,4,3.852835092890093e-08
4.95,0.001684486749771458,77.50000107482197,0,90,3.0,4,2.2161277660622368e-08
4.955,0.004172395771277602,77.50000061229697,0,90,3.0,4,1.2624679839907763e-08
4.96,0.009438687428818865,77.50000034546089,0,90,3.0,4,7.122904950856818e-09
4.965,0.019500507867137046,77.50000019303981,0,90,3.0,4,3.980202266284698e-09
4.97,0.03679496976339974,77.50000010683316,0,90,3.0,4,2.2027454774287593e-09
4.975,0.06340728953298436,77.50000005855668,0,90,3.0,4,1.2073542166035622e-09
4.98,0.09979255396093453,77.50000003178762,0,90,3.0,4,6.554148747210964e-10
4.985,0.14343835518453557,77.50000001709034,0,90,3.0,4,3.523782136644232e-10
4.99,0.18829581417209276,77.50000000910028,0,90,3.0,4,1.8763455852056666e-10
4.995,0.2257481735193119,77.50000000479922,0,90,3.0,4,9.895296495143185e-11
5.0,0.24718154073554727,77.50000000250667,0,90,3.0,4,5.1683853073591685e-11
5.005,0.24718154074102772,77.50000000129668,0,90,3.0,4,2.673574534728499e-11
5.01,0.22574817354072055,77.50000000066433,0,90,3.0,4,1.3697505901572438e-11
5.015,0.18829581422840957,77.50000000033708,0,90,3.0,4,6.9501334813317844e-12
5.02,0.14343835532456656,77.5000000001694,0,90,3.0,4,3.4926471794888225e-12
5.025,0.09979255431561854,77.50000000008431,0,90,3.0,4,1.7384123922740925e-12
5.03,0.06340729067170194,77.50000000004157,0,90,3.0,4,8.570463926178528e-13
5.035,0.03679497683410042,77.5000000000203,0,90,3.0,4,4.1841444398574145e-13
5.04,0.019500578284482293,77.5000000000098,0,90,3.0,4,2.021750464636986e-13
5.045,0.009439396781978427,77.5000000000047,0,90,3.0,4,9.698542083983223e-14
5.05,0.004178588733610924,77.50000000000223,0,90,3.0,4,4.600214825333432e-14
5.055,0.0017299316936037381,77.50000000000105,0,90,3.0,4,2.1682541214947386e-14
5.06,0.0008997325756988589,77.50000000000048,0,90,3.0,4,9.962248666327177e-15
5.065,0.001634769674224814,77.50000000000023,0,90,3.0,4,4.688117019448084e-15
5.07,0.00614904736476635,77.5000000000001,0,90,3.0,4,2.0510511960085364e-15
5.075,0.02168080359963608,77.50000000000004,0,90,3.0,4,8.790219411465157e-16
5.08,0.06433400338904088,77.50000000000001,0,90,3.0,4,2.9300731371550523e-16
5.085,0.1593410769217493,77.50000000000001,0,90,3.0,4,2.9300731371550523e-16
5.09,0.3291989194808569,77.5,0,90,3.0,4,0.0
5.095,0.5672906802982638,77.5,0,90,3.0,4,0.0
5.1,0.815339152120446,77.5,0,90,3.0,4,0.0
5.105,0.9768711246313155,77.50000285066528,1,90,3.0,4,5.8776603762772095e-08
5.11,0.9726380909165361,77.50000533774794,0,90,3.0,4,1.1005665847620811e-07
5.115,0.7921091683291741,77.50001055134113,0,90,3.0,4,2.1755342544631426e-07
5.12,0.49139090102639077,77.50002272509559,0,90,3.0,4,4.685586719629616e-07
5.125,0.15739335672107918,77.50005414678377,0,90,3.0,4,1.1164285312949602e-06
5.13,-0.11102342218909485,77.500140505292,0,90,3.0,4,2.8970163297926024e-06
5.135,-0.2314207883647528,77.50038258369432,0,90,3.0,4,7.888323594182947e-06
5.14,-0.2029124434754801,77.5010527695429,0,90,3.0,4,2.1706588513294712e-05
5.145,-0.11151350554305876,77.50284972513398,0,90,3.0,4,5.875721925740811e-05
5.15,-0.039430666652076896,77.50746597756105,0,90,3.0,4,0.00015393768167121978
5.155,-0.006087703519843621,77.51876169890194,0,90,3.0,4,0.0003868391526173268
5.16,0.005350271385530551,77.54500396355465,0,90,3.0,4,0.000927916774322657
5.165,0.010381647827441833,77.60277510805538,0,90,3.0,4,0.0021190743928944885
5.17,0.015115203303506243,77.72313394409493,0,90,3.0,4,0.004600699878245889
5.175,0.021170964062928475,77.96019364845812,0,90,3.0,4,0.009488528834187958
5.18,0.029082821134029553,78.40119339193035,0,90,3.0,4,0.018581307050110282
5.185,0.03923107061708144,79.17526941030879,0,90,3.0,4,0.034541637325954354
5.19,0.051969043308817596,80.45579048450003,0,90,3.0,4,0.06094413370103151
5.195,0.06760532616283861,82.44931195947832,0,90,3.0,4,0.10204766926759427
5.2,0.08636519236693461,85.36455622127653,0,90,3.0,4,0.16215579837683566
5.205,0.10834733138818661,89.35900055276574,0,90,3.0,4,0.24451547531475742
5.21,0.1334809643017884,94.46913761169944,0,90,3.0,4,0.3498791260144214
5.215,0.16148868344343945,100.54136540845477,0,90,3.0,4,0.47507969914339726
5.22,0.191860907532018,107.18914743882308,0,90,3.0,4,0.612147369872641
5.225,0.22384764873847726,113.8027021799891,0,90,3.0,4,0.7485093232987443
5.23,0.25647215537198226,119.62609966806052,0,90,3.0,4,0.868579374599186
5.235,0.2885689161419028,123.89459021136328,0,90,3.0,4,0.9565894888940882
5.24,0.31884566517832524,126.0,0,90,3.0,4,1.0
5.245,0.3459657668955683,125.63555232071732,0,90,3.0,4,0.992485614860151
5.25,0.3686441789190902,122.8728829839707,0,90,3.0,4,0.9355233604942412
5.255,0.3857476379544367,118.14488894980822,0,90,3.0,4,0.8380389474187262
5.26,0.3963882865005728,112.14032116465883,0,90,3.0,4,0.7142334260754398
5.265,0.4,105.64571806451514,0,90,3.0,4,0.5803240838044358
5.27,0.39638828650057273,99.38474665898676,0,90,3.0,4,0.4512318898760156
5.275,0.38574763795443656,93.89946334087666,0,90,3.0,4,0.3381332647603436
5.28,0.36864417891908974,89.49722210145336,0,90,3.0,4,0.24736540415367753
5.285,0.345965766895568,86.26179009897115,0,90,3.0,4,0.18065546595816798
5.29,0.3188456651783249,84.10837075711324,0,90,3.0,4,0.1362550671569739
5.295,0.28856891614190205,82.85525798893129,0,90,3.0,4,0.11041769049342856
5.3,0.2564721553719815,82.28893368935184,0,90,3.0,4,0.09874090081137807
5.305,0.22384764873847685,82.20954302821511,0,90,3.0,4,0.09710397996319811
5.31,0.19186090753201765,82.45412614899202,0,90,3.0,4,0.1021469309070519
5.315,0.16148868344343878,82.9020248457851,0,90,3.0,4,0.11138195558319808
5.32,0.1334809643017881,83.46956389310165,0,90,3.0,4,0.1230837916103433
5.325,0.10834733138818531,84.1004855952502,0,90,3.0,4,0.13609248650000424
5.33,0.08636519236690572,84.75645137662403,0,90,3.0,4,0.14961755415719646
5.335,0.06760532616242629,85.40966434514888,0,90,3.0,4,0.16308586278657491
5.34,0.05196904332202373,86.0380544133898,0,90,3.0,4,0.17604235903896498
5.345,0.03923107185803287,86.62263152761466,0,90,3.0,4,0.18809549541473522
5.35,0.02908287038705761,87.14635512742458,0,90,3.0,4,0.1988939201530842
5.355,0.02117220077308346,87.59392038235315,0,90,3.0,4,0.20812206973924013
5.36,0.0151361834125735,87.95201971947535,0,90,3.0,4,0.21550556122629577
5.365,0.010626454858290009,88.20979239540345,0,90,3.0,4,0.22082046176089595
5.37,0.007326255555493652,88.35928803931012,0,90,3.0,4,0.2239028461713426
5.375,0.004960179211183015,88.3958424677883,0,90,3.0,4,0.22465654572759378
5.38,0.0032978759379303545,88.31830826653777,0,90,3.0,4,0.22305790240284062
5.385,0.002153242296767213,88.12911092076266,0,90,3.0,4,0.21915692620129187
5.39,0.001380616732225004,87.83412164429782,0,90,3.0,4,0.21307467307830563
5.395,0.0008693106590991584,87.44235443924178,0,90,3.0,4,0.20499699874725325
5.4,0.000537524815942247,86.96550861191454,0,90,3.0,4,0.19516512601885658
5.405,0.0003263951340288585,86.41738895346812,0,90,3.0,4,0.18386368976222928
5.41,0.00019463030985187395,85.81324358973214,0,90,3.0,4,0.171407084324374
5.415,0.00011397219555062695,85.16906367666229,0,90,3.0,4,0.15812502426107813
5.42,6.55403863487943e-05,84.5008894969962,0,90,3.0,4,0.14434823705146793
5.425,3.701184389455385e-05,83.82416428298873,0,90,3.0,4,0.1303951398554378
5.43,2.0525516217290957e-05,83.15317077049401,0,90,3.0,4,0.11656022207204154
5.435,1.1178128483661116e-05,82.50057687127921,0,90,3.0,4,0.10310467775833418
5.44,5.978135409912517e-06,81.8771068894783,0,90,3.0,4,0.09024962658718141
5.445,3.1396702713238487e-06,81.29134441020258,0,90,3.0,4,0.07817204969489863
5.45,1.6192875458531019e-06,80.74966329577829,0,90,3.0,4,0.06700336692326372
5.455,8.201353897972012e-07,80.25627492189922,0,90,3.0,4,0.05683041076080865
5.46,4.0791415086824765e-07,79.81337343151264,0,90,3.0,4,0.04769842126830195
5.465,1.9923866938774793e-07,79.42135668043277,0,90,3.0,4,0.03961560165840754
5.47,9.556527981051257e-08,79.07909874103451,0,90,3.0,4,0.032558736928546675
5.475,4.501406988770349e-08,78.78425013843707,0,90,3.0,4,0.026479384297671618
5.48,0.0,78.5335440627456,0,90,3.0,4,0.021310186860734128
5.485,0.0,78.32309016640502,0,90,3.0,4,0.016970931266082963
5.49,0.0,78.14864170879353,0,90,3.0,4,0.013374055851413066
5.495,0.0,78.00582625821215,0,90,3.0,4,0.010429407385817584
5.5,0.0,77.89033447553675,0,90,3.0,4,0.008048133516221589
5.505,0.0,77.79806535061086,0,90,3.0,4,0.006145677332182583
5.51,0.0,77.72522941908457,0,90,3.0,4,0.0046439055481354696
5.515,0.0,77.66841384122971,0,90,3.0,4,0.0034724503346331417
5.52,0.0,77.62461476063879,0,90,3.0,4,0.0025693765080163334
5.525,0.0,77.59124314265756,0,90,3.0,4,0.001881301910465172
5.53,0.0,77.5661104364004,0,90,3.0,4,0.0013631017814514075
5.535,0.0,77.54740005593854,0,90,3.0,4,0.0009773207410008
5.54,0.0,77.53362998903987,0,90,3.0,4,0.0006934018358735332
5.545,0.0,77.52361095963337,0,90,3.0,4,0.00048682390996646063
5.55,0.0,77.51640361595736,0,90,3.0,4,0.00033821888571872985
5.555,0.0,77.51127728584574,0,90,3.0,4,0.00023252135764404482
5.56,0.0,77.50767200055635,0,90,3.0,4,0.0001581855784815344
5.565,0.0,77.50516477853803,0,90,3.0,4,0.00010649027913466187
5.57,0.0,77.503440597138,0,90,3.0,4,7.094014717516253e-05
5.575,0.0,77.5022680623265,0,90,3.0,4,4.676417168027292e-05
5.58,0.0,77.50147950074185,0,90,3.0,4,3.0505169935078867e-05
5.585,0.0,77.50095502431975,0,90,3.0,4,1.9691223087647813e-05
5.59,0.0,77.50061003213925,0,90,3.0,4,1.2577982252566668e-05
5.595,0.0,77.50038559380044,0,90,3.0,4,7.95038763803906e-06
5.6,0.0,77.50024118284321,0,90,3.0,4,4.9728421280745995e-06
5.605,0.0,77.50014928006648,0,90,3.0,4,3.0779395150644987e-06
5.61,0.0,77.50009143158961,0,90,3.0,4,1.8851874146323622e-06
5.615,0.0,77.50005541530939,0,90,3.0,4,1.1425836987655202e-06
5.62,0.0,77.50003323550604,0,90,3.0,4,6.852681657310126e-07
5.625,0.0,77.50001972485731,0,90,3.0,4,4.06698088869403e-07
5.63,0.0,77.50001158415837,0,90,3.0,4,2.3884862622891006e-07
5.635,0.0,77.50000673215557,0,90,3.0,4,1.388073313198229e-07
5.64,0.0,77.5000038715319,0,90,3.0,4,7.982540004489884e-08
5.645,0.001684486749771458,77.50000220318306,0,90,3.0,4,4.542645480852894e-08
5.65,0.004172395771277602,77.5000012406731,0,90,3.0,4,2.5580888665065207e-08
5.655,0.009438687428818865,77.50000069135831,0,90,3.0,4,1.4254810500376349e-08
5.66,0.019500507867137046,77.50000038123086,0,90,3.0,4,7.860430144122352e-09
5.665,0.03679496976339974,77.50000020802328,0,90,3.0,4,4.289139801632287e-09
5.67,0.06340728953298436,77.5000001123246,0,90,3.0,4,2.315971121638587e-09
5.675,0.09979255396093453,77.50000006001736,0,90,3.0,4,1.237471266351124e-09
5.68,0.14343835518453557,77.50000003173349,0,90,3.0,4,6.542988098631541e-10
5.685,0.18829581417209276,77.50000001660344,0,90,3.0,4,3.4233890407458886e-10
5.69,0.2257481735193119,77.50000000859642,0,90,3.0,4,1.772456912054697e-10
5.695,0.24718154073554727,77.50000000440428,0,90,3.0,4,9.080999869596425e-11
5.7,0.24718154074102772,77.50000000223291,0,90,3.0,4,4.603936018217619e-11
5.705,0.22574817354072055,77.50000000112023,0,90,3.0,4,2.3097473532879562e-11
5.71,0.18829581422840957,77.50000000055614,0,90,3.0,4,1.1466841222256297e-11
5.715,0.14343835532456656,77.5000000002732,0,90,3.0,4,5.633065606180588e-12
5.72,0.09979255431561854,77.50000000013281,0,90,3.0,4,2.738446353985112e-12
5.725,0.06340729067170194,77.50000000006389,0,90,3.0,4,1.3173608824649115e-12
5.73,0.03679497683410042,77.50000000003041,0,90,3.0,4,6.270356513511812e-13
5.735,0.019500578284482293,77.50000000001432,0,90,3.0,4,2.953513722252293e-13
5.74,0.009439396781978427,77.50000000000668,0,90,3.0,4,1.3771343744628745e-13
5.745,0.004178588733610924,77.50000000000308,0,90,3.0,4,6.358258707626464e-14
5.75,0.0017299316936037381,77.5000000000014,0,90,3.0,4,2.9007724057835016e-14
5.755,0.0008997325756988589,77.50000000000064,0,90,3.0,4,1.3185329117197736e-14
5.76,0.001634769674224814,77.50000000000028,0,90,3.0,4,5.860146274310104e-15
5.765,0.00614904736476635,77.50000000000013,0,90,3.0,4,2.637065823439547e-15
5.77,0.02168080359963608,77.50000000000006,0,90,3.0,4,1.172029254862021e-15
5.775,0.06433400338904088,77.50000000000003,0,90,3.0,4,5.860146274310105e-16
5.78,0.1593410769217493,77.50000000000001,0,90,3.0,4,2.9300731371550523e-16
5.785,0.3291989194808569,77.5,0,90,3.0,4,0.0
5.79,0.5672906802982638,77.5,0,90,3.0,4,0.0
5.795,0.815339152120446,77.5,0,90,3.0,4,0.0
5.8,0.9768711246313155,77.50000284866415,1,90,3.0,4,5.873534335187662e-08
5.805,0.9726380909165361,77.5000051058168,0,90,3.0,4,1.0527457313222953e-07
5.81,0.7921091683291741,77.50000957430125,0,90,3.0,4,1.9740827309592016e-07
5.815,0.49139090102639077,77.5000192818472,0,90,3.0,4,3.975638598261604e-07
5.82,0.15739335672107918,77.50004238154852,0,90,3.0,4,8.738463613375756e-07
5.825,-0.11102342218909485,77.50010098393257,0,90,3.0,4,2.0821429395662974e-06
5.83,-0.2314207883647528,77.50025390098935,0,90,3.0,4,5.235071945353224e-06
5.835,-0.2029124434754801,77.50065223244145,0,90,3.0,4,1.344809157635656e-05
5.84,-0.11151350554305876,77.50166776507878,0,90,3.0,4,3.438690884079208e-05
5.845,-0.039430666652076896,77.50417234055165,0,90,3.0,4,8.602764024016155e-05
5.85,-0.006087703519843621,77.510108421842,0,90,3.0,4,0.00020842106890733104
5.855,0.005350271385530551,77.52357843699788,0,90,3.0,4,0.00048615334016247844
5.86,0.010381647827441833,77.55277848453393,0,90,3.0,4,0.001088216175957344
5.865,0.015115203303506243,77.61316496400357,0,90,3.0,4,0.002333298226877799
5.87,0.021170964062928475,77.73218082230103,0,90,3.0,4,0.004787233449505819
5.875,0.029082821134029553,77.95555095968672,0,90,3.0,4,0.009392803292509654
5.88,0.03923107061708144,78.35445356436101,0,90,3.0,4,0.017617599265175442
5.885,0.051969043308817596,79.03174778384424,0,90,3.0,4,0.031582428532870896
5.89,0.06760532616283861,80.1240736075666,0,90,3.0,4,0.054104610465290734
5.895,0.08636519236693461,81.79555386436334,0,90,3.0,4,0.08856812091470807
5.9,0.10834733138818661,84.21884563394231,0,90,3.0,4,0.13853289966891358
5.905,0.1334809643017884,87.54128128862234,0,90,3.0,4,0.20703672760046068
5.91,0.16148868344343945,91.83821872914966,0,90,3.0,4,0.2956333758587559
5.915,0.191860907532018,97.06185531965835,0,90,3.0,4,0.40333722308573916
5.92,0.22384764873847726,102.99968719500932,0,90,3.0,4,0.5257667462888519
5.925,0.25647215537198226,109.25960362410099,0,90,3.0,4,0.6548371881257936
5.93,0.2885689161419028,115.29561625128811,0,90,3.0,4,0.7792910567275899
5.935,0.31884566517832524,120.47858111676223,0,90,3.0,4,0.8861563116858191
5.94,0.3459657668955683,124.20209954602316,0,90,3.0,4,0.9629298875468694
5.945,0.3686441789190902,126.0,0,90,3.0,4,1.0
5.95,0.3857476379544367,125.64429828531888,0,90,3.0,4,0.9926659440271934
5.955,0.3963882865005728,123.19538595966438,0,90,3.0,4,0.9421729063848325
5.96,0.4,118.98936513146,0,90,3.0,4,0.8554508274527836
5.965,0.39638828650057273,113.56635473578643,0,90,3.0,4,0.7436361801193079
5.97,0.38574763795443656,107.56103062609117,0,90,3.0,4,0.619815064455488
5.975,0.36864417891908974,101.5861011068479,0,90,3.0,4,0.49662064137830736
5.98,0.345965766895568,96.13795660346761,0,90,3.0,4,0.3842877650199508
5.985,0.3188456651783249,91.54311810108527,0,90,3.0,4,0.2895488268265004
5.99,0.28856891614190205,87.94947025429984,0,90,3.0,4,0.21545299493401732
5.995,0.2564721553719815,85.35341671541337,0,90,3.0,4,0.16192611784357472
6.0,0.22384764873847685,83.646989167333,0,90,3.0,4,0.12674204468727843
6.005,0.19186090753201765,82.66846492619491,0,90,3.0,4,0.10656628713803948
6.01,0.16148868344343878,82.24444734995778,0,90,3.0,4,0.09782365670016044
6.015,0.1334809643017881,82.21768642245108,0,90,3.0,4,0.09727188499899135
6.02,0.10834733138818531,82.46052458609033,0,90,3.0,4,0.10227885744516144
6.025,0.08636519236690572,82.8773024464563,0,90,3.0,5,0.1108722153908515
6.03,0.06760532616242629,83.40018792324622,0,90,3.0,5,0.12165335924219013
6.035,0.05196904332202373,83.98236408595713,0,90,3.0,5,0.13365699146303361
6.04,0.03923107185803287,84.5912275051745,0,90,3.0,5,0.14621087639535055
6.045,0.02908287038705761,85.20293090826489,0,90,3.0,5,0.1588233176961833
6.05,0.02117220077308346,85.79863121407236,0,90,3.0,5,0.17110579822829605
6.055,0.0151361834125735,86.36225875809158,0,90,3.0,5,0.1827269847029193
6.06,0.010626454858290009,86.87941776141984,0,90,3.0,5,0.19339005693649164
6.065,0.007326255555493652,87.3370239424003,0,90,3.0,5,0.20282523592577925
6.07,0.004960179211183015,87.72336626402566,0,90,3.0,5,0.21079105699021972
6.075,0.0032978759379303545,88.0283749476411,0,90,3.0,5,0.2170798958276515
6.08,0.002153242296767213,88.24395573178634,0,90,3.0,5,0.22152486044920294
6.085,0.001380616732225004,88.3643042981417,0,90,3.0,5,0.22400627418848873
6.09,0.0008693106590991584,88.38614919940129,0,90,3.0,5,0.2244566845237379
6.095,0.000537524815942247,88.30889337910872,0,90,3.0,5,0.22286378101255103
6.1,0.0003263951340288585,88.13463907974494,0,90,3.0,5,0.21927090886072048
6.105,0.00019463030985187395,87.86809205042462,0,90,3.0,5,0.21377509382318807
6.11,0.00011397219555062695,87.51635015716049,0,90,3.0,5,0.20652268365279358
6.115,6.55403863487943e-05,87.08858930151122,0,90,3.0,5,0.19770287219610763
6.12,3.701184389455385e-05,86.59566592728085,0,90,3.0,5,0.18753950365527522
6.125,2.0525516217290957e-05,86.04966009546001,0,90,3.0,5,0.17628165145278377
6.13,1.1178128483661116e-05,85.46338590027543,0,90,3.0,5,0.1641935237170191
6.135,5.978135409912517e-06,84.84989676778528,0,90,3.0,5,0.15154426325330478
6.14,3.1396702713238487e-06,84.2220119679011,0,90,3.0,5,0.13859818490517725
6.145,1.6192875458531019e-06,83.59188768943814,0,90,3.0,5,0.12560593174099255
6.15,8.201353897972012e-07,82.97065162366658,0,90,3.0,5,0.11279694069415636
6.155,4.0791415086824765e-07,82.36811462175282,0,90,3.0,5,0.10037349735572833
6.16,1.9923866938774793e-07,81.79256713225858,0,90,3.0,5,0.08850653880945532
6.165,9.556527981051257e-08,81.25066228233223,0,90,3.0,5,0.07733324293468513
6.17,4.501406988770349e-08,80.74738208861933,0,90,3.0,5,0.06695633172410995
6.175,0.0,80.28607873446397,0,90,3.0,5,0.05744492236008186
6.18,0.0,79.86857938189709,0,90,3.0,5,0.048836688286537984
6.185,0.0,79.49534073235793,0,90,3.0,5,0.04114104602799858
6.19,0.0,79.16563852258219,0,90,3.0,5,0.03434306232128217
6.195,0.0,78.87777725057971,0,90,3.0,5,0.028407778362468283
6.2,0.0,78.62930649821172,0,90,3.0,5,0.023284670066221005
6.205,0.0,78.41723202445405,0,90,3.0,5,0.018912000504207247
6.21,0.0,78.23821209460424,0,90,3.0,5,0.015220867929984254
6.215,0.0,78.08873203469501,0,90,3.0,5,0.01213880483907244
6.22,0.0,77.96525253041911,0,90,3.0,5,0.00959283567874448
6.225,0.0,77.86432953928083,0,90,3.0,5,0.007511949263522293
6.23,0.0,77.78270571628579,0,90,3.0,5,0.005828983840944119
6.235,0.0,77.71737488236141,0,90,3.0,5,0.004481956337348699
6.24,0.0,77.66562225546049,0,90,3.0,5,0.003414891865164761
6.245,0.0,77.62504392401856,0,90,3.0,5,0.0025782252374959933
6.25,0.0,77.59354941106356,0,90,3.0,5,0.001928853836362125
6.255,0.0,77.56935121694374,0,90,3.0,5,0.001429921998840083
6.26,0.0,77.55094501323765,0,90,3.0,5,0.0010504126440752874
6.265,0.0,77.53708376644407,0,90,3.0,5,0.0007646137411148447
6.27,0.0,77.52674856940591,0,90,3.0,5,0.000551516894967225
6.275,0.0,77.51911841333184,0,90,3.0,5,0.00039419408931626234
6.28,0.0,77.51354059343424,0,90,3.0,5,0.00027918749348954564
6.285,0.0,77.509502942787,0,90,3.0,5,0.00019593696468030093
6.29,0.0,77.50660865522913,0,90,3.0,5,0.00013626093255937252
6.295,0.0,77.50455410082121,0,90,3.0,5,9.38989860043252e-05
6.3,0.0,77.50310975912758,0,90,3.0,5,6.411874489860575e-05
6.305,0.0,77.50210419229508,0,90,3.0,5,4.338540814595119e-05
6.31,0.0,77.5014108429276,0,90,3.0,5,2.908954489892485e-05
6.315,0.0,77.5009373601135,0,90,3.0,5,1.932701264941785e-05
6.32,0.0,77.5006171188869,0,90,3.0,5,1.2724100760686775e-05
6.325,0.0,77.50040259258478,0,90,3.0,5,8.30087803663999e-06
6.33,0.0,77.50026025391386,0,90,3.0,5,5.3660600796901395e-06
6.335,0.0,77.50016671064509,0,90,3.0,5,3.437332888444365e-06
6.34,0.0,77.50010581907459,0,90,3.0,5,2.181836589501866e-06
6.345,0.0,77.50006655782953,0,90,3.0,5,1.372326381998232e-06
6.35,0.0,77.50004148288069,0,90,3.0,5,8.553171276209056e-07
6.355,0.0,77.50002561965213,0,90,3.0,5,5.282402502036779e-07
6.36,0.0,77.50001567877452,0,90,3.0,5,3.232737013796705e-07
6.365,0.0,77.500009507921,0,90,3.0,5,1.9603960839086754e-07
6.37,0.0,77.50000571338617,0,90,3.0,5,1.1780177676404698e-07
6.375,0.0,77.50000340201449,0,90,3.0,5,7.014462856148515e-08
6.38,0.0,77.50000200730472,0,90,3.0,5,4.138772608937345e-08
6.385,0.0,77.50000117361327,0,90,3.0,5,2.419821176425609e-08
6.39,0.001684486749771458,77.50000067994108,0,90,3.0,5,1.4019403736420292e-08
6.395,0.004172395771277602,77.50000039034815,0,90,3.0,5,8.048415432397436e-09
6.4,0.009438687428818865,77.50000022205856,0,90,3.0,5,4.5785270099868375e-09
6.405,0.019500507867137046,77.50000012517496,0,90,3.0,5,2.5809270871682247e-09
6.41,0.03679496976339974,77.50000006992009,0,90,3.0,5,1.441651361862578e-09
6.415,0.06340728953298436,77.5000000387009,0,90,3.0,5,7.979567796901017e-10
6.42,0.09979255396093453,77.50000002122633,0,90,3.0,5,4.376562342774387e-10
6.425,0.14343835518453557,77.5000000115362,0,90,3.0,5,2.3785982118648256e-10
6.43,0.18829581417209276,77.50000000621277,0,90,3.0,5,1.2809840244671315e-10
6.435,0.2257481735193119,77.50000000331545,0,90,3.0,5,6.835977831908223e-11
6.44,0.24718154073554727,77.50000000175321,0,90,3.0,5,3.61486053003956e-11
6.445,0.24718154074102772,77.50000000091867,0,90,3.0,5,1.8941750802452552e-11
6.45,0.22574817354072055,77.500000000477,0,90,3.0,5,9.835083492174649e-12
6.455,0.18829581422840957,77.50000000024542,0,90,3.0,5,5.060236307866776e-12
6.46,0.14343835532456656,77.50000000012513,0,90,3.0,5,2.5799293972650234e-12
6.465,0.09979255431561854,77.50000000006321,0,90,3.0,5,1.3032965314065673e-12
6.47,0.06340729067170194,77.50000000003165,0,90,3.0,5,6.525272876444302e-13
6.475,0.03679497683410042,77.5000000000157,0,90,3.0,5,3.237730816556333e-13
6.48,0.019500578284482293,77.50000000000772,0,90,3.0,5,1.5910297134751933e-13
6.485,0.009439396781978427,77.50000000000375,0,90,3.0,5,7.735393082089338e-14
6.49,0.004178588733610924,77.50000000000182,0,90,3.0,5,3.750493615558467e-14
6.495,0.0017299316936037381,77.50000000000087,0,90,3.0,5,1.787344613664582e-14
6.5,0.0008997325756988589,77.50000000000041,0,90,3.0,5,8.497212097749651e-15
6.505,0.001634769674224814,77.5000000000002,0,90,3.0,5,4.102102392017073e-15
6.51,0.00614904736476635,77.50000000000009,0,90,3.0,5,1.7580438822930315e-15
6.515,0.02168080359963608,77.50000000000004,0,90,3.0,5,8.790219411465157e-16
6.52,0.06433400338904088,77.50000000000001,0,90,3.0,5,2.9300731371550523e-16
6.525,0.1593410769217493,77.50000000000001,0,90,3.0,5,2.9300731371550523e-16
6.53,0.3291989194808569,77.5,0,90,3.0,5,0.0
6.535,0.5672906802982638,77.5,0,90,3.0,5,0.0
6.54,0.815339152120446,77.5,0,90,3.0,5,0.0
6.545,0.9768711246313155,77.50000285552753,1,90,3.0,5,5.887685621515986e-08
6.55,0.9726380909165361,77.50000520447219,0,90,3.0,5,1.0730870491391488e-07
6.555,0.7921091683291741,77.50000995709195,0,90,3.0,5,2.053008648948252e-07
6.56,0.49139090102639077,77.50002056893659,0,90,3.0,5,4.2410178538769276e-07
6.565,0.15739335672107918,77.50004661724779,0,90,3.0,5,9.61180366803748e-07
6.57,-0.11102342218909485,77.5001147729744,0,90,3.0,5,2.366453080393859e-06
6.575,-0.2314207883647528,77.50029764967344,0,90,3.0,5,6.137106668905655e-06
6.58,-0.2029124434754801,77.500785544837,0,90,3.0,5,1.6196800762904832e-05
6.585,-0.11151350554305876,77.50205444575526,0,90,3.0,5,4.235970629408548e-05
6.59,-0.039430666652076896,77.50523518400281,0,90,3.0,5,0.00010794193820234542
6.595,-0.006087703519843621,77.5128715865154,0,90,3.0,5,0.0002653935364000433
6.6,0.005350271385530551,77.53036900776213,0,90,3.0,5,0.000626165108497579
6.605,0.010381647827441833,77.56855265968096,0,90,3.0,5,0.0014134569006383694
6.61,0.015115203303506243,77.64780523667532,0,90,3.0,5,0.003047530653099477
6.615,0.021170964062928475,77.80410206391555,0,90,3.0,5,0.006270145647743309
6.62,0.029082821134029553,78.09673098914041,0,90,3.0,5,0.012303731734853843
6.625,0.03923107061708144,78.61642614987835,0,90,3.0,5,0.02301909587378042
6.63,0.051969043308817596,79.4910919701668,0,90,3.0,5,0.04105344268385168
6.635,0.06760532616283861,80.88464026599783,0,90,3.0,5,0.06978639723706868
6.64,0.08636519236693461,82.98356379225271,0,90,3.0,5,0.11306317097428267
6.645,0.10834733138818661,85.96688820539036,0,90,3.0,5,0.17457501454413116
6.65,0.1334809643017884,89.95903925839481,0,90,3.0,5,0.2568874073895837
6.655,0.16148868344343945,94.97189481779964,0,90,3.0,5,0.36024525397525026
6.66,0.191860907532018,100.85015339549444,0,90,3.0,5,0.48144646176277206
6.665,0.22384764873847726,107.23978686486039,0,90,3.0,5,0.6131914817496988
6.67,0.25647215537198226,113.59888774071936,0,90,3.0,5,0.7443069637261724
6.675,0.2885689161419028,119.26134258801082,0,90,3.0,5,0.8610586100620787
6.68,0.31884566517832524,123.54766026960566,0,90,3.0,5,0.9494362942186734
6.685,0.3459657668955683,125.89923871534836,0,90,3.0,5,0.9979224477391414
6.69,0.3686441789190902,126.0,0,90,3.0,5,1.0
6.695,0.3857476379544367,123.84907570229969,0,90,3.0,5,0.955651045408241
6.7,0.3963882865005728,119.7616889687283,0,90,3.0,5,0.8713750302830576
6.705,0.4,114.29793734683884,0,90,3.0,5,0.7587203576667801
6.71,0.39638828650057273,108.14185634187781,0,90,3.0,5,0.6317908524098518
6.715,0.38574763795443656,101.9669055072934,0,90,3.0,5,0.5044722785008949
6.72,0.36864417891908974,96.32410807616269,0,90,3.0,5,0.3881259397146946
6.725,0.345965766895568,91.5769525838489,0,90,3.0,5,0.2902464450278122
6.73,0.3188456651783249,87.88916740062149,0,90,3.0,5,0.21420963712621627
6.735,0.28856891614190205,85.25525676975919,0,90,3.0,5,0.15990220143833372
6.74,0.2564721553719815,83.5546076577607,0,90,3.0,5,0.12483727129403502
6.745,0.22384764873847685,82.60933738960881,0,90,3.0,5,0.10534716267234662
6.75,0.19186090753201765,82.23158842901915,0,90,3.0,5,0.0975585243096733
6.755,0.16148868344343878,82.25383195221784,0,90,3.0,5,0.09801715365397602
6.76,0.1334809643017881,82.54253002609308,0,90,3.0,5,0.10396969125965104
6.765,0.10834733138818531,82.99947464006678,0,90,3.0,5,0.11339122969209854
6.77,0.08636519236690572,83.55619835507063,0,90,3.0,5,0.12487006917671412
6.775,0.06760532616242629,84.16597981518647,0,90,3.0,5,0.13744288278735
6.78,0.05196904332202373,84.79631481539536,0,90,3.0,5,0.1504394807298013
6.785,0.03923107185803287,85.42315549922839,0,90,3.0,5,0.1633640309119255
6.79,0.02908287038705761,86.02714157677354,0,90,3.0,5,0.1758173520984236
6.795,0.02117220077308346,86.59149776477696,0,90,3.0,5,0.1874535621603497
6.8,0.0151361834125735,87.10110657272229,0,90,3.0,5,0.1979609602623152
6.805,0.010626454858290009,87.54230692597022,0,90,3.0,5,0.20705787476227264
6.81,0.007326255555493652,87.90308268100586,0,90,3.0,5,0.21449655012383206
6.815,0.004960179211183015,88.17341751366388,0,90,3.0,5,0.22007046419925522
6.82,0.0032978759379303545,88.34567729336746,0,90,3.0,5,0.22362221223438059
6.825,0.002153242296767213,88.41493667849002,0,90,3.0,5,0.22505024079360872
6.83,0.001380616732225004,88.37920128564389,0,90,3.0,5,0.22431342856997705
6.835,0.0008693106590991584,88.23949893803727,0,90,3.0,5,0.22143296779458294
6.84,0.000537524815942247,87.99982916518661,0,90,3.0,5,0.21649132299353838
6.845,0.0003263951340288585,87.66697253824412,0,90,3.0,5,0.2096282997576108
6.85,0.00019463030985187395,87.25017186629793,0,90,3.0,5,0.20103447147006048
6.855,0.00011397219555062695,86.76070595231047,0,90,3.0,5,0.19094239076928812
6.86,6.55403863487943e-05,86.2113832602049,0,90,3.0,5,0.17961614969494633
6.865,3.701184389455385e-05,85.61598714496203,0,90,3.0,5,0.1673399411332378
6.87,2.0525516217290957e-05,84.98870603231623,0,90,3.0,5,0.15440630994466453
6.875,1.1178128483661116e-05,84.34358109610417,0,90,3.0,5,0.14110476486812729
6.88,5.978135409912517e-06,83.6940007858222,0,90,3.0,5,0.1277113564087051
6.885,3.1396702713238487e-06,83.05226642030458,0,90,3.0,5,0.11447972000627993
6.89,1.6192875458531019e-06,82.4292465496576,0,90,3.0,5,0.1016339494774764
6.895,8.201353897972012e-07,81.83413054256579,0,90,3.0,5,0.08936351634156264
6.9,4.0791415086824765e-07,81.2742845367467,0,90,3.0,5,0.0778202997267362
6.905,1.9923866938774793e-07,80.75520609839504,0,90,3.0,5,0.0671176515132997
6.91,9.556527981051257e-08,80.28056816437005,0,90,3.0,5,0.05733130235814541
6.915,4.501406988770349e-08,79.8523384350145,0,90,3.0,5,0.04850182340236087
6.92,0.0,79.47095752906112,0,90,3.0,5,0.0406382995682706
6.925,0.0,79.1355579274932,0,90,3.0,5,0.03372284386583908
6.93,0.0,78.84420590116895,0,90,3.0,5,0.02771558559111233
6.935,0.0,78.59415000792092,0,90,3.0,5,0.02255979397775085
6.94,0.0,78.38206205733981,0,90,3.0,5,0.01818684654308884
6.945,0.0,78.20425934252283,0,90,3.0,5,0.01452081118603777
6.95,0.0,78.05690009997573,0,90,3.0,5,0.011482476288159484
6.955,0.0,77.93614728935393,0,90,3.0,5,0.00899272761554486
6.96,0.0,77.83829864822604,0,90,3.0,5,0.006975229860330794
6.965,0.0,77.75988340609467,0,90,3.0,5,0.005358420744220059
6.97,0.0,77.69772793951074,0,90,3.0,5,0.0040768647321802395
6.975,0.0,77.6489939843806,0,90,3.0,5,0.0030720409150638275
6.98,0.0,77.61119381491554,0,90,3.0,5,0.002292655977639955
6.985,0.0,77.58218711388949,0,90,3.0,5,0.0016945796678245193
6.99,0.0,77.5601641841833,0,90,3.0,5,0.0012404986429544937
6.995,0.0,77.5436197866701,0,90,3.0,5,0.0008993770447444632
7.0,0.0,77.53132133361025,0,90,3.0,5,0.0006458006929948596
7.005,0.0,77.52227450985573,0,90,3.0,5,0.00045926824444812335
7.01,0.0,77.51568871125951,0,90,3.0,5,0.00032347858267039835
7.015,0.0,77.51094403786472,0,90,3.0,5,0.00022565026525191484
7.02,0.0,77.50756099771273,0,90,3.0,5,0.00015589686005628865
7.025,0.0,77.50517358786546,0,90,3.0,5,0.00010667191475168768
7.03,0.0,77.50350603102491,0,90,3.0,5,7.228929948272585e-05
7.035,0.0,77.50235315688904,0,90,3.0,5,4.85186987431621e-05
7.04,0.0,77.50156421776774,0,90,3.0,5,3.225191273683317e-05
7.045,0.0,77.50102980441392,0,90,3.0,5,2.1233080699332895e-05
7.05,0.0,77.50067146516402,0,90,3.0,5,1.3844642557073384e-05
7.055,0.0,77.50043361413033,0,90,3.0,5,8.940497532573796e-06
7.06,0.0,77.50027732854254,0,90,3.0,5,5.718114279127888e-06
7.065,0.0,77.50017566972248,0,90,3.0,5,3.622056133621037e-06
7.07,0.0,77.50011020732575,0,90,3.0,5,2.272315994784933e-06
7.075,0.0,77.50006847550058,0,90,3.0,5,1.4118659914130177e-06
7.08,0.0,77.50004213773335,0,90,3.0,5,8.688192442323927e-07
7.085,0.0,77.50002568137829,0,90,3.0,5,5.295129544274741e-07
7.09,0.0,77.50001550160579,0,90,3.0,5,3.1962073788554804e-07
7.095,0.0,77.50000926715127,0,90,3.0,5,1.9107528392504315e-07
7.1,0.0,77.50000548689967,0,90,3.0,5,1.1313195189818685e-07
7.105,0.0,77.5000032175032,0,90,3.0,5,6.63402722904683e-08
7.11,0.0,77.50000186862502,0,90,3.0,5,3.852835092890093e-08
7.115,0.001684486749771458,77.50000107482197,0,90,3.0,5,2.2161277660622368e-08
7.12,0.004172395771277602,77.50000061229697,0,90,3.0,5,1.2624679839907763e-08
7.125,0.009438687428818865,77.50000034546089,0,90,3.0,5,7.122904950856818e-09
7.13,0.019500507867137046,77.50000019303981,0,90,3.0,5,3.980202266284698e-09
7.135,0.03679496976339974,77.50000010683316,0,90,3.0,5,2.2027454774287593e-09
7.14,0.06340728953298436,77.50000005855668,0,90,3.0,5,1.2073542166035622e-09
7.145,0.09979255396093453,77.50000003178762,0,90,3.0,5,6.554148747210964e-10
7.15,0.14343835518453557,77.50000001709034,0,90,3.0,5,3.523782136644232e-10
7.155,0.18829581417209276,77.50000000910028,0,90,3.0,5,1.8763455852056666e-10
7.16,0.2257481735193119,77.50000000479922,0,90,3.0,5,9.895296495143185e-11
7.165,0.24718154073554727,77.50000000250667,0,90,3.0,5,5.1683853073591685e-11
7.17,0.24718154074102772,77.50000000129668,0,90,3.0,5,2.673574534728499e-11
7.175,0.22574817354072055,77.50000000066433,0,90,3.0,5,1.3697505901572438e-11
7.18,0.18829581422840957,77.50000000033708,0,90,3.0,5,6.9501334813317844e-12
7.185,0.14343835532456656,77.5000000001694,0,90,3.0,5,3.4926471794888225e-12
7.19,0.09979255431561854,77.50000000008431,0,90,3.0,5,1.7384123922740925e-12
7.195,0.06340729067170194,77.50000000004157,0,90,3.0,5,8.570463926178528e-13
7.2,0.03679497683410042,77.5000000000203,0,90,3.0,5,4.1841444398574145e-13
7.205,0.019500578284482293,77.5000000000098,0,90,3.0,5,2.021750464636986e-13
7.21,0.009439396781978427,77.5000000000047,0,90,3.0,5,9.698542083983223e-14
7.215,0.004178588733610924,77.50000000000223,0,90,3.0,5,4.600214825333432e-14
7.22,0.0017299316936037381,77.50000000000105,0,90,3.0,5,2.1682541214947386e-14
7.225,0.0008997325756988589,77.50000000000048,0,90,3.0,5,9.962248666327177e-15
7.23,0.001634769674224814,77.50000000000023,0,90,3.0,6,4.688117019448084e-15
7.235,0.00614904736476635,77.5000000000001,0,90,3.0,6,2.0510511960085364e-15
7.24,0.02168080359963608,77.50000000000004,0,90,3.0,6,8.790219411465157e-16
7.245,0.06433400338904088,77.50000000000001,0,90,3.0,6,2.9300731371550523e-16
7.25,0.1593410769217493,77.50000000000001,0,90,3.0,6,2.9300731371550523e-16
7.255,0.3291989194808569,77.5,0,90,3.0,6,0.0
7.26,0.5672906802982638,77.5,0,90,3.0,6,0.0
7.265,0.815339152120446,77.5,0,90,3.0,6,0.0
7.27,0.9768711246313155,77.50000284322633,1,90,3.0,6,5.862322322426144e-08
7.275,0.9726380909165361,77.50000534910116,0,90,3.0,6,1.102907455352232e-07
7.28,0.7921091683291741,77.50001063505204,0,90,3.0,6,2.1927942341171353e-07
7.285,0.49139090102639077,77.50002307583767,0,90,3.0,6,4.757904675148218e-07
7.29,0.15739335672107918,77.5000554713907,0,90,3.0,6,1.143740014331155e-06
7.295,-0.11102342218909485,77.50014526993121,0,90,3.0,6,2.9952563136014092e-06
7.3,-0.2314207883647528,77.5003988898635,0,90,3.0,6,8.224533268130659e-06
7.305,-0.2029124434754801,77.5011054659756,0,90,3.0,6,2.279311289893738e-05
7.31,-0.11151350554305876,77.50300976888175,0,90,3.0,6,6.205709034543127e-05
7.315,-0.039430666652076896,77.50792185780857,0,90,3.0,6,0.00016333727440347813
7.32,-0.006087703519843621,77.51997904089026,0,90,3.0,6,0.0004119389874281015
7.325,0.005350271385530551,77.54805187102536,0,90,3.0,6,0.000990760227327109
7.33,0.010381647827441833,77.60993273918042,0,90,3.0,6,0.0022666544160911822
7.335,0.015115203303506243,77.73890414692885,0,90,3.0,6,0.0049258586995638304
7.34,0.021170964062928475,77.99279598451152,0,90,3.0,6,0.01016074194869107
7.345,0.029082821134029553,78.46442565053172,0,90,3.0,6,0.01988506495941697
7.35,0.03923107061708144,79.29027244272471,0,90,3.0,6,0.03691283387061265
7.355,0.051969043308817596,80.65176405432197,0,90,3.0,6,0.06498482586230872
7.36,0.06760532616283861,82.76179436299392,0,90,3.0,6,0.10849060542255515
7.365,0.08636519236693461,85.82984126010565,0,90,3.0,6,0.1717493043320753
7.37,0.10834733138818661,90.00401066771741,0,90,3.0,6,0.257814652942627
7.375,0.1334809643017884,95.29777724070067,0,90,3.0,6,0.3669644791897045
7.38,0.16148868344343945,101.52070486511198,0,90,3.0,6,0.4952722652600408
7.385,0.191860907532018,108.24076061437154,0,90,3.0,6,0.633830115760238
7.39,0.22384764873847726,114.80477932285345,0,90,3.0,6,0.7691707076877
7.395,0.25647215537198226,120.42962228136281,0,90,3.0,6,0.8851468511621198
7.4,0.2885689161419028,124.35209848293255,0,90,3.0,6,0.9660226491326298
7.405,0.31884566517832524,126.0,0,90,3.0,6,1.0
7.41,0.3459657668955683,125.13199699060715,0,90,3.0,6,0.982103030734168
7.415,0.3686441789190902,121.89956504594475,0,90,3.0,6,0.9154549494009228
7.42,0.3857476379544367,116.80934959217932,0,90,3.0,6,0.8105020534469962
7.425,0.3963882865005728,110.59911497723489,0,90,3.0,6,0.6824559789120596
7.43,0.4,104.06935062625563,0,90,3.0,6,0.5478216623970232
7.435,0.39638828650057273,97.92347769263611,0,90,3.0,6,0.421102632837858
7.44,0.38574763795443656,92.65949215512845,0,90,3.0,6,0.3125668485593494
7.445,0.36864417891908974,88.53181629485155,0,90,3.0,6,0.22746012979075364
7.45,0.345965766895568,85.57626122980984,0,90,3.0,6,0.16652085009917206
7.455,0.3188456651783249,83.67383914290984,0,90,3.0,6,0.12729565243113075
7.46,0.28856891614190205,82.62499201165721,0,90,3.0,6,0.1056699383846848
7.465,0.2564721553719815,82.2123239726345,0,90,3.0,6,0.09716131902339162
7.47,0.22384764873847685,82.24122011682826,0,90,3.0,6,0.09775711581089194
7.475,0.19186090753201765,82.5580522820505,0,90,3.0,6,0.10428973777423704
7.48,0.16148868344343878,83.05182219454407,0,90,3.0,6,0.11447056071224893
7.485,0.1334809643017881,83.64676889072895,0,90,3.0,6,0.12673750290162783
7.49,0.10834733138818531,84.29215130262087,0,90,3.0,6,0.1400443567550694
7.495,0.08636519236690572,84.95297587109219,0,90,3.0,6,0.15366960558952975
7.5,0.06760532616242629,85.6032141410097,0,90,3.0,6,0.16707658022700414
7.505,0.05196904332202373,86.22161625213593,0,90,3.0,6,0.17982713921929755
7.51,0.03923107185803287,86.78956826301784,0,90,3.0,6,0.19153748995913075
7.515,0.02908287038705761,87.29030500025087,0,90,3.0,6,0.20186195876805912
7.52,0.02117220077308346,87.70890109634271,0,90,3.0,6,0.21049280611015905
7.525,0.0151361834125735,88.03263653005703,0,90,3.0,6,0.21716776350633057
7.53,0.010626454858290009,88.25148247455117,0,90,3.0,6,0.22168005102167357
7.535,0.007326255555493652,88.35855638009744,0,90,3.0,6,0.22388776041438022
7.54,0.004960179211183015,88.35045923154104,0,90,3.0,6,0.22372080889775336
7.545,0.0032978759379303545,88.22744713680183,0,90,3.0,6,0.2211844770474604
7.55,0.002153242296767213,87.99341542663203,0,90,3.0,6,0.21635908096148507
7.555,0.001380616732225004,87.65569305578572,0,90,3.0,6,0.20939573310898388
7.56,0.0008693106590991584,87.22466123620943,0,90,3.0,6,0.20050847909710162
7.565,0.000537524815942247,86.71322360224083,0,90,3.0,6,0.189963373242079
7.57,0.0003263951340288585,86.13616550482689,0,90,3.0,6,0.17806526814076065
7.575,0.00019463030985187395,85.50944672085147,0,90,3.0,6,0.1651432313577623
7.58,0.00011397219555062695,84.84947457720351,0,90,3.0,6,0.15153555829285587
7.585,6.55403863487943e-05,84.17240320268115,0,90,3.0,6,0.1375753237666217
7.59,3.701184389455385e-05,83.49349969202193,0,90,3.0,6,0.12357731323756552
7.595,2.0525516217290957e-05,82.8266100918151,0,90,3.0,6,0.10982701220237316
7.6,1.1178128483661116e-05,82.18374823881719,0,90,3.0,6,0.09657212863540593
7.605,5.978135409912517e-06,81.57481966179543,0,90,3.0,6,0.08401690024320475
7.61,3.1396702713238487e-06,81.00748205938964,0,90,3.0,6,0.07231921771937412
7.615,1.6192875458531019e-06,80.48713423047259,0,90,3.0,6,0.061590396504589515
7.62,8.201353897972012e-07,80.01701749313209,0,90,3.0,6,0.051897267899630665
7.625,4.0791415086824765e-07,79.59840805263835,0,90,3.0,6,0.04326614541522367
7.63,1.9923866938774793e-07,79.23087565482302,0,90,3.0,6,0.03568815783140255
7.635,9.556527981051257e-08,78.91258311223406,0,90,3.0,6,0.029125424994516702
7.64,4.501406988770349e-08,78.64060262096777,0,90,3.0,6,0.023517579813768435
7.645,0.0,78.41122774696173,0,90,3.0,6,0.018788200968283056
7.65,0.0,78.22026402057521,0,90,3.0,6,0.01485080454794257
7.655,0.0,78.06328569392375,0,90,3.0,6,0.0116141380190463
7.66,0.0,77.93585088962875,0,90,3.0,6,0.00898661628100522
7.665,0.0,77.83367169477451,0,90,3.0,6,0.006879828758237296
7.67,0.0,77.75273943637394,0,90,3.0,6,0.005211122399462747
7.675,0.0,77.68940824197168,0,90,3.0,6,0.0039053245767356024
7.68,0.0,77.64044198158881,0,90,3.0,6,0.0028957109605939712
7.685,0.0,77.60303083963844,0,90,3.0,6,0.00212434720903991
7.69,0.0,77.57478418147271,0,90,3.0,6,0.0015419418860352196
7.695,0.0,77.55370620498225,0,90,3.0,6,0.001107344432623672
7.7,0.0,77.53816026664151,0,90,3.0,6,0.0007868096214744733
7.705,0.0,77.5268269037557,0,90,3.0,6,0.0005531320362000976
7.71,0.0,77.51865958225872,0,90,3.0,6,0.00038473365481898506
7.715,0.0,77.51284119666562,0,90,3.0,6,0.00026476694155915014
7.72,0.0,77.50874341903805,0,90,3.0,6,0.00018027668119700757
7.725,0.0,77.505890189993,0,90,3.0,6,0.00012144721635044119
7.73,0.0,77.50392599307456,0,90,3.0,6,8.09483108156721e-05
7.735,0.0,77.50258905913398,0,90,3.0,6,5.338266255632296e-05
7.74,0.0,77.5016892993909,0,90,3.0,6,3.483091527636903e-05
7.745,0.0,77.50109054476202,0,90,3.0,6,2.2485459010757733e-05
7.75,0.0,77.50069655045753,0,90,3.0,6,1.436186510378067e-05
7.755,0.0,77.50044018362493,0,90,3.0,6,9.075951029515017e-06
7.76,0.0,77.50027522469445,0,90,3.0,6,5.674735968003793e-06
7.765,0.0,77.50017026019599,0,90,3.0,6,3.510519504872493e-06
7.77,0.0,77.50010421040284,0,90,3.0,6,2.1486680997647275e-06
7.775,0.0,77.50006310753771,0,90,3.0,6,1.3011863445954827e-06
7.78,0.0,77.5000378114743,0,90,3.0,6,7.796180268049977e-07
7.785,0.0,77.50002241497207,0,90,3.0,6,4.6216437247672616e-07
7.79,0.0,77.5000131469499,0,90,3.0,6,2.710711318914693e-07
7.795,0.0,77.50000762928833,0,90,3.0,6,1.57304914093458e-07
7.8,0.0,77.50000438041506,0,90,3.0,6,9.031783636216751e-08
7.805,0.001684486749771458,77.50000248839153,0,90,3.0,6,5.1307041859058467e-08
7.81,0.004172395771277602,77.50000139860276,0,90,3.0,6,2.8837170360667496e-08
7.815,0.009438687428818865,77.50000077775401,0,90,3.0,6,1.6036165165526644e-08
7.82,0.019500507867137046,77.50000042791977,0,90,3.0,6,8.823088092895821e-09
7.825,0.03679496976339974,77.50000023294568,0,90,3.0,6,4.803003722119365e-09
7.83,0.06340728953298436,77.50000012546401,0,90,3.0,6,2.586886855929198e-09
7.835,0.09979255396093453,77.50000006685839,0,90,3.0,6,1.3785235221371999e-09
7.84,0.14343835518453557,77.50000003525047,0,90,3.0,6,7.268137248980359e-10
7.845,0.18829581417209276,77.50000001838849,0,90,3.0,6,3.791441387650209e-10
7.85,0.2257481735193119,77.50000000949072,0,90,3.0,6,1.9568493446490017e-10
7.855,0.24718154073554727,77.50000000484647,0,90,3.0,6,9.99272142695359e-11
7.86,0.24718154074102772,77.50000000244863,0,90,3.0,6,5.048721120437756e-11
7.865,0.22574817354072055,77.50000000122404,0,90,3.0,6,2.5237891959571327e-11
7.87,0.18829581422840957,77.50000000060538,0,90,3.0,6,1.2482111564280523e-11
7.875,0.14343835532456656,77.50000000029624,0,90,3.0,6,6.108030461713422e-12
7.88,0.09979255431561854,77.50000000014343,0,90,3.0,6,2.9573228173305944e-12
7.885,0.06340729067170194,77.50000000006871,0,90,3.0,6,1.4166903618144677e-12
7.89,0.03679497683410042,77.50000000003256,0,90,3.0,6,6.712797557222225e-13
7.895,0.019500578284482293,77.50000000001526,0,90,3.0,6,3.146898549304526e-13
7.9,0.009439396781978427,77.50000000000708,0,90,3.0,6,1.4591764223032162e-13
7.905,0.004178588733610924,77.50000000000325,0,90,3.0,6,6.70986748408507e-14
7.91,0.0017299316936037381,77.50000000000148,0,90,3.0,6,3.047276062641254e-14
7.915,0.0008997325756988589,77.50000000000067,0,90,3.0,6,1.3771343744628746e-14
7.92,0.001634769674224814,77.5000000000003,0,90,3.0,6,6.15315358802561e-15
7.925,0.00614904736476635,77.50000000000013,0,90,3.0,6,2.637065823439547e-15
7.93,0.02168080359963608,77.50000000000006,0,90,3.0,6,1.172029254862021e-15
7.935,0.06433400338904088,77.50000000000003,0,90,3.0,6,5.860146274310105e-16
7.94,0.1593410769217493,77.50000000000001,0,90,3.0,6,2.9300731371550523e-16
7.945,0.3291989194808569,77.5,0,90,3.0,6,0.0
7.95,0.5672906802982638,77.5,0,90,3.0,6,0.0
7.955,0.815339152120446,77.5,0,90,3.0,6,0.0
7.96,0.9768711246313155,77.50000285676417,1,90,3.0,6,5.8902354004606695e-08
7.965,0.9726380909165361,77.50000597579871,0,90,3.0,6,1.2321234462949187e-07
7.97,0.7921091683291741,77.50001356552342,0,90,3.0,6,2.7970151376225144e-07
7.975,0.49139090102639077,77.50003497746438,0,90,3.0,6,7.211848325950246e-07
7.98,0.15739335672107918,77.5001028295484,0,90,3.0,6,2.120196874149357e-06
7.985,-0.11102342218909485,77.50032857627353,0,90,3.0,6,6.774768526426116e-06
7.99,-0.2314207883647528,77.50107318995177,0,90,3.0,6,2.212762787150458e-05
7.995,-0.2029124434754801,77.50342722585395,0,90,3.0,6,7.066445059699992e-05
8.0,-0.11151350554305876,77.51043915786184,0,90,3.0,6,0.00021524036828534065
8.005,-0.039430666652076896,77.52995417374301,0,90,3.0,6,0.0006176118297527334
8.01,-0.006087703519843621,77.58048363866507,0,90,3.0,6,0.0016594564673210726
8.015,0.005350271385530551,77.70190353972639,0,90,3.0,6,0.004162959581987377
8.02,0.010381647827441833,77.9722066886246,0,90,3.0,6,0.009736220384012277
8.025,0.015115203303506243,78.52883723691323,0,90,3.0,6,0.02121313890542749
8.03,0.021170964062928475,79.58744640825846,0,90,3.0,6,0.04304013212904037
8.035,0.029082821134029553,81.44316199336016,0,90,3.0,6,0.08130230914144668
8.04,0.03923107061708144,84.43398868669256,0,90,3.0,6,0.1429688389008775
8.045,0.051969043308817596,88.85019363942794,0,90,3.0,6,0.2340246111222256
8.05,0.06760532616283861,94.7938714694461,0,90,3.0,6,0.3565746694731155
8.055,0.08636519236693461,102.02720152947737,0,90,3.0,6,0.5057154954531415
8.06,0.10834733138818661,109.88014675588812,0,90,3.0,6,0.6676318918739819
8.065,0.1334809643017884,117.29290180342403,0,90,3.0,6,0.8204722021324542
8.07,0.16148868344343945,123.0269677988685,0,90,3.0,6,0.9387003669869793
8.075,0.191860907532018,126.0,0,90,3.0,6,1.0
8.08,0.22384764873847726,125.62371847231691,0,90,3.0,6,0.9922416179859157
8.085,0.25647215537198226,122.00127964141313,0,90,3.0,6,0.91755215755491
8.09,0.2885689161419028,115.8942005025768,0,90,3.0,6,0.7916330000531298
8.095,0.31884566517832524,108.47408490095529,0,90,3.0,6,0.6386409257928926
8.1,0.3459657668955683,100.9706790088459,0,90,3.0,6,0.4839315259555857
8.105,0.3686441789190902,94.36101382665612,0,90,3.0,6,0.3476497696217757
8.11,0.3857476379544367,89.2030180856508,0,90,3.0,6,0.2412993419721814
8.115,0.3963882865005728,85.63519025775187,0,90,3.0,6,0.1677358816031314
8.12,0.4,83.49252208582134,0,90,3.0,6,0.12355715640868732
8.125,0.39638828650057273,82.46051258424505,0,90,3.0,6,0.10227860998443405
8.13,0.38574763795443656,82.2037286051027,0,90,3.0,6,0.09698409495057107
8.135,0.36864417891908974,82.44053007862519,0,90,3.0,6,0.1018665995592822
8.14,0.345965766895568,82.9670753901127,0,90,3.0,6,0.11272320391984943
8.145,0.3188456651783249,83.64938531699276,0,90,3.0,6,0.12679144983490234
8.15,0.28856891614190205,84.40302826020769,0,90,3.0,6,0.14233047959191114
8.155,0.2564721553719815,85.17322761248187,0,90,3.0,6,0.15821087860787353
8.16,0.22384764873847685,85.92070708946643,0,90,3.0,6,0.17362282658693676
8.165,0.19186090753201765,86.61369544823104,0,90,3.0,6,0.1879112463552792
8.17,0.16148868344343878,87.22447800411031,0,90,3.0,6,0.2005047011156765
8.175,0.1334809643017881,87.72864249984536,0,90,3.0,6,0.21089984535763637
8.18,0.10834733138818531,88.10562810276168,0,90,3.0,6,0.21867274438683887
8.185,0.08636519236690572,88.33971603156166,0,90,3.0,6,0.22349929961982815
8.19,0.06760532616242629,88.42098031514153,0,90,3.0,6,0.22517485185858835
8.195,0.05196904332202373,88.3459434177633,0,90,3.0,6,0.22362769933532567
8.2,0.03923107185803287,88.11781090723721,0,90,3.0,6,0.21892393623169512
8.205,0.02908287038705761,87.74624109913799,0,90,3.0,6,0.2112627030750101
8.21,0.02117220077308346,87.2466660189184,0,90,3.0,6,0.20096218595708049
8.215,0.0151361834125735,86.63922833639852,0,90,3.0,6,0.18843769765770138
8.22,0.010626454858290009,85.94743581358989,0,90,3.0,6,0.1741739343008225
8.225,0.007326255555493652,85.19665823503733,0,90,3.0,6,0.1586939842275739
8.23,0.004960179211183015,84.41260010523945,0,90,3.0,6,0.14252783722143192
8.235,0.0032978759379303545,83.61987559820312,0,90,3.0,6,0.12618300202480667
8.24,0.002153242296767213,82.84079223906735,0,90,3.0,6,0.11011942760963618
8.245,0.001380616732225004,82.09442009731812,0,90,3.0,6,0.09473031128490972
8.25,0.0008693106590991584,81.39598836660922,0,90,3.0,6,0.080329657043489
8.255,0.000537524815942247,80.75661582638531,0,90,3.0,6,0.06714671806980028
8.26,0.0003263951340288585,80.1833500803319,0,90,3.0,6,0.05532680578003929
8.265,0.00019463030985187395,79.67946586996223,0,90,3.0,6,0.044937440617777914
8.27,0.00011397219555062695,79.24495703495197,0,90,3.0,6,0.03597849556601992
8.275,6.55403863487943e-05,78.87715027435881,0,90,3.0,6,0.028394851017707456
8.28,3.701184389455385e-05,78.57137092730025,0,90,3.0,6,0.022090122212376304
8.285,2.0525516217290957e-05,78.3215997732229,0,90,3.0,6,0.016940201509750515
8.29,1.1178128483661116e-05,78.12107306297722,0,90,3.0,6,0.012805630164478705
8.295,5.978135409912517e-06,77.96279323900905,0,90,3.0,6,0.009542128639361753
8.3,3.1396702713238487e-06,77.83993293743072,0,90,3.0,6,0.007008926544963241
8.305,1.6192875458531019e-06,77.74612822394465,0,90,3.0,6,0.005074808741126842
8.31,8.201353897972012e-07,77.67566753930957,0,90,3.0,6,0.003622011119784988
8.315,4.0791415086824765e-07,77.62359006118383,0,90,3.0,6,0.0025482486842027465
8.32,1.9923866938774793e-07,77.58571118626367,0,90,3.0,6,0.0017672409538900143
8.325,9.556527981051257e-08,77.55859403333916,0,90,3.0,6,0.0012081243987456065
8.33,4.501406988770349e-08,77.53948491533247,0,90,3.0,6,0.0008141219656178489
8.335,0.0,77.52622834922965,0,90,3.0,6,0.0005407907057660757
8.34,0.0,77.51717404646297,0,90,3.0,6,0.0003541040507828716
8.345,0.0,77.51108501381437,0,90,3.0,6,0.0002285569858632187
8.35,0.0,77.50705280332339,0,90,3.0,6,0.00014541862522453333
8.355,0.0,77.50442332894124,0,90,3.0,6,9.1202658582334e-05
8.36,0.0,77.50273463035334,0,90,3.0,6,5.638413099680143e-05
8.365,0.0,77.50166651778338,0,90,3.0,6,3.4361191409839806e-05
8.37,0.0,77.50100111323763,0,90,3.0,6,2.064151005432689e-05
8.375,0.0,77.50059281390932,0,90,3.0,6,1.2222967202503532e-05
8.38,0.0,77.50034603138842,0,90,3.0,6,7.1346678024247484e-06
8.385,0.0,77.50019910150137,0,90,3.0,6,4.105185595171486e-06
8.39,0.0,77.50011292640531,0,90,3.0,6,2.328379490880196e-06
8.395,0.0,77.50006313619457,0,90,3.0,6,1.3017772076149338e-06
8.4,0.001684486749771458,77.50003479551185,0,90,3.0,6,7.17433234048886e-07
8.405,0.004172395771277602,77.50001890296744,0,90,3.0,6,3.897519059840484e-07
8.41,0.009438687428818865,77.50001012275375,0,90,3.0,6,2.087165721628274e-07
8.415,0.019500507867137046,77.50000534354274,0,90,3.0,6,1.1017613894754383e-07
8.42,0.03679496976339974,77.50000278049316,0,90,3.0,6,5.7329755916200773e-08
8.425,0.06340728953298436,77.50000142618646,0,90,3.0,6,2.9405906346808705e-08
8.43,0.09979255396093453,77.50000072109538,0,90,3.0,6,1.4867945884764867e-08
8.435,0.14343835518453557,77.50000035939418,0,90,3.0,7,7.410189245720832e-09
8.44,0.18829581417209276,77.50000017656772,0,90,3.0,7,3.6405716288107815e-09
8.445,0.2257481735193119,77.50000008550933,0,90,3.0,7,1.7630789199719187e-09
8.45,0.24718154073554727,77.50000004082044,0,90,3.0,7,8.416585275234556e-10
8.455,0.24718154074102772,77.50000001920895,0,90,3.0,7,3.960609160223856e-10
8.46,0.22574817354072055,77.50000000891029,0,90,3.0,7,1.8371734374350407e-10
8.465,0.18829581422840957,77.5000000040742,0,90,3.0,7,8.400402481298048e-11
8.47,0.14343835532456656,77.50000000183634,0,90,3.0,7,3.78626980856313e-11
8.475,0.09979255431561854,77.50000000081589,0,90,3.0,7,1.68224289023483e-11
8.48,0.06340729067170194,77.50000000035732,0,90,3.0,7,7.367375896062664e-12
8.485,0.03679497683410042,77.50000000015426,0,90,3.0,7,3.180594390381809e-12
8.49,0.019500578284482293,77.50000000006564,0,90,3.0,7,1.3534007820519186e-12
8.495,0.009439396781978427,77.50000000002754,0,90,3.0,7,5.678481739806491e-13
8.5,0.004178588733610924,77.50000000001138,0,90,3.0,7,2.346988582861197e-13
8.505,0.0017299316936037381,77.50000000000465,0,90,3.0,7,9.581339158497021e-14
8.51,0.0008997325756988589,77.50000000000186,0,90,3.0,7,3.838395809673119e-14
8.515,0.001634769674224814,77.50000000000074,0,90,3.0,7,1.523638031320627e-14
8.52,0.00614904736476635,77.50000000000028,0,90,3.0,7,5.860146274310104e-15
8.525,0.02168080359963608,77.50000000000011,0,90,3.0,7,2.344058509724042e-15
8.53,0.06433400338904088,77.50000000000004,0,90,3.0,7,8.790219411465157e-16
8.535,0.1593410769217493,77.50000000000001,0,90,3.0,7,2.9300731371550523e-16
8.54,0.3291989194808569,77.5,0,90,3.0,7,0.0
8.545,0.5672906802982638,77.5,0,90,3.0,7,0.0
8.55,0.815339152120446,77.5,0,90,3.0,7,0.0
8.555,0.9768711246313155,77.50000285825222,1,90,3.0,7,5.8933035386440475e-08
8.56,0.9726380909165361,77.50000594036287,0,90,3.0,7,1.224817086241864e-07
8.565,0.7921091683291741,77.50001337402189,0,90,3.0,7,2.757530286586545e-07
8.57,0.49139090102639077,77.50003411114669,0,90,3.0,7,7.033226121545818e-07
8.575,0.15739335672107918,77.50009905101307,0,90,3.0,7,2.0422889292017928e-06
8.58,-0.11102342218909485,77.50031282604864,0,90,3.0,7,6.450021621485013e-06
8.585,-0.2314207883647528,77.50101180394222,0,90,3.0,7,2.0861936952980576e-05
8.59,-0.2029124434754801,77.50320628067372,0,90,3.0,7,6.610887987057675e-05
8.595,-0.11151350554305876,77.5097083342598,0,90,3.0,7,0.0002001718404082131
8.6,-0.039430666652076896,77.52773550414375,0,90,3.0,7,0.0005718660648195631
8.605,-0.006087703519843621,77.57430149812981,0,90,3.0,7,0.0015319896521610954
8.61,0.005350271385530551,77.68608776188607,0,90,3.0,7,0.0038368610698159018
8.615,0.010381647827441833,77.93505151613147,0,90,3.0,7,0.008970134353226106
8.62,0.015115203303506243,78.44869900131016,0,90,3.0,7,0.019560804150724958
8.625,0.021170964062928475,79.42886553050614,0,90,3.0,7,0.03977042330940503
8.63,0.029082821134029553,81.15564224728983,0,90,3.0,7,0.07537406695442955
8.635,0.03923107061708144,83.95743100629066,0,90,3.0,7,0.1331429073461992
8.64,0.051969043308817596,88.13067751083202,0,90,3.0,7,0.21918922702746424
8.645,0.06760532616283861,93.80996484958598,0,90,3.0,7,0.3362879350430099
8.65,0.08636519236693461,100.82021919530587,0,90,3.0,7,0.48082926175888385
8.655,0.10834733138818661,108.5746424352862,0,90,3.0,7,0.6407142770162102
8.66,0.1334809643017884,116.09149675272828,0,90,3.0,7,0.7957009639737789
8.665,0.16148868344343945,122.1708699381281,0,90,3.0,7,0.9210488647036723
8.67,0.191860907532018,125.70242168485359,0,90,3.0,7,0.9938643646361565
8.675,0.22384764873847726,126.0,0,90,3.0,7,1.0
8.68,0.25647215537198226,123.02595539656775,0,90,3.0,7,0.9386794927127372
8.685,0.2885689161419028,117.40540703112458,0,90,3.0,7,0.8227918975489604
8.69,0.31884566517832524,110.22390458902505,0,90,3.0,7,0.6747196822479392
8.695,0.3459657668955683,102.6988702200439,0,90,3.0,7,0.5195643344338948
8.7,0.3686441789190902,95.86131478539745,0,90,3.0,7,0.3785838100081949
8.705,0.3857476379544367,90.35920588711383,0,90,3.0,7,0.2651382657136872
8.71,0.3963882865005728,86.42147190082585,0,90,3.0,7,0.18394787424383197
8.715,0.4,83.94856219402728,0,90,3.0,7,0.13296004523767577
8.72,0.39638828650057273,82.65797428518042,0,90,3.0,7,0.10634998526145187
8.725,0.38574763795443656,82.2182852697095,0,90,3.0,7,0.09728423236514427
8.73,0.36864417891908974,82.33567972165656,0,90,3.0,7,0.09970473652900126
8.735,0.345965766895568,82.78912793599538,0,90,3.0,7,0.10905418424732745
8.74,0.3188456651783249,83.42948059532878,0,90,3.0,7,0.12225733186244914
8.745,0.28856891614190205,84.16183548499009,0,90,3.0,7,0.13735743268020809
8.75,0.2564721553719815,84.9254687356599,0,90,3.0,7,0.1531024481579362
8.755,0.22384764873847685,85.67831436291021,0,90,3.0,7,0.16862503841051987
8.76,0.19186090753201765,86.38751009403914,0,90,3.0,7,0.18324763080493078
8.765,0.16148868344343878,87.02485660821559,0,90,3.0,7,0.19638879604568218
8.77,0.1334809643017881,87.56539713454409,0,90,3.0,7,0.20753396153699144
8.775,0.10834733138818531,87.98762906708204,0,90,3.0,7,0.2162397745790111
8.78,0.08636519236690572,88.2743731604016,0,90,3.0,7,0.22215202392580607
8.785,0.06760532616242629,88.41373774873865,0,90,3.0,7,0.22502552059254957
8.79,0.05196904332202373,88.39987340594568,0,90,3.0,7,0.2247396578545502
8.795,0.03923107185803287,88.23336128795665,0,90,3.0,7,0.22130641830838463
