Time,ECG,Pressure,R_Peaks,mean_hr,hrv_scale,Phase_Bin,Normalized_Pressure
0.0,0.001684486749771458,77.5,0,90,3.0,0,0.0
0.005,0.004172395771277602,77.5,0,90,3.0,0,0.0
0.01,0.009438687428818865,77.5,0,90,3.0,0,0.0
0.015,0.019500507867137046,77.5,0,90,3.0,0,0.0
0.02,0.03679496976339974,77.5,0,90,3.0,0,0.0
0.025,0.06340728953298436,77.5,0,90,3.0,0,0.0
0.03,0.09979255396093453,77.5,0,90,3.0,0,0.0
0.035,0.14343835518453557,77.5,0,90,3.0,0,0.0
0.04,0.18829581417209276,77.5,0,90,3.0,0,0.0
0.045,0.2257481735193119,77.5,0,90,3.0,0,0.0
0.05,0.24718154073554727,77.5,0,90,3.0,0,0.0
0.055,0.24718154074102772,77.5,0,90,3.0,0,0.0
0.06,0.22574817354072055,77.5,0,90,3.0,0,0.0
0.065,0.18829581422840957,77.5,0,90,3.0,0,0.0
0.07,0.14343835532456656,77.5,0,90,3.0,0,0.0
0.075,0.09979255431561854,77.5,0,90,3.0,0,0.0
0.08,0.06340729067170194,77.5,0,90,3.0,0,0.0
0.085,0.03679497683410042,77.5,0,90,3.0,0,0.0
0.09,0.019500578284482293,77.5,0,90,3.0,0,0.0
0.095,0.009439396781978427,77.5,0,90,3.0,0,0.0
0.1,0.004178588733610924,77.5,0,90,3.0,0,0.0
0.105,0.0017299316936037381,77.5,0,90,3.0,0,0.0
0.11,0.0008997325756988589,77.5,0,90,3.0,0,0.0
0.115,0.001634769674224814,77.5,0,90,3.0,0,0.0
0.12,0.00614904736476635,77.5,0,90,3.0,0,0.0
0.125,0.02168080359963608,77.5,0,90,3.0,0,0.0
0.13,0.06433400338904088,77.5,0,90,3.0,0,0.0
0.135,0.1593410769217493,77.5,0,90,3.0,0,0.0
0.14,0.3291989194808569,77.5,0,90,3.0,0,0.0
0.145,0.5672906802982638,77.5,0,90,3.0,0,0.0
0.15,0.815339152120446,77.5,0,90,3.0,0,0.0
0.155,0.9768711246313155,77.5,0,90,3.0,0,0.0
0.16,0.9726380909165361,77.5,0,90,3.0,0,0.0
0.165,0.7921091683291741,77.5,0,90,3.0,0,0.0
0.17,0.49139090102639077,77.5,0,90,3.0,0,0.0
0.175,0.15739335672107918,77.5,0,90,3.0,0,0.0
0.18,-0.11102342218909485,77.5,0,90,3.0,0,0.0
0.185,-0.2314207883647528,77.5,0,90,3.0,0,0.0
0.19,-0.2029124434754801,77.5,0,90,3.0,0,0.0
0.195,-0.11151350554305876,77.5,0,90,3.0,0,0.0
0.2,-0.039430666652076896,77.5,0,90,3.0,0,0.0
0.205,-0.006087703519843621,77.5,0,90,3.0,0,0.0
0.21,0.005350271385530551,77.5,0,90,3.0,0,0.0
0.215,0.010381647827441833,77.5,0,90,3.0,0,0.0
0.22,0.015115203303506243,77.5,0,90,3.0,0,0.0
0.225,0.021170964062928475,77.5,0,90,3.0,0,0.0
0.23,0.029082821134029553,77.5,0,90,3.0,0,0.0
0.235,0.03923107061708144,77.5,0,90,3.0,0,0.0
0.24,0.051969043308817596,77.5,0,90,3.0,0,0.0
0.245,0.06760532616283861,77.5,0,90,3.0,0,0.0
0.25,0.08636519236693461,77.5,0,90,3.0,0,0.0
0.255,0.10834733138818661,77.5,0,90,3.0,0,0.0
0.26,0.1334809643017884,77.5,0,90,3.0,0,0.0
0.265,0.16148868344343945,77.5,0,90,3.0,0,0.0
0.27,0.191860907532018,77.5,0,90,3.0,0,0.0
0.275,0.22384764873847726,77.5,0,90,3.0,0,0.0
0.28,0.25647215537198226,77.5,0,90,3.0,0,0.0
0.285,0.2885689161419028,77.5,0,90,3.0,0,0.0
0.29,0.31884566517832524,77.5,0,90,3.0,0,0.0
0.295,0.3459657668955683,77.5,0,90,3.0,0,0.0
0.3,0.3686441789190902,77.5,0,90,3.0,0,0.0
0.305,0.3857476379544367,77.5,0,90,3.0,0,0.0
0.31,0.3963882865005728,77.5,0,90,3.0,0,0.0
0.315,0.4,77.5,0,90,3.0,0,0.0
0.32,0.39638828650057273,77.5,0,90,3.0,0,0.0
0.325,0.38574763795443656,77.5,0,90,3.0,0,0.0
0.33,0.36864417891908974,77.5,0,90,3.0,0,0.0
0.335,0.345965766895568,77.5,0,90,3.0,0,0.0
0.34,0.3188456651783249,77.5,0,90,3.0,0,0.0
0.345,0.28856891614190205,77.5,0,90,3.0,0,0.0
0.35,0.2564721553719815,77.5,0,90,3.0,0,0.0
0.355,0.22384764873847685,77.5,0,90,3.0,0,0.0
0.36,0.19186090753201765,77.5,0,90,3.0,0,0.0
0.365,0.16148868344343878,77.5,0,90,3.0,0,0.0
0.37,0.1334809643017881,77.5,0,90,3.0,0,0.0
0.375,0.10834733138818531,77.5,0,90,3.0,0,0.0
0.38,0.08636519236690572,77.5,0,90,3.0,0,0.0
0.385,0.06760532616242629,77.5,0,90,3.0,0,0.0
0.39,0.05196904332202373,77.5,0,90,3.0,0,0.0
0.395,0.03923107185803287,77.5,0,90,3.0,0,0.0
0.4,0.02908287038705761,77.5,0,90,3.0,0,0.0
0.405,0.02117220077308346,77.5,0,90,3.0,0,0.0
0.41,0.0151361834125735,77.5,0,90,3.0,0,0.0
0.415,0.010626454858290009,77.5,0,90,3.0,0,0.0
0.42,0.007326255555493652,77.5,0,90,3.0,0,0.0
0.425,0.004960179211183015,77.5,0,90,3.0,0,0.0
0.43,0.0032978759379303545,77.5,0,90,3.0,0,0.0
0.435,0.002153242296767213,77.5,0,90,3.0,0,0.0
0.44,0.001380616732225004,77.5,0,90,3.0,0,0.0
0.445,0.0008693106590991584,77.5,0,90,3.0,0,0.0
0.45,0.000537524815942247,77.5,0,90,3.0,0,0.0
0.455,0.0003263951340288585,77.5,0,90,3.0,0,0.0
0.46,0.00019463030985187395,77.5,0,90,3.0,0,0.0
0.465,0.00011397219555062695,77.5,0,90,3.0,0,0.0
0.47,6.55403863487943e-05,77.5,0,90,3.0,0,0.0
0.475,3.701184389455385e-05,77.5,0,90,3.0,0,0.0
0.48,2.0525516217290957e-05,77.5,0,90,3.0,0,0.0
0.485,1.1178128483661116e-05,77.5,0,90,3.0,0,0.0
0.49,5.978135409912517e-06,77.5,0,90,3.0,0,0.0
0.495,3.1396702713238487e-06,77.5,0,90,3.0,0,0.0
0.5,1.6192875458531019e-06,77.5,0,90,3.0,0,0.0
0.505,8.201353897972012e-07,77.5,0,90,3.0,0,0.0
0.51,4.0791415086824765e-07,77.5,0,90,3.0,0,0.0
0.515,1.9923866938774793e-07,77.5,0,90,3.0,0,0.0
0.52,9.556527981051257e-08,77.5,0,90,3.0,0,0.0
0.525,4.501406988770349e-08,77.5,0,90,3.0,0,0.0
0.53,0.0,77.5,0,90,3.0,0,0.0
0.535,0.0,77.5,0,90,3.0,0,0.0
0.54,0.0,77.5,0,90,3.0,0,0.0
0.545,0.0,77.5,0,90,3.0,0,0.0
0.55,0.0,77.5,0,90,3.0,0,0.0
0.555,0.0,77.5,0,90,3.0,0,0.0
0.56,0.0,77.5,0,90,3.0,0,0.0
0.565,0.0,77.5,0,90,3.0,0,0.0
0.57,0.0,77.5,0,90,3.0,0,0.0
0.575,0.0,77.5,0,90,3.0,0,0.0
0.58,0.0,77.5,0,90,3.0,0,0.0
0.585,0.0,77.5,0,90,3.0,0,0.0
0.59,0.0,77.5,0,90,3.0,0,0.0
0.595,0.0,77.5,0,90,3.0,0,0.0
0.6,0.0,77.5,0,90,3.0,0,0.0
0.605,0.0,77.5,0,90,3.0,0,0.0
0.61,0.0,77.5,0,90,3.0,0,0.0
0.615,0.0,77.5,0,90,3.0,0,0.0
0.62,0.0,77.5,0,90,3.0,0,0.0
0.625,0.0,77.5,0,90,3.0,0,0.0
0.63,0.0,77.5,0,90,3.0,0,0.0
0.635,0.0,77.5,0,90,3.0,0,0.0
0.64,0.0,77.5,0,90,3.0,0,0.0
0.645,0.0,77.5,0,90,3.0,0,0.0
0.65,0.0,77.5,0,90,3.0,0,0.0
0.655,0.0,77.5,0,90,3.0,0,0.0
0.66,0.0,77.5,0,90,3.0,0,0.0
0.665,0.0,77.5,0,90,3.0,0,0.0
0.67,0.0,77.5,0,90,3.0,0,0.0
0.675,0.0,77.5,0,90,3.0,0,0.0
0.68,0.0,77.5,0,90,3.0,0,0.0
0.685,0.0,77.5,0,90,3.0,0,0.0
0.69,0.001684486749771458,77.5,0,90,3.0,0,0.0
0.695,0.004172395771277602,77.5,0,90,3.0,0,0.0
0.7,0.009438687428818865,77.5,0,90,3.0,0,0.0
0.705,0.019500507867137046,77.5,0,90,3.0,0,0.0
0.71,0.03679496976339974,77.5,0,90,3.0,0,0.0
0.715,0.06340728953298436,77.5,0,90,3.0,0,0.0
0.72,0.09979255396093453,77.5,0,90,3.0,0,0.0
0.725,0.14343835518453557,77.5,0,90,3.0,0,0.0
0.73,0.18829581417209276,77.5,0,90,3.0,0,0.0
0.735,0.2257481735193119,77.5,0,90,3.0,0,0.0
0.74,0.24718154073554727,77.5,0,90,3.0,0,0.0
0.745,0.24718154074102772,77.5,0,90,3.0,0,0.0
0.75,0.22574817354072055,77.5,0,90,3.0,0,0.0
0.755,0.18829581422840957,77.5,0,90,3.0,0,0.0
0.76,0.14343835532456656,77.5,0,90,3.0,0,0.0
0.765,0.09979255431561854,77.5,0,90,3.0,0,0.0
0.77,0.06340729067170194,77.5,0,90,3.0,0,0.0
0.775,0.03679497683410042,77.5,0,90,3.0,0,0.0
0.78,0.019500578284482293,77.5,0,90,3.0,0,0.0
0.785,0.009439396781978427,77.5,0,90,3.0,0,0.0
0.79,0.004178588733610924,77.5,0,90,3.0,0,0.0
0.795,0.0017299316936037381,77.5,0,90,3.0,0,0.0
0.8,0.0008997325756988589,77.5,0,90,3.0,0,0.0
0.805,0.001634769674224814,77.5,0,90,3.0,0,0.0
0.81,0.00614904736476635,77.5,0,90,3.0,0,0.0
0.815,0.02168080359963608,77.5,0,90,3.0,0,0.0
0.82,0.06433400338904088,77.5,0,90,3.0,0,0.0
0.825,0.1593410769217493,77.5,0,90,3.0,0,0.0
0.83,0.3291989194808569,77.5,0,90,3.0,0,0.0
0.835,0.5672906802982638,77.5,0,90,3.0,0,0.0
0.84,0.815339152120446,77.5,0,90,3.0,0,0.0
0.845,0.9768711246313155,77.50000284517176,1,90,3.0,0,5.866333533949447e-08
0.85,0.9726380909165361,77.50000599086852,0,90,3.0,0,1.235230621842703e-07
0.855,0.7921091683291741,77.50001371504612,0,90,3.0,0,2.827844561401547e-07
0.86,0.49139090102639077,77.50003575767096,0,90,3.0,0,7.372715661347815e-07
0.865,0.15739335672107918,77.50010645385059,0,90,3.0,0,2.1949247544637626e-06
0.87,-0.11102342218909485,77.50034420257653,0,90,3.0,0,7.096960340785952e-06
0.875,-0.2314207883647528,77.50113535267691,0,90,3.0,0,2.3409333544563685e-05
0.88,-0.2029124434754801,77.5036539979212,0,90,3.0,0,7.534016332381715e-05
0.885,-0.11151350554305876,77.51119612985639,0,90,3.0,0,0.0002308480382760198
0.89,-0.039430666652076896,77.5322660631709,0,90,3.0,0,0.0006652796530081278
0.895,-0.006087703519843621,77.58694783499028,0,90,3.0,0,0.0017927388657790406
0.9,0.005350271385530551,77.71846037182966,0,90,3.0,0,0.004504337563498232
0.905,0.010381647827441833,78.01106364117669,0,90,3.0,0,0.010537394663436917
0.91,0.015115203303506243,78.61237735668999,0,90,3.0,0,0.022935615601855464
0.915,0.021170964062928475,79.75184586570822,0,90,3.0,0,0.046429811664086995
0.92,0.029082821134029553,81.73882007738028,0,90,3.0,0,0.08739835211093365
0.925,0.03923107061708144,84.91860303871091,0,90,3.0,0,0.15296088739610128
0.93,0.051969043308817596,89.57102603363346,0,90,3.0,0,0.24888713471409193
0.935,0.06760532616283861,95.75995516646122,0,90,3.0,0,0.3764939209579634
0.94,0.08636519236693461,103.17959546791647,0,90,3.0,0,0.5294761952147726
0.945,0.10834733138818661,111.07529572488261,0,90,3.0,0,0.6922741386573733
0.95,0.1334809643017884,118.31491599029209,0,90,3.0,0,0.8415446595936514
0.955,0.16148868344343945,123.6350965286457,0,90,3.0,0,0.9512391036834166
0.96,0.191860907532018,126.0,0,90,3.0,0,1.0
0.965,0.22384764873847726,124.93569714392498,0,90,3.0,0,0.9780556112149481
0.97,0.25647215537198226,120.69324675494863,0,90,3.0,0,0.8905824073185284
0.975,0.2885689161419028,114.16448719602343,0,90,3.0,0,0.7559688081654315
0.98,0.31884566517832524,106.58997952724316,0,90,3.0,0,0.599793392314292
0.985,0.3459657668955683,99.19070521703549,0,90,3.0,0,0.4472310354027935
0.99,0.3686441789190902,92.87269437123547,0,90,3.0,0,0.31696277054093747
0.995,0.3857476379544367,88.09593320330579,0,90,3.0,0,0.21847284955269672
1.0,0.3963882865005728,84.90996574510642,0,90,3.0,0,0.15278279886817359
1.005,0.4,83.09173789306756,0,90,3.0,0,0.1152935648055167
1.01,0.39638828650057273,82.30358025723456,0,90,3.0,0,0.09904289190174345
1.015,0.38574763795443656,82.21299299338393,0,90,3.0,0,0.09717511326564815
1.02,0.36864417891908974,82.55434514980914,0,90,3.0,0,0.10421330205792036
1.025,0.345965766895568,83.14213323761874,0,90,3.0,0,0.11633264407461312
1.03,0.3188456651783249,83.85713499989839,0,90,3.0,0,0.13107494845151324
1.035,0.28856891614190205,84.62445237318394,0,90,3.0,0,0.14689592522028747
1.04,0.2564721553719815,85.39442165237334,0,90,3.0,0,0.16277158046130596
1.045,0.22384764873847685,86.13005760319332,0,90,3.0,0,0.17793933202460457
1.05,0.19186090753201765,86.80051488700863,0,90,3.0,0,0.19176319354656973
1.055,0.16148868344343878,87.37864083674023,0,90,3.0,0,0.20368331622144809
1.06,0.1334809643017881,87.84078957026018,0,90,3.0,0,0.21321215608783886
1.065,0.10834733138818531,88.16763091157353,0,90,3.0,0,0.21995115281594896
1.07,0.08636519236690572,88.34520608502723,0,90,3.0,0,0.22361249659849958
1.075,0.06760532616242629,88.3658232744403,0,90,3.0,0,0.22403759328742892
1.08,0.05196904332202373,88.22858236069101,0,90,3.0,0,0.22120788372558778
1.085,0.03923107185803287,87.93943245316206,0,90,3.0,0,0.21524602996210424
1.09,0.02908287038705761,87.5107422335758,0,90,3.0,0,0.20640705636238757
1.095,0.02117220077308346,86.96042199889514,0,90,3.0,0,0.19506024739989986
1.1,0.0151361834125735,86.31068307456295,0,90,3.0,0,0.18166356854768959
1.105,0.010626454858290009,85.58655398140446,0,90,3.0,0,0.16673307178153535
1.11,0.007326255555493652,84.81429109138962,0,90,3.0,0,0.15081012559566226
1.115,0.004960179211183015,84.01982337083714,0,90,3.0,0,0.13442934785231225
1.12,0.0032978759379303545,83.22735707724202,0,90,3.0,0,0.11808983664416534
1.125,0.002153242296767213,82.45823983750614,0,90,3.0,0,0.10223174922693075
1.13,0.001380616732225004,81.73014876001216,0,90,3.0,0,0.0872195620621063
1.135,0.0008693106590991584,81.05662920318574,0,90,3.0,0,0.07333256089042754
1.14,0.000537524815942247,80.44697451294529,0,90,3.0,0,0.06076236109165544
1.145,0.0003263951340288585,79.90640659695114,0,90,3.0,0,0.049616630864972026
1.15,0.00019463030985187395,79.43649544175723,0,90,3.0,0,0.03992774106715939
1.155,0.00011397219555062695,79.03574386308755,0,90,3.0,0,0.03166482191933085
1.16,6.55403863487943e-05,78.70026167185499,0,90,3.0,0,0.024747663337216265
1.165,3.701184389455385e-05,78.42445957982034,0,90,3.0,0,0.01906102226433683
1.17,2.0525516217290957e-05,78.20170529949084,0,90,3.0,0,0.014468150504965768
1.175,1.1178128483661116e-05,78.02489982213942,0,90,3.0,0,0.010822676745142628
1.18,5.978135409912517e-06,77.88694829258561,0,90,3.0,0,0.007978315311043602
1.185,3.1396702713238487e-06,77.78111517083715,0,90,3.0,0,0.005796189089425855
1.19,1.6192875458531019e-06,77.70126602646864,0,90,3.0,0,0.004149814978734939
1.195,8.201353897972012e-07,77.64200757176874,0,90,3.0,0,0.0029279911704895648
1.2,4.0791415086824765e-07,77.5987432392567,0,90,3.0,0,0.0020359430774578515
1.205,1.9923866938774793e-07,77.56766406402257,0,90,3.0,1,0.0013951353406714566
1.21,9.556527981051257e-08,77.54569446819863,0,90,3.0,1,0.0009421539834769665
1.215,4.501406988770349e-08,77.53041053186217,0,90,3.0,1,0.0006270212755087358
1.22,0.0,77.51994523897304,0,90,3.0,1,0.00041124204068117103
1.225,0.0,77.51289167393386,0,90,3.0,1,0.00026580770997659635
1.23,0.0,77.50821172166673,0,90,3.0,1,0.00016931384879846764
1.235,0.0,77.50515482550728,0,90,3.0,1,0.00010628506200569016
1.24,0.0,77.50318895621916,0,90,3.0,1,6.575167462190236e-05
1.245,0.0,77.5019441867763,0,90,3.0,1,4.008632528452086e-05
1.25,0.0,77.50116810599482,0,90,3.0,1,2.4084659687044213e-05
1.255,0.0,77.50069164200418,0,90,3.0,1,1.4260659880096917e-05
1.26,0.0,77.50040358527119,0,90,3.0,1,8.321345797660975e-06
1.265,0.0,77.50023208340949,0,90,3.0,1,4.785224937855561e-06
1.27,0.0,77.50013152482224,0,90,3.0,1,2.7118520048841993e-06
1.275,0.0,77.50007345581658,0,90,3.0,1,1.5145529190933827e-06
1.28,0.001684486749771458,77.50004042960501,0,90,3.0,1,8.33600103254229e-07
1.285,0.004172395771277602,77.50002192944527,0,90,3.0,1,4.521535106739731e-07
1.29,0.009438687428818865,77.50001172224064,0,90,3.0,1,2.41695683361914e-07
1.295,0.019500507867137046,77.50000617516349,0,90,3.0,1,1.2732295859096508e-07
1.3,0.03679496976339974,77.50000320583472,0,90,3.0,1,6.609968486419845e-08
1.305,0.06340728953298436,77.50000164016913,0,90,3.0,1,3.3817920230484156e-08
1.31,0.09979255396093453,77.50000082697234,0,90,3.0,1,1.7050976072082964e-08
1.315,0.14343835518453557,77.50000041091138,0,90,3.0,1,8.472399652409596e-09
1.32,0.18829581417209276,77.50000020121493,0,90,3.0,1,4.148761462667758e-09
1.325,0.2257481735193119,77.50000009710175,0,90,3.0,1,2.00209787809146e-09
1.33,0.24718154073554727,77.50000004617945,0,90,3.0,1,9.521536365767686e-10
1.335,0.24718154074102772,77.50000002164339,0,90,3.0,1,4.4625541292036135e-10
1.34,0.22574817354072055,77.5000000099967,0,90,3.0,1,2.0611745986974073e-10
1.345,0.18829581422840957,77.50000000455033,0,90,3.0,1,9.382123485901849e-11
1.35,0.14343835532456656,77.50000000204119,0,90,3.0,1,4.208639851284031e-11
1.355,0.09979255431561854,77.50000000090236,0,90,3.0,1,1.860537840630715e-11
1.36,0.06340729067170194,77.50000000039313,0,90,3.0,1,8.105754326625737e-12
1.365,0.03679497683410042,77.50000000016878,0,90,3.0,1,3.4800478649990555e-12
1.37,0.019500578284482293,77.50000000007141,0,90,3.0,1,1.4723617514204137e-12
1.375,0.009439396781978427,77.50000000002977,0,90,3.0,1,6.138503222339835e-13
1.38,0.004178588733610924,77.50000000001224,0,90,3.0,1,2.5227929710905e-13
1.385,0.0017299316936037381,77.50000000000496,0,90,3.0,1,1.0225955248671133e-13
1.39,0.0008997325756988589,77.50000000000198,0,90,3.0,1,4.072801660645523e-14
1.395,0.001634769674224814,77.50000000000078,0,90,3.0,1,1.6115402254352787e-14
1.4,0.00614904736476635,77.5000000000003,0,90,3.0,1,6.15315358802561e-15
1.405,0.02168080359963608,77.50000000000011,0,90,3.0,1,2.344058509724042e-15
1.41,0.06433400338904088,77.50000000000004,0,90,3.0,1,8.790219411465157e-16
1.415,0.1593410769217493,77.50000000000001,0,90,3.0,1,2.9300731371550523e-16
1.42,0.3291989194808569,77.5,0,90,3.0,1,0.0
1.425,0.5672906802982638,77.5,0,90,3.0,1,0.0
1.43,0.815339152120446,77.5,0,90,3.0,1,0.0
1.435,0.9768711246313155,77.50000285700571,1,90,3.0,1,5.890733424991792e-08
1.44,0.9726380909165361,77.5000055981037,0,90,3.0,1,1.1542481851411701e-07
1.445,0.7921091683291741,77.50001170193522,0,90,3.0,1,2.412770148805872e-07
1.45,0.49139090102639077,77.5000270882034,0,90,3.0,1,5.585196576478281e-07
1.455,0.15739335672107918,77.50007030382385,0,90,3.0,1,1.4495633782883385e-06
1.46,-0.11102342218909485,77.50019904185636,0,90,3.0,1,4.1039558012827685e-06
1.465,-0.2314207883647528,77.50058607134292,0,90,3.0,1,1.2083945214904703e-05
1.47,-0.2029124434754801,77.50172157287263,0,90,3.0,1,3.549634788918851e-05
1.475,-0.11151350554305876,77.50491227303426,0,90,3.0,1,0.00010128398008792904
1.48,-0.039430666652076896,77.51341548520728,0,90,3.0,1,0.00027660794241804996
1.485,-0.006087703519843621,77.53479767151332,0,90,3.0,1,0.0007174777631611781
1.49,0.005350271385530551,77.58538694566,0,90,3.0,1,0.001760555580618663
1.495,0.010381647827441833,77.69780421918405,0,90,3.0,1,0.004078437508949487
1.5,0.015115203303506243,77.93212374321509,0,90,3.0,1,0.008909767901341991
1.505,0.021170964062928475,78.38971621807644,0,90,3.0,1,0.018344664290235957
1.51,0.029082821134029553,79.22592550239746,0,90,3.0,1,0.035586092832937295
1.515,0.03923107061708144,80.65382694330745,0,90,3.0,1,0.06502735965582372
1.52,0.051969043308817596,82.92814688244911,0,90,3.0,1,0.1119205542773013
1.525,0.06760532616283861,86.29905479142072,0,90,3.0,1,0.1814238101323859
1.53,0.08636519236693461,90.93310591840898,0,90,3.0,1,0.27697125604966977
1.535,0.10834733138818661,96.81375736041753,0,90,3.0,1,0.3982218012457222
1.54,0.1334809643017884,103.65218979533569,0,90,3.0,1,0.5392204081512513
1.545,0.16148868344343945,110.85098906485283,0,90,3.0,1,0.6876492590691304
1.55,0.191860907532018,117.55776115670236,0,90,3.0,1,0.8259332197258218
1.555,0.22384764873847726,122.81835656489098,0,90,3.0,1,0.9343991044307418
1.56,0.25647215537198226,125.79775358536652,0,90,3.0,1,0.9958299708322994
1.565,0.2885689161419028,126.0,0,90,3.0,1,1.0
1.57,0.31884566517832524,123.40809829602208,0,90,3.0,1,0.9465587277530325
1.575,0.3459657668955683,118.49003065599916,0,90,3.0,1,0.8451552712577147
1.58,0.3686441789190902,112.06852813875727,0,90,3.0,1,0.71275315750015
1.585,0.3857476379544367,105.10477932098621,0,90,3.0,1,0.5691707076492002
1.59,0.3963882865005728,98.47443100842273,0,90,3.0,1,0.4324624950190253
1.595,0.4,92.8066072912793,0,90,3.0,1,0.3156001503356558
1.6,0.39638828650057273,88.42148372327156,0,90,3.0,1,0.2251852314076611
1.605,0.38574763795443656,85.35990241659837,0,90,3.0,1,0.16205984364120357
1.61,0.36864417891908974,83.46944358620377,0,90,3.0,1,0.12308131105574777
1.615,0.345965766895568,82.50409108932574,0,90,3.0,1,0.1031771358623864
1.62,0.3188456651783249,82.20538889595129,0,90,3.0,1,0.09701832775157294
1.625,0.28856891614190205,82.35118221387862,0,90,3.0,1,0.10002437554388899
1.63,0.2564721553719815,82.77370137387766,0,90,3.0,1,0.10873611080160117
1.635,0.22384764873847685,83.35697885227354,0,90,3.0,1,0.12076245056234107
1.64,0.19186090753201765,84.0246919330554,0,90,3.0,1,0.13452973057846174
1.645,0.16148868344343878,84.72653191551647,0,90,3.0,1,0.1490006580518861
1.65,0.1334809643017881,85.42725699479512,0,90,3.0,1,0.16344859783082713
1.655,0.10834733138818531,86.09955203844497,0,90,3.0,1,0.17731035130814368
1.66,0.08636519236690572,86.72019234262434,0,90,3.0,1,0.1901070586108112
1.665,0.06760532616242629,87.26848870696234,0,90,3.0,1,0.20141213828788337
1.67,0.05196904332202373,87.72606423286395,0,90,3.0,1,0.21084668521368966
1.675,0.03923107185803287,88.07728034294114,0,90,3.0,1,0.2180882544936317
1.68,0.02908287038705761,88.30988433026353,0,90,3.0,1,0.22288421299512431
1.685,0.02117220077308346,88.41562988670005,0,90,3.0,1,0.2250645337463927
1.69,0.0151361834125735,88.39073171494468,0,90,3.0,1,0.22455116938030265
1.695,0.010626454858290009,88.23608061227844,0,90,3.0,1,0.2213624868511019
1.7,0.007326255555493652,87.95718762032197,0,90,3.0,1,0.2156121158829273
1.705,0.004960179211183015,87.56385719193653,0,90,3.0,1,0.20750221014302134
1.71,0.0032978759379303545,87.06961485035202,0,90,3.0,1,0.19731164639901083
1.715,0.002153242296767213,86.49093547163766,0,90,3.0,1,0.18538011281727124
1.72,0.001380616732225004,85.84633343081921,0,90,3.0,1,0.17208934908905596
1.725,0.0008693106590991584,85.15538449808108,0,90,3.0,1,0.15784297934187785
1.73,0.000537524815942247,84.43775108996621,0,90,3.0,1,0.14304641422610748
1.735,0.0003263951340288585,83.71227751571944,0,90,3.0,1,0.12808819620040074
1.74,0.00019463030985187395,82.99621117057644,0,90,3.0,1,0.11332394166136998
1.745,0.00011397219555062695,82.30459074772966,0,90,3.0,1,0.09906372675731262
1.75,6.55403863487943e-05,81.64982534565863,0,90,3.0,1,0.08556340918883767
1.755,3.701184389455385e-05,81.04147079905813,0,90,3.0,1,0.0730200164754254
1.76,2.0525516217290957e-05,80.4861934573874,0,90,3.0,1,0.06157099912138971
1.765,1.1178128483661116e-05,79.98789840738041,0,90,3.0,1,0.05129687437897759
1.77,5.978135409912517e-06,79.54798972143004,0,90,3.0,1,0.04222659219443386
1.775,3.1396702713238487e-06,79.1657251050575,0,90,3.0,1,0.03434484752695885
1.78,1.6192875458531019e-06,78.83862619104653,0,90,3.0,1,0.027600540021577923
1.785,8.201353897972012e-07,78.5629081394647,0,90,3.0,1,0.021915631741540122
1.79,4.0791415086824765e-07,78.33389731528789,0,90,3.0,1,0.017193759078100723
1.795,1.9923866938774793e-07,78.14641264967727,0,90,3.0,1,0.013328095869634505
1.8,9.556527981051257e-08,77.9950938659425,0,90,3.0,1,0.010208120947267908
1.805,4.501406988770349e-08,77.87466719823882,0,90,3.0,1,0.007725096870903608
1.81,0.0,77.78014587226397,0,90,3.0,1,0.00577620355183448
1.815,0.0,77.7069680038797,0,90,3.0,1,0.004267381523292672
1.82,0.0,77.651078485453,0,90,3.0,1,0.0031150203186185305
1.825,0.0,77.6089638555516,0,90,3.0,1,0.0022466774340534693
1.83,0.0,77.57765022693218,0,90,3.0,1,0.0016010356068490341
1.835,0.0,77.55467432434818,0,90,3.0,1,0.0011273056566635917
1.84,0.0,77.53803685039938,0,90,3.0,1,0.0007842649566882334
1.845,0.0,77.52614605077103,0,90,3.0,1,0.0005390938303305668
1.85,0.0,77.5177577558228,0,90,3.0,1,0.0003661392953154532
1.855,0.0,77.51191654857978,0,90,3.0,1,0.000245702032572712
1.86,0.0,77.507901204888,0,90,3.0,1,0.0001629114409896965
1.865,0.0,77.5051762660216,0,90,3.0,1,0.00010672713446612442
1.87,0.0,77.50335058222204,0,90,3.0,1,6.908416952660915e-05
1.875,0.0,77.50214291231161,0,90,3.0,1,4.4183759002311787e-05
1.88,0.0,77.50135415677913,0,90,3.0,1,2.792075833256313e-05
1.885,0.0,77.50084550060859,0,90,3.0,1,1.7433002238989895e-05
1.89,0.0,77.50052160209725,0,90,3.0,1,1.075468241754972e-05
1.895,0.0,77.50031793999378,0,90,3.0,1,6.555463789233549e-06
1.9,0.0,77.50019148352861,0,90,3.0,1,3.948113991960669e-06
1.905,0.0,77.50011394574456,0,90,3.0,1,2.3493967950292517e-06
1.91,0.0,77.50006699543745,0,90,3.0,1,1.381349225776202e-06
1.915,0.0,77.50003891999467,0,90,3.0,1,8.024741168107361e-07
1.92,0.0,77.50002233987531,0,90,3.0,1,4.6061598587565985e-07
1.925,0.0,77.5000126697821,0,90,3.0,1,2.6123262050673147e-07
1.93,0.001684486749771458,77.50000709966693,0,90,3.0,1,1.4638488517110878e-07
1.935,0.004172395771277602,77.50000393085688,0,90,3.0,1,8.104859540891112e-08
1.94,0.009438687428818865,77.50000215038844,0,90,3.0,1,4.433790597441029e-08
1.945,0.019500507867137046,77.50000116232353,0,90,3.0,1,2.3965433568911375e-08
1.95,0.03679496976339974,77.50000062075121,0,90,3.0,1,1.2798993992939508e-08
1.955,0.06340728953298436,77.50000032755825,0,90,3.0,1,6.7537784391404165e-09
1.96,0.09979255396093453,77.50000017078115,0,90,3.0,1,3.52126080870971e-09
1.965,0.14343835518453557,77.50000008797753,0,90,3.0,1,1.8139696022472824e-09
1.97,0.18829581417209276,77.50000004478,0,90,3.0,1,9.232988623366931e-10
1.975,0.2257481735193119,77.50000002252042,0,90,3.0,1,4.6433865229362745e-10
1.98,0.24718154073554727,77.50000001119051,0,90,3.0,1,2.3073212527303918e-10
1.985,0.24718154074102772,77.50000000549419,0,90,3.0,1,1.1328219462137492e-10
1.99,0.22574817354072055,77.50000000266525,0,90,3.0,1,5.495352168734301e-11
1.995,0.18829581422840957,77.50000000127747,0,90,3.0,1,2.6339599459141628e-11
2.0,0.14343835532456656,77.50000000060498,0,90,3.0,1,1.247390735949649e-11
2.005,0.09979255431561854,77.5000000002831,0,90,3.0,1,5.83699869652658e-12
2.01,0.06340729067170194,77.50000000013088,0,90,3.0,1,2.698597359319803e-12
2.015,0.03679497683410042,77.50000000005979,0,90,3.0,1,1.2326817688011305e-12
2.02,0.019500578284482293,77.50000000002699,0,90,3.0,1,5.564208887457445e-13
2.025,0.009439396781978427,77.50000000001204,0,90,3.0,1,2.481771947170329e-13
2.03,0.004178588733610924,77.5000000000053,0,90,3.0,1,1.0929172801588345e-13
2.035,0.0017299316936037381,77.5000000000023,0,90,3.0,1,4.746718482191185e-14
2.04,0.0008997325756988589,77.500000000001,0,90,3.0,1,2.0510511960085366e-14
2.045,0.001634769674224814,77.50000000000043,0,90,3.0,1,8.790219411465157e-15
2.05,0.00614904736476635,77.50000000000017,0,90,3.0,1,3.516087764586063e-15
2.055,0.02168080359963608,77.50000000000007,0,90,3.0,1,1.465036568577526e-15
2.06,0.06433400338904088,77.50000000000003,0,90,3.0,1,5.860146274310105e-16
2.065,0.1593410769217493,77.50000000000001,0,90,3.0,1,2.9300731371550523e-16
2.07,0.3291989194808569,77.5,0,90,3.0,1,0.0
2.075,0.5672906802982638,77.5,0,90,3.0,1,0.0
2.08,0.815339152120446,77.5,0,90,3.0,1,0.0
2.085,0.9768711246313155,77.50000284517176,1,90,3.0,1,5.866333533949447e-08
2.09,0.9726380909165361,77.50000599086852,0,90,3.0,1,1.235230621842703e-07
2.095,0.7921091683291741,77.50001371504612,0,90,3.0,1,2.827844561401547e-07
2.1,0.49139090102639077,77.50003575767096,0,90,3.0,1,7.372715661347815e-07
2.105,0.15739335672107918,77.50010645385059,0,90,3.0,1,2.1949247544637626e-06
2.11,-0.11102342218909485,77.50034420257653,0,90,3.0,1,7.096960340785952e-06
2.115,-0.2314207883647528,77.50113535267691,0,90,3.0,1,2.3409333544563685e-05
2.12,-0.2029124434754801,77.5036539979212,0,90,3.0,1,7.534016332381715e-05
2.125,-0.11151350554305876,77.51119612985639,0,90,3.0,1,0.0002308480382760198
2.13,-0.039430666652076896,77.5322660631709,0,90,3.0,1,0.0006652796530081278
2.135,-0.006087703519843621,77.58694783499028,0,90,3.0,1,0.0017927388657790406
2.14,0.005350271385530551,77.71846037182966,0,90,3.0,1,0.004504337563498232
2.145,0.010381647827441833,78.01106364117669,0,90,3.0,1,0.010537394663436917
2.15,0.015115203303506243,78.61237735668999,0,90,3.0,1,0.022935615601855464
2.155,0.021170964062928475,79.75184586570822,0,90,3.0,1,0.046429811664086995
2.16,0.029082821134029553,81.73882007738028,0,90,3.0,1,0.08739835211093365
2.165,0.03923107061708144,84.91860303871091,0,90,3.0,1,0.15296088739610128
2.17,0.051969043308817596,89.57102603363346,0,90,3.0,1,0.24888713471409193
2.175,0.06760532616283861,95.75995516646122,0,90,3.0,1,0.3764939209579634
2.18,0.08636519236693461,103.17959546791647,0,90,3.0,1,0.5294761952147726
2.185,0.10834733138818661,111.07529572488261,0,90,3.0,1,0.6922741386573733
2.19,0.1334809643017884,118.31491599029209,0,90,3.0,1,0.8415446595936514
2.195,0.16148868344343945,123.6350965286457,0,90,3.0,1,0.9512391036834166
2.2,0.191860907532018,126.0,0,90,3.0,1,1.0
2.205,0.22384764873847726,124.93569714392498,0,90,3.0,1,0.9780556112149481
2.21,0.25647215537198226,120.69324675494863,0,90,3.0,1,0.8905824073185284
2.215,0.2885689161419028,114.16448719602343,0,90,3.0,1,0.7559688081654315
2.22,0.31884566517832524,106.58997952724316,0,90,3.0,1,0.599793392314292
2.225,0.3459657668955683,99.19070521703549,0,90,3.0,1,0.4472310354027935
2.23,0.3686441789190902,92.87269437123547,0,90,3.0,1,0.31696277054093747
2.235,0.3857476379544367,88.09593320330579,0,90,3.0,1,0.21847284955269672
2.24,0.3963882865005728,84.90996574510642,0,90,3.0,1,0.15278279886817359
2.245,0.4,83.09173789306756,0,90,3.0,1,0.1152935648055167
2.25,0.39638828650057273,82.30358025723456,0,90,3.0,1,0.09904289190174345
2.255,0.38574763795443656,82.21299299338393,0,90,3.0,1,0.09717511326564815
2.26,0.36864417891908974,82.55434514980914,0,90,3.0,1,0.10421330205792036
2.265,0.345965766895568,83.14213323761874,0,90,3.0,1,0.11633264407461312
2.27,0.3188456651783249,83.85713499989839,0,90,3.0,1,0.13107494845151324
2.275,0.28856891614190205,84.62445237318394,0,90,3.0,1,0.14689592522028747
2.28,0.2564721553719815,85.39442165237334,0,90,3.0,1,0.16277158046130596
2.285,0.22384764873847685,86.13005760319332,0,90,3.0,1,0.17793933202460457
2.29,0.19186090753201765,86.80051488700863,0,90,3.0,1,0.19176319354656973
2.295,0.16148868344343878,87.37864083674023,0,90,3.0,1,0.20368331622144809
2.3,0.1334809643017881,87.84078957026018,0,90,3.0,1,0.21321215608783886
2.305,0.10834733138818531,88.16763091157353,0,90,3.0,1,0.21995115281594896
2.31,0.08636519236690572,88.34520608502723,0,90,3.0,1,0.22361249659849958
2.315,0.06760532616242629,88.3658232744403,0,90,3.0,1,0.22403759328742892
2.32,0.05196904332202373,88.22858236069101,0,90,3.0,1,0.22120788372558778
2.325,0.03923107185803287,87.93943245316206,0,90,3.0,1,0.21524602996210424
2.33,0.02908287038705761,87.5107422335758,0,90,3.0,1,0.20640705636238757
2.335,0.02117220077308346,86.96042199889514,0,90,3.0,1,0.19506024739989986
2.34,0.0151361834125735,86.31068307456295,0,90,3.0,1,0.18166356854768959
2.345,0.010626454858290009,85.58655398140446,0,90,3.0,1,0.16673307178153535
2.35,0.007326255555493652,84.81429109138962,0,90,3.0,1,0.15081012559566226
2.355,0.004960179211183015,84.01982337083714,0,90,3.0,1,0.13442934785231225
2.36,0.0032978759379303545,83.22735707724202,0,90,3.0,1,0.11808983664416534
2.365,0.002153242296767213,82.45823983750614,0,90,3.0,1,0.10223174922693075
2.37,0.001380616732225004,81.73014876001216,0,90,3.0,1,0.0872195620621063
2.375,0.0008693106590991584,81.05662920318574,0,90,3.0,1,0.07333256089042754
2.38,0.000537524815942247,80.44697451294529,0,90,3.0,1,0.06076236109165544
2.385,0.0003263951340288585,79.90640659695114,0,90,3.0,1,0.049616630864972026
2.39,0.00019463030985187395,79.43649544175723,0,90,3.0,1,0.03992774106715939
2.395,0.00011397219555062695,79.03574386308755,0,90,3.0,1,0.03166482191933085
2.4,6.55403863487943e-05,78.70026167185499,0,90,3.0,1,0.024747663337216265
2.405,3.701184389455385e-05,78.42445957982034,0,90,3.0,1,0.01906102226433683
2.41,2.0525516217290957e-05,78.20170529949084,0,90,3.0,2,0.014468150504965768
2.415,1.1178128483661116e-05,78.02489982213942,0,90,3.0,2,0.010822676745142628
2.42,5.978135409912517e-06,77.88694829258561,0,90,3.0,2,0.007978315311043602
2.425,3.1396702713238487e-06,77.78111517083715,0,90,3.0,2,0.005796189089425855
2.43,1.6192875458531019e-06,77.70126602646864,0,90,3.0,2,0.004149814978734939
2.435,8.201353897972012e-07,77.64200757176874,0,90,3.0,2,0.0029279911704895648
2.44,4.0791415086824765e-07,77.5987432392567,0,90,3.0,2,0.0020359430774578515
2.445,1.9923866938774793e-07,77.56766406402257,0,90,3.0,2,0.0013951353406714566
2.45,9.556527981051257e-08,77.54569446819863,0,90,3.0,2,0.0009421539834769665
2.455,4.501406988770349e-08,77.53041053186217,0,90,3.0,2,0.0006270212755087358
2.46,0.0,77.51994523897304,0,90,3.0,2,0.00041124204068117103
2.465,0.0,77.51289167393386,0,90,3.0,2,0.00026580770997659635
2.47,0.0,77.50821172166673,0,90,3.0,2,0.00016931384879846764
2.475,0.0,77.50515482550728,0,90,3.0,2,0.00010628506200569016
2.48,0.0,77.50318895621916,0,90,3.0,2,6.575167462190236e-05
2.485,0.0,77.5019441867763,0,90,3.0,2,4.008632528452086e-05
2.49,0.0,77.50116810599482,0,90,3.0,2,2.4084659687044213e-05
2.495,0.0,77.50069164200418,0,90,3.0,2,1.4260659880096917e-05
2.5,0.0,77.50040358527119,0,90,3.0,2,8.321345797660975e-06
2.505,0.0,77.50023208340949,0,90,3.0,2,4.785224937855561e-06
2.51,0.0,77.50013152482224,0,90,3.0,2,2.7118520048841993e-06
2.515,0.0,77.50007345581658,0,90,3.0,2,1.5145529190933827e-06
2.52,0.001684486749771458,77.50004042960501,0,90,3.0,2,8.33600103254229e-07
2.525,0.004172395771277602,77.50002192944527,0,90,3.0,2,4.521535106739731e-07
2.53,0.009438687428818865,77.50001172224064,0,90,3.0,2,2.41695683361914e-07
2.535,0.019500507867137046,77.50000617516349,0,90,3.0,2,1.2732295859096508e-07
2.54,0.03679496976339974,77.50000320583472,0,90,3.0,2,6.609968486419845e-08
2.545,0.06340728953298436,77.50000164016913,0,90,3.0,2,3.3817920230484156e-08
2.55,0.09979255396093453,77.50000082697234,0,90,3.0,2,1.7050976072082964e-08
2.555,0.14343835518453557,77.50000041091138,0,90,3.0,2,8.472399652409596e-09
2.56,0.18829581417209276,77.50000020121493,0,90,3.0,2,4.148761462667758e-09
2.565,0.2257481735193119,77.50000009710175,0,90,3.0,2,2.00209787809146e-09
2.57,0.24718154073554727,77.50000004617945,0,90,3.0,2,9.521536365767686e-10
2.575,0.24718154074102772,77.50000002164339,0,90,3.0,2,4.4625541292036135e-10
2.58,0.22574817354072055,77.5000000099967,0,90,3.0,2,2.0611745986974073e-10
2.585,0.18829581422840957,77.50000000455033,0,90,3.0,2,9.382123485901849e-11
2.59,0.14343835532456656,77.50000000204119,0,90,3.0,2,4.208639851284031e-11
2.595,0.09979255431561854,77.50000000090236,0,90,3.0,2,1.860537840630715e-11
2.6,0.06340729067170194,77.50000000039313,0,90,3.0,2,8.105754326625737e-12
2.605,0.03679497683410042,77.50000000016878,0,90,3.0,2,3.4800478649990555e-12
2.61,0.019500578284482293,77.50000000007141,0,90,3.0,2,1.4723617514204137e-12
2.615,0.009439396781978427,77.50000000002977,0,90,3.0,2,6.138503222339835e-13
2.62,0.004178588733610924,77.50000000001224,0,90,3.0,2,2.5227929710905e-13
2.625,0.0017299316936037381,77.50000000000496,0,90,3.0,2,1.0225955248671133e-13
2.63,0.0008997325756988589,77.50000000000198,0,90,3.0,2,4.072801660645523e-14
2.635,0.001634769674224814,77.50000000000078,0,90,3.0,2,1.6115402254352787e-14
2.64,0.00614904736476635,77.5000000000003,0,90,3.0,2,6.15315358802561e-15
2.645,0.02168080359963608,77.50000000000011,0,90,3.0,2,2.344058509724042e-15
2.65,0.06433400338904088,77.50000000000004,0,90,3.0,2,8.790219411465157e-16
2.655,0.1593410769217493,77.50000000000001,0,90,3.0,2,2.9300731371550523e-16
2.66,0.3291989194808569,77.5,0,90,3.0,2,0.0
2.665,0.5672906802982638,77.5,0,90,3.0,2,0.0
2.67,0.815339152120446,77.5,0,90,3.0,2,0.0
2.675,0.9768711246313155,77.50000285438263,1,90,3.0,2,5.885325008093037e-08
2.68,0.9726380909165361,77.50000490798809,0,90,3.0,2,1.0119563062430316e-07
2.685,0.7921091683291741,77.50000876182364,0,90,3.0,2,1.8065615745165148e-07
2.69,0.49139090102639077,77.5000165920193,0,90,3.0,2,3.421034908644719e-07
2.695,0.15739335672107918,77.50003385036689,0,90,3.0,2,6.97945709071439e-07
2.7,-0.11102342218909485,77.50007435934741,0,90,3.0,2,1.5331824207918282e-06
2.705,-0.2314207883647528,77.50017274998639,0,90,3.0,2,3.561855389492492e-06
2.71,-0.2029124434754801,77.50041351300322,0,90,3.0,2,8.526041303585517e-06
2.715,-0.11151350554305876,77.50099568078633,0,90,3.0,2,2.0529500749109932e-05
2.72,-0.039430666652076896,77.50236971223775,0,90,3.0,2,4.886004613920179e-05
2.725,-0.006087703519843621,77.5055120944739,0,90,3.0,2,0.00011365143245155093
2.73,0.005350271385530551,77.51244596989915,0,90,3.0,2,0.00025661793606489194
2.735,0.010381647827441833,77.52717057486487,0,90,3.0,2,0.0005602180384508972
2.74,0.015115203303506243,77.55721592054012,0,90,3.0,2,0.0011797097018580694
2.745,0.021170964062928475,77.61606227824153,0,90,3.0,2,0.00239303666477379
2.75,0.029082821134029553,77.72660549211236,0,90,3.0,2,0.004672278187883618
2.755,0.03923107061708144,77.92564105826666,0,90,3.0,2,0.008776104294158005
2.76,0.051969043308817596,78.26891948551088,0,90,3.0,2,0.01585401001053357
2.765,0.06760532616283861,78.83567823921733,0,90,3.0,2,0.027539757509635672
2.77,0.08636519236693461,79.73077347175595,0,90,3.0,2,0.04599532931455572
2.775,0.10834733138818661,81.08186407813274,0,90,3.0,2,0.07385286759036574
2.78,0.1334809643017884,83.02893871137952,0,90,3.0,2,0.1139987363171036
2.785,0.16148868344343945,85.70427428345654,0,90,3.0,2,0.1691602945042586
2.79,0.191860907532018,89.20297317559513,0,90,3.0,2,0.24129841599165222
2.795,0.22384764873847726,93.54743690524495,0,90,3.0,2,0.3308749877370093
2.8,0.25647215537198226,98.65278368312896,0,90,3.0,2,0.4361398697552363
2.805,0.2885689161419028,104.30301930813482,0,90,3.0,2,0.5526395733636046
2.81,0.31884566517832524,110.14822115319846,0,90,3.0,2,0.6731591990350199
2.815,0.3459657668955683,115.73000984596136,0,90,3.0,2,0.788247625689925
2.82,0.3686441789190902,120.5361767888806,0,90,3.0,2,0.8873438513171257
2.825,0.3857476379544367,124.07697600191973,0,90,3.0,2,0.9603500206581388
2.83,0.3963882865005728,125.9679329806614,0,90,3.0,2,0.999338824343534
2.835,0.4,126.0,0,90,3.0,2,1.0
2.84,0.39638828650057273,124.179457125695,0,90,3.0,2,0.9624630335194845
2.845,0.38574763795443656,120.72712903134621,0,90,3.0,2,0.891281010955592
2.85,0.36864417891908974,116.03711754734277,0,90,3.0,2,0.7945797432441809
2.855,0.345965766895568,110.60581198433403,0,90,3.0,2,0.6825940615326603
2.86,0.3188456651783249,104.94893447767554,0,90,3.0,2,0.5659574119108358
2.865,0.28856891614190205,99.5257333923695,0,90,3.0,2,0.4541388328323609
2.87,0.2564721553719815,94.6852416077423,0,90,3.0,2,0.3543348785101505
2.875,0.22384764873847685,90.64178407123171,0,90,3.0,2,0.2709646200253961
2.88,0.19186090753201765,87.4785903024585,0,90,3.0,2,0.20574412994759794
2.885,0.16148868344343878,85.1720692802678,0,90,3.0,2,0.1581869954694393
2.89,0.1334809643017881,83.62645237665319,0,90,3.0,2,0.1263186057041895
2.895,0.10834733138818531,82.70907002014256,0,90,3.0,2,0.10740350556994974
2.9,0.08636519236690572,82.27938805113108,0,90,3.0,2,0.09854408352847585
2.905,0.06760532616242629,82.20858406356933,0,90,3.0,2,0.0970842074962749
2.91,0.05196904332202373,82.38962199058922,0,90,3.0,2,0.10081694825957153
2.915,0.03923107185803287,82.73979502082149,0,90,3.0,2,0.10803701073858742
2.92,0.02908287038705761,83.19846256402695,0,90,3.0,2,0.11749407348509183
2.925,0.02117220077308346,83.7225172699791,0,90,3.0,2,0.1282993251542081
2.93,0.0151361834125735,84.28143513244977,0,90,3.0,2,0.1398234047927788
2.935,0.010626454858290009,84.85297849135206,0,90,3.0,2,0.15160780394540332
2.94,0.007326255555493652,85.41997879394694,0,90,3.0,2,0.1632985318339575
2.945,0.004960179211183015,85.96821055646527,0,90,3.0,2,0.17460227951474774
2.95,0.0032978759379303545,86.48516315033311,0,90,3.0,2,0.18526109588315687
2.955,0.002153242296767213,86.95945946664608,0,90,3.0,2,0.195040401374146
2.96,0.001380616732225004,87.38069290852465,0,90,3.0,2,0.20372562697988972
2.965,0.0008693106590991584,87.7395063586069,0,90,3.0,2,0.21112384244550314
2.97,0.000537524815942247,88.0277899940315,0,90,3.0,2,0.21706783492848442
2.975,0.0003263951340288585,88.23891716841138,0,90,3.0,2,0.22142097254456447
2.98,0.00019463030985187395,88.36796717802692,0,90,3.0,2,0.22408179748509105
2.985,0.00011397219555062695,88.4119030921089,0,90,3.0,2,0.22498769262080207
2.99,6.55403863487943e-05,88.36968541349775,0,90,3.0,2,0.22411722502057213
2.995,3.701184389455385e-05,88.24231099266989,0,90,3.0,2,0.22149094830247187
3.0,2.0525516217290957e-05,88.03277318202096,0,90,3.0,2,0.21717058107259712
3.005,1.1178128483661116e-05,87.74594465103213,0,90,3.0,2,0.21125659074293057
3.01,5.978135409912517e-06,87.3883889597389,0,90,3.0,2,0.20388430844822483
3.015,3.1396702713238487e-06,86.96811095147308,0,90,3.0,2,0.19521878250459956
3.02,1.6192875458531019e-06,86.49425917535086,0,90,3.0,2,0.18544864279073942
3.025,8.201353897972012e-07,85.97679575397432,0,90,3.0,2,0.17477929389637764
3.03,4.0791415086824765e-07,85.42615027643305,0,90,3.0,2,0.16342577889552679
3.035,1.9923866938774793e-07,84.85287439100834,0,90,3.0,2,0.15160565754656374
3.04,9.556527981051257e-08,84.26731284242813,0,90,3.0,2,0.1395322235552191
3.045,4.501406988770349e-08,83.67930486469288,0,90,3.0,2,0.12740834772562643
3.05,0.0,83.0979272828346,0,90,3.0,2,0.11542118108937328
3.055,0.0,82.53128761864484,0,90,3.0,2,0.10373788904422349
3.06,0.0,81.98637218109799,0,90,3.0,2,0.09250251919789672
3.065,0.0,81.46895079637038,0,90,3.0,2,0.08183403703856451
3.07,0.0,80.98353671922568,0,90,3.0,2,0.071825499365478
3.075,0.0,80.53339755454446,0,90,3.0,2,0.0625442794751436
3.08,0.0,80.12061084387935,0,90,3.0,2,0.05403321327586284
3.085,0.0,79.74615642136378,0,90,3.0,2,0.046312503533273784
3.09,0.0,79.41003674488853,0,90,3.0,2,0.03938220092553669
3.095,0.0,79.11141613975474,0,90,3.0,2,0.03322507504648944
3.1,0.0,78.84877018756029,0,90,3.0,2,0.02780969458887198
3.105,0.0,78.6200372552955,0,90,3.0,2,0.023093551655577325
3.11,0.0,78.42276527103053,0,90,3.0,2,0.01902608806248511
3.115,0.0,78.25424818799434,0,90,3.0,2,0.015551509030811036
3.12,0.0,78.11164801646754,0,90,3.0,2,0.012611299308609089
3.125,0.0,77.9920997333571,0,90,3.0,2,0.01014638625478544
3.13,0.0,77.89279771215702,0,90,3.0,2,0.00809892190014473
3.135,0.0,77.81106348355671,0,90,3.0,2,0.006413680073334192
3.14,0.0,77.74439559553625,0,90,3.0,2,0.005039084444046328
3.145,0.0,77.69050307062214,0,90,3.0,2,0.003927898363343143
3.15,0.0,77.6473244564584,0,90,3.0,2,0.003037617658936215
3.155,0.0,77.61303474959401,0,90,3.0,2,0.0023306133936908694
3.16,0.0,77.5860425687419,0,90,3.0,2,0.0017740735823072664
3.165,0.0,77.56497989724345,0,90,3.0,2,0.0013397916957411705
3.17,0.0,77.5486865425945,0,90,3.0,2,0.0010038462390617642
3.175,0.0,77.53619121066095,0,90,3.0,2,0.0007462105290916539
3.18,0.0,77.52669079745137,0,90,3.0,2,0.0005503257206467156
3.185,0.0,77.51952919085412,0,90,3.0,2,0.0004026637289508265
3.19,0.0,77.51417657146926,0,90,3.0,2,0.00029230044266523455
3.195,0.0,77.51020992226385,0,90,3.0,2,0.00021051386111039814
3.2,0.0,77.50729521206802,0,90,3.0,2,0.00015041674367042565
3.205,0.0,77.50517151357019,0,90,3.0,2,0.00010662914577710814
3.21,0.0,77.50363715390067,0,90,3.0,2,7.49928639313285e-05
3.215,0.0,77.50253787337257,0,90,3.0,2,5.2327286032463816e-05
3.22,0.0,77.50175688155026,0,90,3.0,2,3.6224361861117755e-05
3.225,0.0,77.50120664433146,0,90,3.0,2,2.4879264566203984e-05
3.23,0.0,77.50082220541694,0,90,3.0,2,1.695268900903102e-05
3.235,0.0,77.5005558346956,0,90,3.0,2,1.1460509187703248e-05
3.24,0.0,77.50037279942399,0,90,3.0,2,7.68658606155197e-06
3.245,0.0,77.50024806704589,0,90,3.0,2,5.114784451298527e-06
3.25,0.0,77.50016376729623,0,90,3.0,2,3.3766452830703427e-06
3.255,0.0,77.50010726290255,0,90,3.0,2,2.2116062380579943e-06
3.26,0.0,77.50006970054478,0,90,3.0,2,1.437124634736561e-06
3.265,0.0,77.50004493523964,0,90,3.0,2,9.264997864535224e-07
3.27,0.0,77.50002874102243,0,90,3.0,2,5.925984006826746e-07
3.275,0.0,77.50001823818543,0,90,3.0,2,3.7604506047435127e-07
3.28,0.0,77.50001148220515,0,90,3.0,2,2.3674649799797464e-07
3.285,0.0,77.50000717188371,0,90,3.0,2,1.478738909099775e-07
3.29,0.0,77.50000444432119,0,90,3.0,2,9.163548849390225e-08
3.295,0.0,77.50000273238504,0,90,3.0,2,5.633783591302116e-08
3.3,0.0,77.50000166664314,0,90,3.0,2,3.436377615451926e-08
3.305,0.0,77.50000100857362,0,90,3.0,2,2.0795332356448347e-08
3.31,0.0,77.50000060553165,0,90,3.0,2,1.2485188727089164e-08
3.315,0.0,77.5000003606869,0,90,3.0,2,7.436843242027591e-09
3.32,0.001684486749771458,77.50000021315137,0,90,3.0,2,4.394873541837723e-09
3.325,0.004172395771277602,77.50000012497127,0,90,3.0,2,2.5767271203334266e-09
3.33,0.009438687428818865,77.50000007269365,0,90,3.0,2,1.4988381852950605e-09
3.335,0.019500507867137046,77.50000004195145,0,90,3.0,2,8.649783936074452e-10
3.34,0.03679496976339974,77.50000002401939,0,90,3.0,2,4.95245063744339e-10
3.345,0.06340728953298436,77.50000001364397,0,90,3.0,2,2.8131895896408004e-10
3.35,0.09979255396093453,77.50000000768925,0,90,3.0,2,1.585412763271267e-10
3.355,0.14343835518453557,77.50000000429924,0,90,3.0,2,8.864408863297923e-11
3.36,0.18829581417209276,77.50000000238487,0,90,3.0,2,4.917248738773609e-11
3.365,0.2257481735193119,77.5000000013125,0,90,3.0,2,2.706186248745035e-11
3.37,0.24718154073554727,77.50000000071664,0,90,3.0,2,1.4776065823359212e-11
3.375,0.24718154074102772,77.50000000038821,0,90,3.0,2,8.004373796080172e-12
3.38,0.22574817354072055,77.50000000020864,0,90,3.0,2,4.301933379971048e-12
3.385,0.18829581422840957,77.50000000011124,0,90,3.0,2,2.293661251764975e-12
3.39,0.14343835532456656,77.50000000005885,0,90,3.0,2,1.2133432860959072e-12
3.395,0.09979255431561854,77.50000000003088,0,90,3.0,2,6.367048927037928e-13
3.4,0.06340729067170194,77.50000000001609,0,90,3.0,2,3.316842791259519e-13
3.405,0.03679497683410042,77.50000000000831,0,90,3.0,2,1.7140927852357056e-13
3.41,0.019500578284482293,77.50000000000426,0,90,3.0,2,8.790219411465157e-14
3.415,0.009439396781978427,77.50000000000216,0,90,3.0,2,4.4537111684756795e-14
3.42,0.004178588733610924,77.5000000000011,0,90,3.0,2,2.25615631560939e-14
3.425,0.0017299316936037381,77.50000000000054,0,90,3.0,2,1.1134277921189199e-14
3.43,0.0008997325756988589,77.50000000000027,0,90,3.0,2,5.567138960594599e-15
3.435,0.001634769674224814,77.50000000000013,0,90,3.0,2,2.637065823439547e-15
3.44,0.00614904736476635,77.50000000000007,0,90,3.0,2,1.465036568577526e-15
3.445,0.02168080359963608,77.50000000000003,0,90,3.0,2,5.860146274310105e-16
3.45,0.06433400338904088,77.50000000000001,0,90,3.0,2,2.9300731371550523e-16
3.455,0.1593410769217493,77.5,0,90,3.0,2,0.0
3.46,0.3291989194808569,77.5,0,90,3.0,2,0.0
3.465,0.5672906802982638,77.5,0,90,3.0,2,0.0
3.47,0.815339152120446,77.5,0,90,3.0,2,0.0
3.475,0.9768711246313155,77.5000028575978,1,90,3.0,2,5.8919542399643876e-08
3.48,0.9726380909165361,77.50000575945259,0,90,3.0,2,1.1875159982045045e-07
3.485,0.7921091683291741,77.50001247170877,0,90,3.0,2,2.571486344639141e-07
3.49,0.49139090102639077,77.5000302285082,0,90,3.0,2,6.232682101925974e-07
3.495,0.15739335672107918,77.50008277928515,0,90,3.0,2,1.7067893845565196e-06
3.5,-0.11102342218909485,77.50024711032393,0,90,3.0,2,5.095058225275896e-06
3.505,-0.2314207883647528,77.500761906128,0,90,3.0,2,1.570940470114036e-05
3.51,-0.2029124434754801,77.50232367895711,0,90,3.0,2,4.791090633219581e-05
3.515,-0.11151350554305876,77.50682980175638,0,90,3.0,2,0.00014082065477076134
3.52,-0.039430666652076896,77.5190818325946,0,90,3.0,2,0.00039343984731121776
3.525,-0.006087703519843621,77.55032658431828,0,90,3.0,2,0.0010376615323357632
3.53,0.005350271385530551,77.62486111399137,0,90,3.0,2,0.00257445595858499
3.535,0.010381647827441833,77.79089628192624,0,90,3.0,2,0.0059978614830151974
3.54,0.015115203303506243,78.13581030968653,0,90,3.0,2,0.013109490921371826
3.545,0.021170964062928475,78.80310418498046,0,90,3.0,2,0.02686812752537021
3.55,0.029082821134029553,80.0036503319219,0,90,3.0,2,0.05162165632828667
3.555,0.03923107061708144,82.00862464608667,0,90,3.0,2,0.09296133290900357
3.56,0.051969043308817596,85.1094351581589,0,90,3.0,2,0.15689557027131756
3.565,0.06760532616283861,89.53588442832962,0,90,3.0,2,0.24816256553256955
3.57,0.08636519236693461,95.34067984553826,0,90,3.0,2,0.36784906898017034
3.575,0.10834733138818661,102.2828802504138,0,90,3.0,2,0.5109872216580165
3.58,0.1334809643017884,109.76314796610146,0,90,3.0,2,0.6652195456928135
3.585,0.16148868344343945,116.8635603773981,0,90,3.0,2,0.8116198015958371
3.59,0.191860907532018,122.51408790040378,0,90,3.0,2,0.9281255237196656
3.595,0.22384764873847726,125.75350534267997,0,90,3.0,2,0.9949176359315458
3.6,0.25647215537198226,126.0,0,90,3.0,2,1.0
3.605,0.2885689161419028,123.22762570772198,0,90,3.0,2,0.9428376434581852
3.61,0.31884566517832524,117.97571147104895,0,90,3.0,2,0.8345507519803907
3.615,0.3459657668955683,111.18720976466966,0,90,3.0,3,0.6945816446323642
3.62,0.3686441789190902,103.94297749733238,0,90,3.0,3,0.5452160308728325
3.625,0.3857476379544367,97.19497900171685,0,90,3.0,3,0.4060820412725123
3.63,0.3963882865005728,91.58715852017986,0,90,3.0,3,0.2904568767047393
3.635,0.4,87.40231943688003,0,90,3.0,3,0.20417153478103164
3.64,0.39638828650057273,84.61776733767618,0,90,3.0,3,0.14675808943662236
3.645,0.38574763795443656,83.01870255620567,0,90,3.0,3,0.11378768157125088
3.65,0.36864417891908974,82.31532374904685,0,90,3.0,3,0.09928502575354338
3.655,0.345965766895568,82.22852513749818,0,90,3.0,3,0.0974953636597563
3.66,0.3188456651783249,82.53379724975913,0,90,3.0,3,0.10378963401565221
3.665,0.28856891614190205,83.07090796955741,0,90,3.0,3,0.11486408184654455
3.67,0.2564721553719815,83.73393365366984,0,90,3.0,3,0.12853471450865642
3.675,0.22384764873847685,84.45472567769907,0,90,3.0,3,0.1433964057257541
3.68,0.19186090753201765,85.18779931345597,0,90,3.0,3,0.15851132605063853
3.685,0.16148868344343878,85.89973780936282,0,90,3.0,3,0.1731904702961406
3.69,0.1334809643017881,86.56315147784285,0,90,3.0,3,0.18686910263593506
3.695,0.10834733138818531,87.15399280259183,0,90,3.0,3,0.1990513979915841
3.7,0.08636519236690572,87.65090403830237,0,90,3.0,3,0.20929699048046127
3.705,0.06760532616242629,88.03559075757407,0,90,3.0,3,0.21722867541389834
3.71,0.05196904332202373,88.2935803580661,0,90,3.0,3,0.22254804861991948
3.715,0.03923107185803287,88.41499512294472,0,90,3.0,3,0.22505144583391168
3.72,0.02908287038705761,88.3951361310454,0,90,3.0,3,0.2246419820834104
3.725,0.02117220077308346,88.23477150863336,0,90,3.0,3,0.22133549502336822
3.73,0.0151361834125735,87.94008324256698,0,90,3.0,3,0.2152594483003502
3.735,0.010626454858290009,87.52227066579813,0,90,3.0,3,0.20664475599583776
3.74,0.007326255555493652,86.99684394559772,0,90,3.0,3,0.19581121537314883
3.745,0.004960179211183015,86.38266910719653,0,90,3.0,3,0.18314781664322752
3.75,0.0032978759379303545,85.70084635302014,0,90,3.0,3,0.16908961552618845
3.755,0.002153242296767213,84.97351438020993,0,90,3.0,3,0.15409308000432853
3.76,0.001380616732225004,84.22267447021218,0,90,3.0,3,0.13861184474664295
3.765,0.0008693106590991584,83.46911983680923,0,90,3.0,3,0.12307463581049953
3.77,0.000537524815942247,82.73153966075022,0,90,3.0,3,0.10786679712887041
3.775,0.0003263951340288585,82.02584581584142,0,90,3.0,3,0.09331640857404992
3.78,0.00019463030985187395,81.36474634664565,0,90,3.0,3,0.07968549168341538
3.785,0.00011397219555062695,80.75756615651035,0,90,3.0,3,0.06716631250536804
3.79,6.55403863487943e-05,80.21029461204587,0,90,3.0,3,0.05588236313496642
3.795,3.701184389455385e-05,79.72582372581968,0,90,3.0,3,0.04589327269731299
3.8,2.0525516217290957e-05,79.30433029623575,0,90,3.0,3,0.037202686520324685
3.805,1.1178128483661116e-05,78.94375108500397,0,90,3.0,3,0.02976806360832922
3.81,5.978135409912517e-06,78.6403012861791,0,90,3.0,3,0.023511366725342178
3.815,3.1396702713238487e-06,78.38899212332203,0,90,3.0,3,0.01832973450148508
3.82,1.6192875458531019e-06,78.18411201851102,0,90,3.0,3,0.014105402443526096
3.825,8.201353897972012e-07,78.01964593661293,0,90,3.0,3,0.010714349208514058
3.83,4.0791415086824765e-07,77.88961786250023,0,90,3.0,3,0.008033357989695478
3.835,1.9923866938774793e-07,77.78835082046433,0,90,3.0,3,0.00594537774153259
3.84,9.556527981051257e-08,77.71064663791375,0,90,3.0,3,0.004343229647706275
3.845,4.501406988770349e-08,77.65189339194916,0,90,3.0,3,0.003131822514415644
3.85,0.0,77.60811208361164,0,90,3.0,3,0.002229115126013279
3.855,0.0,77.57595574061222,0,90,3.0,3,0.0015660977445817639
3.86,0.0,77.55267420338132,0,90,3.0,3,0.0010860660490992786
3.865,0.0,77.53605673168623,0,90,3.0,3,0.0007434377667263946
3.87,0.0,77.5243627185632,0,90,3.0,3,0.0005023240940865256
3.875,0.0,77.5162486074524,0,90,3.0,3,0.00033502283407003855
3.88,0.0,77.51069689058352,0,90,3.0,3,0.00022055444502097765
3.885,0.0,77.50695104289521,0,90,3.0,3,0.00014332047206618516
3.89,0.0,77.50445854743928,0,90,3.0,3,9.192881318112667e-05
3.895,0.0,77.50282285014478,0,90,3.0,3,5.820309576868745e-05
3.9,0.0,77.50176414087863,0,90,3.0,3,3.6374038734734734e-05
3.905,0.0,77.50108825259593,0,90,3.0,3,2.243819785432147e-05
3.91,0.0,77.50066263926765,0,90,3.0,3,1.3662665312272252e-05
3.915,0.0,77.5003982682018,0,90,3.0,3,8.21171550115913e-06
3.92,0.0,77.50023627899034,0,90,3.0,3,4.871731759648515e-06
3.925,0.0,77.50013836478986,0,90,3.0,3,2.8528822651972487e-06
3.93,0.0,77.50007997920402,0,90,3.0,3,1.6490557529262322e-06
3.935,0.0,77.50004563305828,0,90,3.0,3,9.408877995437504e-07
3.94,0.0,77.50002569999755,0,90,3.0,3,5.298968567120065e-07
3.945,0.001684486749771458,77.50001428688657,0,90,3.0,3,2.9457498078382865e-07
3.95,0.004172395771277602,77.50000783958583,0,90,3.0,3,1.6164094502753344e-07
3.955,0.009438687428818865,77.50000424619222,0,90,3.0,3,8.755035503444439e-08
3.96,0.019500507867137046,77.50000227016378,0,90,3.0,3,4.68075005376226e-08
3.965,0.03679496976339974,77.5000011980246,0,90,3.0,3,2.4701538262720017e-08
3.97,0.06340728953298436,77.50000062405849,0,90,3.0,3,1.2867185292053205e-08
3.975,0.09979255396093453,77.50000032087499,0,90,3.0,3,6.61597915055121e-09
3.98,0.14343835518453557,77.50000016285362,0,90,3.0,3,3.3578066787535154e-09
3.985,0.18829581417209276,77.50000008158494,0,90,3.0,3,1.682163778260127e-09
3.99,0.2257481735193119,77.50000004034351,0,90,3.0,3,8.318249090678495e-10
3.995,0.24718154073554727,77.50000001969192,0,90,3.0,3,4.060190625863207e-10
4.0,0.24718154074102772,77.50000000948755,0,90,3.0,3,1.956195938339416e-10
4.005,0.22574817354072055,77.50000000451202,0,90,3.0,3,9.303128714124149e-11
4.01,0.18829581422840957,77.50000000211806,0,90,3.0,3,4.367127507272748e-11
4.015,0.14343835532456656,77.50000000098143,0,90,3.0,3,2.0235671099820222e-11
4.02,0.09979255431561854,77.50000000044888,0,90,3.0,3,9.255222018331663e-12
4.025,0.06340729067170194,77.50000000020265,0,90,3.0,3,4.178284293583105e-12
4.03,0.03679497683410042,77.50000000009031,0,90,3.0,3,1.862061478662036e-12
4.035,0.019500578284482293,77.50000000003972,0,90,3.0,3,8.189554418348371e-13
4.04,0.009439396781978427,77.50000000001725,0,90,3.0,3,3.5571087885062335e-13
4.045,0.004178588733610924,77.50000000000739,0,90,3.0,3,1.523638031320627e-13
4.05,0.0017299316936037381,77.50000000000313,0,90,3.0,3,6.446160901741115e-14
4.055,0.0008997325756988589,77.50000000000131,0,90,3.0,3,2.695667286182648e-14
4.06,0.001634769674224814,77.50000000000054,0,90,3.0,3,1.1134277921189199e-14
4.065,0.00614904736476635,77.50000000000021,0,90,3.0,3,4.395109705732579e-15
4.07,0.02168080359963608,77.50000000000009,0,90,3.0,3,1.7580438822930315e-15
4.075,0.06433400338904088,77.50000000000003,0,90,3.0,3,5.860146274310105e-16
4.08,0.1593410769217493,77.50000000000001,0,90,3.0,3,2.9300731371550523e-16
4.085,0.3291989194808569,77.5,0,90,3.0,3,0.0
4.09,0.5672906802982638,77.5,0,90,3.0,3,0.0
4.095,0.815339152120446,77.5,0,90,3.0,3,0.0
4.1,0.9768711246313155,77.5000028564677,1,90,3.0,3,5.889624128602796e-08
4.105,0.9726380909165361,77.50000545335169,0,90,3.0,3,1.1244024103548654e-07
4.11,0.7921091683291741,77.50001103870419,0,90,3.0,3,2.2760214818910904e-07
4.115,0.49139090102639077,77.50002451145392,0,90,3.0,3,5.053908023807342e-07
4.12,0.15739335672107918,77.50006056508865,0,90,3.0,3,1.2487647143423357e-06
4.125,-0.11102342218909485,77.500163159277,0,90,3.0,3,3.364108803999002e-06
4.13,-0.2314207883647528,77.50045963921588,0,90,3.0,3,9.477097234556608e-06
4.135,-0.2029124434754801,77.50130157200853,0,90,3.0,3,2.6836536258334144e-05
4.14,-0.11151350554305876,77.50360621062502,0,90,3.0,3,7.435485824789184e-05
4.145,-0.039430666652076896,77.50962435840236,0,90,3.0,3,0.0001984403794301553
4.15,-0.006087703519843621,77.5245336611205,0,90,3.0,3,0.0005058486828969172
4.155,0.005350271385530551,77.55946841825335,0,90,3.0,3,0.0012261529536772287
4.16,0.010381647827441833,77.63674715233715,0,90,3.0,3,0.002819528914168054
4.165,0.015115203303506243,77.79792448353166,0,90,3.0,3,0.006142772856322871
4.17,0.021170964062928475,78.11453494517251,0,90,3.0,3,0.012670823611804292
4.175,0.029082821134029553,78.69968859351175,0,90,3.0,3,0.0247358472889021
4.18,0.03923107061708144,79.71601941372563,0,90,3.0,3,0.04569112193248727
4.185,0.051969043308817596,81.3726112396058,0,90,3.0,3,0.07984765442486191
4.19,0.06760532616283861,83.90214348528451,0,90,3.0,3,0.13200295845947446
4.195,0.08636519236693461,87.51194056320449,0,90,3.0,3,0.2064317641897833
4.2,0.10834733138818661,92.31057839827544,0,90,3.0,3,0.305372750479906
4.205,0.1334809643017884,98.22445209684186,0,90,3.0,3,0.42730829065653314
4.21,0.16148868344343945,104.93176617201091,0,90,3.0,3,0.5656034262270291
4.215,0.191860907532018,111.84734002058431,0,90,3.0,3,0.7081925777440065
4.22,0.22384764873847726,118.18353745375319,0,90,3.0,3,0.8388358237887256
4.225,0.25647215537198226,123.08912705128517,0,90,3.0,3,0.9399820010574262
4.23,0.2885689161419028,125.83623498218132,0,90,3.0,3,0.9966234016944603
4.235,0.31884566517832524,126.0,0,90,3.0,3,1.0
4.24,0.3459657668955683,123.57027949337669,0,90,3.0,3,0.9499026699665296
4.245,0.3686441789190902,118.95531468006659,0,90,3.0,3,0.8547487562900329
4.25,0.3857476379544367,112.8759914170416,0,90,3.0,3,0.7294018848874557
4.255,0.3963882865005728,106.18868862199935,0,90,3.0,3,0.5915193530309144
4.26,0.4,99.69679952472116,0,90,3.0,3,0.45766596958187955
4.265,0.39638828650057273,94.00737257354771,0,90,3.0,3,0.3403581973927363
4.27,0.38574763795443656,89.46469600444867,0,90,3.0,3,0.24669476297832307
4.275,0.36864417891908974,86.1609302263463,0,90,3.0,3,0.1785758809555937
4.28,0.345965766895568,83.99956239812894,0,90,3.0,3,0.1340115958377102
4.285,0.3188456651783249,82.77835198542279,0,90,3.0,3,0.10883199969943892
4.29,0.28856891614190205,82.26364992927617,0,90,3.0,3,0.09821958617064268
4.295,0.2564721553719815,82.24082003149722,0,90,3.0,3,0.0977488666288087
4.3,0.22384764873847685,82.53843885242503,0,90,3.0,3,0.1038853371634027
4.305,0.19186090753201765,83.03228371198631,0,90,3.0,3,0.11406770540177957
4.31,0.16148868344343878,83.63787548612598,0,90,3.0,3,0.12655413373455623
4.315,0.1334809643017881,84.29912711951967,0,90,3.0,3,0.14018818803133334
4.32,0.10834733138818531,84.97779720332112,0,90,3.0,3,0.15418138563548694
4.325,0.08636519236690572,85.64573159835365,0,90,3.0,3,0.167953228832034
4.33,0.06760532616242629,86.28008889382897,0,90,3.0,3,0.18103276069750462
4.335,0.05196904332202373,86.86092112745918,0,90,3.0,3,0.19300868304039542
4.34,0.03923107185803287,87.37030590214425,0,90,3.0,3,0.2035114618998815
4.345,0.02908287038705761,87.79235702367464,0,90,3.0,3,0.2122135468798895
4.35,0.02117220077308346,88.11364773149214,0,90,3.0,3,0.2188380975565389
4.355,0.0151361834125735,88.32375687702194,0,90,3.0,3,0.22317024488705023
4.36,0.010626454858290009,88.41576824699521,0,90,3.0,3,0.2250673865359838
4.365,0.007326255555493652,88.38662664092895,0,90,3.0,3,0.22446652867894748
4.37,0.004960179211183015,88.2372990391203,0,90,3.0,3,0.22138760905402685
4.375,0.0032978759379303545,87.97271905935307,0,90,3.0,3,0.21593235173923853
4.38,0.002153242296767213,87.60151563015489,0,90,3.0,3,0.20827867278669882
4.385,0.001380616732225004,87.1355455413843,0,90,3.0,3,0.19867104209039801
4.39,0.0008693106590991584,86.58926483861305,0,90,3.0,3,0.18740752244562983
4.395,0.000537524815942247,85.97898542150867,0,90,3.0,3,0.17482444168059108
4.4,0.0003263951340288585,85.32207004119032,0,90,3.0,3,0.16127979466371783
4.405,0.00019463030985187395,84.63612080609002,0,90,3.0,3,0.1471365114657736
4.41,0.00011397219555062695,83.93821340240603,0,90,3.0,3,0.1327466680908461
4.415,6.55403863487943e-05,83.24422209684201,0,90,3.0,3,0.11843756900705173
4.42,3.701184389455385e-05,82.5682702000534,0,90,3.0,3,0.10450041649594649
4.425,2.0525516217290957e-05,81.92232827693294,0,90,3.0,3,0.09118202632851431
4.43,1.1178128483661116e-05,81.31596934262296,0,90,3.0,3,0.0786797802602673
4.435,5.978135409912517e-06,80.7562778662365,0,90,3.0,3,0.06713974981930931
4.44,3.1396702713238487e-06,80.24789870051464,0,90,3.0,3,0.056657705165250295
4.445,1.6192875458531019e-06,79.79320384552783,0,90,3.0,3,0.047282553516037676
4.45,8.201353897972012e-07,79.39254966509434,0,90,3.0,3,0.03902164257926466
4.455,4.0791415086824765e-07,79.04459487797472,0,90,3.0,3,0.03184731707164365
4.46,1.9923866938774793e-07,78.74665010120292,0,90,3.0,3,0.025704125797998287
4.465,9.556527981051257e-08,78.4950324497986,0,90,3.0,3,0.02051613298553815
4.47,4.501406988770349e-08,78.28540306685832,0,90,3.0,3,0.0161938776671819
4.475,0.0,78.11307078741693,0,90,3.0,3,0.012640634792101656
4.48,0.0,77.97325077488534,0,90,3.0,3,0.00975774793578028
4.485,0.0,77.86127235160261,0,90,3.0,3,0.007448914466033154
4.49,0.0,77.7727349529587,0,90,3.0,3,0.005623401091931963
4.495,0.0,77.70361489944557,0,90,3.0,3,0.004198245349393168
4.5,0.0,77.65032838439267,0,90,3.0,3,0.0030995543173745416
4.505,0.0,77.60975772765077,0,90,3.0,3,0.002263045930943784
4.51,0.0,77.57924865595666,0,90,3.0,3,0.0016339929063229112
4.515,0.0,77.55658631135569,0,90,3.0,3,0.001166728069189428
4.52,0.0,77.53995706181816,0,90,3.0,3,0.0008238569447042692
4.525,0.0,77.5279021961484,0,90,3.0,3,0.000575303013369142
4.53,0.0,77.5192684114055,0,90,3.0,3,0.00039728683310320627
4.535,0.0,77.51315879480705,0,90,3.0,3,0.000271315356846487
4.54,0.0,77.50888687354049,0,90,3.0,3,0.00018323450598948688
4.545,0.0,77.50593532585206,0,90,3.0,3,0.0001223778526198859
4.55,0.0,77.50392015117043,0,90,3.0,3,8.082785918419439e-05
4.555,0.0,77.5025604938901,0,90,3.0,3,5.279368845569395e-05
4.56,0.0,77.50165389279071,0,90,3.0,3,3.4100882282752264e-05
4.565,0.0,77.5010564614286,0,90,3.0,3,2.1782709868122447e-05
4.57,0.0,77.5006673637583,0,90,3.0,3,1.3760077490646321e-05
4.575,0.0,77.50041690228181,0,90,3.0,3,8.595923336355385e-06
4.58,0.0,77.50025755418267,0,90,3.0,3,5.310395518912647e-06
4.585,0.0,77.50015734959284,0,90,3.0,3,3.2443215018505274e-06
4.59,0.0,77.5000950660219,0,90,3.0,3,1.9601241628662914e-06
4.595,0.0,77.5000567999168,0,90,3.0,3,1.1711323052683848e-06
4.6,0.0,77.50003356083515,0,90,3.0,3,6.91975982456909e-07
4.605,0.0,77.50001961013126,0,90,3.0,3,4.0433260332084156e-07
4.61,0.0,77.50001133159184,0,90,3.0,3,2.3364106877378027e-07
4.615,0.0,77.50000647536162,0,90,3.0,3,1.3351261063502365e-07
4.62,0.001684486749771458,77.50000365931513,0,90,3.0,3,7.544979642205494e-08
4.625,0.004172395771277602,77.50000204502338,0,90,3.0,3,4.216543049654685e-08
4.63,0.009438687428818865,77.50000113021072,0,90,3.0,3,2.3303313807830526e-08
4.635,0.019500507867137046,77.50000061770804,0,90,3.0,3,1.2736248234751216e-08
4.64,0.03679496976339974,77.50000033386414,0,90,3.0,3,6.8837966255065934e-09
4.645,0.06340728953298436,77.50000017845099,0,90,3.0,3,3.6794018370463013e-09
4.65,0.09979255396093453,77.50000009432587,0,90,3.0,3,1.9448632944668417e-09
4.655,0.14343835518453557,77.50000004930664,0,90,3.0,3,1.0166316540037479e-09
4.66,0.18829581417209276,77.5000000254884,0,90,3.0,3,5.255341087850519e-10
4.665,0.2257481735193119,77.50000001302995,0,90,3.0,3,2.686586989530605e-10
4.67,0.24718154073554727,77.50000000658727,0,90,3.0,3,1.3582002418505787e-10
4.675,0.24718154074102772,77.5000000032933,0,90,3.0,3,6.790297991699976e-11
4.68,0.22574817354072055,77.50000000162824,0,90,3.0,3,3.3571898983581445e-11
4.685,0.18829581422840957,77.5000000007961,0,90,3.0,3,1.6414562721656317e-11
4.69,0.14343835532456656,77.50000000038493,0,90,3.0,3,7.936689106611891e-12
4.695,0.09979255431561854,77.50000000018406,0,90,3.0,3,3.795030727243224e-12
4.7,0.06340729067170194,77.50000000008704,0,90,3.0,3,1.7946697965074695e-12
4.705,0.03679497683410042,77.5000000000407,0,90,3.0,3,8.39172946481207e-13
4.71,0.019500578284482293,77.50000000001882,0,90,3.0,3,3.879416833593289e-13
4.715,0.009439396781978427,77.50000000000861,0,90,3.0,3,1.7756243211159617e-13
4.72,0.004178588733610924,77.5000000000039,0,90,3.0,3,8.028400395804844e-14
4.725,0.0017299316936037381,77.50000000000173,0,90,3.0,3,3.574689227329164e-14
4.73,0.0008997325756988589,77.50000000000077,0,90,3.0,3,1.5822394940637283e-14
4.735,0.001634769674224814,77.50000000000034,0,90,3.0,3,7.032175529172126e-15
4.74,0.00614904736476635,77.50000000000014,0,90,3.0,3,2.930073137155052e-15
4.745,0.02168080359963608,77.50000000000006,0,90,3.0,3,1.172029254862021e-15
4.75,0.06433400338904088,77.50000000000003,0,90,3.0,3,5.860146274310105e-16
4.755,0.1593410769217493,77.50000000000001,0,90,3.0,3,2.9300731371550523e-16
4.76,0.3291989194808569,77.5,0,90,3.0,3,0.0
4.765,0.5672906802982638,77.5,0,90,3.0,3,0.0
4.77,0.815339152120446,77.5,0,90,3.0,3,0.0
4.775,0.9768711246313155,77.50000284150002,1,90,3.0,3,5.858762928180591e-08
4.78,0.9726380909165361,77.5000055087254,0,90,3.0,3,1.1358196688794948e-07
4.785,0.7921091683291741,77.50001136395807,0,90,3.0,3,2.3430841373428661e-07
4.79,0.49139090102639077,77.50002585890292,0,90,3.0,3,5.331732559967612e-07
4.795,0.15739335672107918,77.50006577270929,0,90,3.0,3,1.356138335905626e-06
4.8,-0.11102342218909485,77.50018247875063,0,90,3.0,3,3.76244846661487e-06
4.805,-0.2314207883647528,77.50052776496497,0,90,3.0,3,1.0881751855078582e-05
4.81,-0.2029124434754801,77.50152756139154,0,90,3.0,3,3.1496111165786474e-05
4.815,-0.11151350554305876,77.50430755613382,0,90,3.0,3,8.88155903881271e-05
4.82,-0.039430666652076896,77.5116563600092,0,90,3.0,4,0.00024033731977727622
4.825,-0.006087703519843621,77.53002739545968,0,90,3.0,4,0.0006191215558697577
4.83,0.005350271385530551,77.57333096905042,0,90,3.0,4,0.0015119787433075698
4.835,0.010381647827441833,77.66940490223725,0,90,3.0,4,0.0034928845822112743
4.84,0.015115203303506243,77.86976747664984,0,90,3.0,4,0.007624071683501874
4.845,0.021170964062928475,78.26211431813414,0,90,3.0,4,0.01571369728111625
4.85,0.029082821134029553,78.98267513398078,0,90,3.0,4,0.03057062131919128
4.855,0.03923107061708144,80.22218766058688,0,90,3.0,4,0.05612758063065738
4.86,0.051969043308817596,82.21612057642412,0,90,3.0,4,0.09723959951389932
4.865,0.06760532616283861,85.20932922752098,0,90,3.0,4,0.15895524180455634
4.87,0.08636519236693461,89.39039798617173,0,90,3.0,4,0.24516284507570588
4.875,0.10834733138818661,94.8028006534978,0,90,3.0,4,0.35675877636077935
4.88,0.1334809643017884,101.25612781731577,0,90,3.0,4,0.48981706839826333
4.885,0.16148868344343945,108.27370857382006,0,90,3.0,4,0.6345094551303105
4.89,0.191860907532018,115.11341104223824,0,90,3.0,4,0.775534248293572
4.895,0.22384764873847726,120.88000833622657,0,90,3.0,4,0.8944331615716817
4.9,0.25647215537198226,124.71329532894552,0,90,3.0,4,0.9734700067823818
4.905,0.2885689161419028,126.0,0,90,3.0,4,1.0
4.91,0.31884566517832524,124.53834900968857,0,90,3.0,4,0.9698628661791459
4.915,0.3459657668955683,120.59493192202842,0,90,3.0,4,0.8885552973614108
4.92,0.3686441789190902,114.83222413300682,0,90,3.0,4,0.7697365800619963
4.925,0.3857476379544367,108.13422420586735,0,90,3.0,4,0.6316334887807702
4.93,0.3963882865005728,101.3936098555063,0,90,3.0,4,0.492651749598068
4.935,0.4,95.33064507931,0,90,3.0,4,0.3676421665837114
4.94,0.39638828650057273,90.39185276201252,0,90,3.0,4,0.2658113971548973
4.945,0.38574763795443656,86.73955542986523,0,90,3.0,4,0.19050629752299453
4.95,0.36864417891908974,84.31059562557269,0,90,3.0,4,0.14042465207366367
4.955,0.345965766895568,82.9065602268215,0,90,3.0,4,0.11147546859425768
4.96,0.3188456651783249,82.28033336831763,0,90,3.0,4,0.09856357460448717
4.965,0.28856891614190205,82.19778113694667,0,90,3.0,4,0.09686146674116852
4.97,0.2564721553719815,82.46927305071628,0,90,3.0,4,0.1024592381590986
4.975,0.22384764873847685,82.95682150774277,0,90,3.0,4,0.11251178366479946
4.98,0.19186090753201765,83.56687754099825,0,90,3.0,4,0.12509025857728348
4.985,0.16148868344343878,84.23787322707521,0,90,3.0,4,0.1389252211768085
4.99,0.1334809643017881,84.92832444149448,0,90,3.0,4,0.15316132869060786
4.995,0.10834733138818531,85.60801881012263,0,90,3.0,4,0.16717564556953876
5.0,0.08636519236690572,86.25260772478875,0,90,3.0,4,0.18046613865543806
5.005,0.06760532616242629,86.84089403560439,0,90,3.0,4,0.19259575331143078
5.01,0.05196904332202373,87.35388295636871,0,90,3.0,4,0.20317284446121045
5.015,0.03923107185803287,87.77481720348132,0,90,3.0,4,0.21185190110270763
5.02,0.02908287038705761,88.08966243795557,0,90,3.0,4,0.21834355542176428
5.025,0.02117220077308346,88.28771551986046,0,90,3.0,4,0.22242712412083412
5.03,0.0151361834125735,88.36214631799686,0,90,3.0,4,0.22396177975251258
5.035,0.010626454858290009,88.31036736727964,0,90,3.0,4,0.22289417252122967
5.04,0.007326255555493652,88.13417633763018,0,90,3.0,4,0.21926136778618927
5.045,0.004960179211183015,87.83965035915766,0,90,3.0,4,0.213188667199127
5.05,0.0032978759379303545,87.43679744267308,0,90,3.0,4,0.20488242149841407
5.055,0.002153242296767213,86.9389917989111,0,90,3.0,4,0.1946183876064145
5.06,0.001380616732225004,86.36223716698538,0,90,3.0,4,0.18272653952547177
5.065,0.0008693106590991584,85.72431461211428,0,90,3.0,4,0.16957349715699555
5.07,0.000537524815942247,85.04387789533241,0,90,3.0,4,0.15554387413056525
5.075,0.0003263951340288585,84.33956014461978,0,90,3.0,4,0.14102185865195427
5.08,0.00019463030985187395,83.62915046826862,0,90,3.0,4,0.1263742364591468
5.085,0.00011397219555062695,82.92888923969679,0,90,3.0,4,0.11193586061230489
5.09,6.55403863487943e-05,82.25291740154772,0,90,3.0,4,0.09799829693912823
5.095,3.701184389455385e-05,81.61289990625842,0,90,3.0,4,0.08480205992285401
5.1,2.0525516217290957e-05,81.01782800176962,0,90,3.0,4,0.07253253611896114
5.105,1.1178128483661116e-05,80.47399100328275,0,90,3.0,4,0.0613194021295412
5.11,5.978135409912517e-06,79.9850966673004,0,90,3.0,4,0.05123910654227622
5.115,3.1396702713238487e-06,79.55251108450634,0,90,3.0,4,0.04231981617538835
5.12,1.6192875458531019e-06,79.17558445710158,0,90,3.0,4,0.034548133136115024
5.125,8.201353897972012e-07,78.85202811529082,0,90,3.0,4,0.027876868356511774
5.13,4.0791415086824765e-07,78.57831019218708,0,90,3.0,4,0.022233199838908767
5.135,1.9923866938774793e-07,78.35004180586505,0,90,3.0,4,0.01752663517247519
5.14,9.556527981051257e-08,78.16233155760507,0,90,3.0,4,0.013656320775362298
5.145,4.501406988770349e-08,78.01009280593172,0,90,3.0,4,0.01051737744189113
5.15,0.0,77.88829476616297,0,90,3.0,4,0.008006077652844772
5.155,0.0,77.79215442099877,0,90,3.0,4,0.006023802494820002
5.16,0.0,77.71727110655786,0,90,3.0,4,0.004479816630058962
5.165,0.0,77.65970925268655,0,90,3.0,4,0.003292974282196985
5.17,0.0,77.61603707332719,0,90,3.0,4,0.0023925169758183882
5.175,0.0,77.58333012691409,0,90,3.0,4,0.0017181469466823053
5.18,0.0,77.55914879585012,0,90,3.0,4,0.0012195628010334112
5.185,0.0,77.54149811404007,0,90,3.0,4,0.0008556312173209687
5.19,0.0,77.52877725728622,0,90,3.0,4,0.0005933455110561316
5.195,0.0,77.51972463735181,0,90,3.0,4,0.0004066935536456509
5.2,0.0,77.51336310074132,0,90,3.0,4,0.00027552785033640716
5.205,0.0,77.50894837231351,0,90,3.0,4,0.0001845025219280774
5.21,0.0,77.50592269592266,0,90,3.0,4,0.00012211744170440163
5.215,0.0,77.50387465835057,0,90,3.0,4,7.988986289831832e-05
5.22,0.0,77.50250545138663,0,90,3.0,4,5.1658791476807595e-05
5.225,0.0,77.50160131633649,0,90,3.0,4,3.301683168021236e-05
5.23,0.0,77.50101159546982,0,90,3.0,4,2.0857638552975802e-05
5.235,0.0,77.5006316481158,0,90,3.0,4,1.3023672490711779e-05
5.24,0.0,77.50038983616128,0,90,3.0,4,8.037858995371654e-06
5.245,0.0,77.50023780863849,0,90,3.0,4,4.903270896659603e-06
5.25,0.0,77.50014338764066,0,90,3.0,4,2.9564461992214493e-06
5.255,0.0,77.50008545439401,0,90,3.0,4,1.7619462682629541e-06
5.26,0.0,77.5000503379664,0,90,3.0,4,1.0378962144255338e-06
5.265,0.0,77.50002930863025,0,90,3.0,4,6.04301654562995e-07
5.27,0.0,77.50001686684932,0,90,3.0,4,3.47770089106656e-07
5.275,0.0,77.50000959424924,0,90,3.0,4,1.9781957185729233e-07
5.28,0.001684486749771458,77.50000539419466,0,90,3.0,4,1.1122050843190777e-07
5.285,0.004172395771277602,77.50000299764929,0,90,3.0,4,6.180720184911667e-08
5.29,0.009438687428818865,77.50000164654504,0,90,3.0,4,3.394938235689233e-08
5.295,0.019500507867137046,77.50000089393305,0,90,3.0,4,1.8431609246878916e-08
5.3,0.03679496976339974,77.50000047970579,0,90,3.0,4,9.890841025930826e-09
5.305,0.06340728953298436,77.5000002544389,0,90,3.0,4,5.246162926755695e-09
5.31,0.09979255396093453,77.50000013339228,0,90,3.0,4,2.750356222265706e-09
5.315,0.14343835518453557,77.50000006912201,0,90,3.0,4,1.4251960711243151e-09
5.32,0.18829581417209276,77.50000003540305,0,90,3.0,4,7.299597444253993e-10
5.325,0.2257481735193119,77.5000000179227,0,90,3.0,4,3.695402380433678e-10
5.33,0.24718154073554727,77.5000000089682,0,90,3.0,4,1.8491134854689477e-10
5.335,0.24718154074102772,77.50000000443552,0,90,3.0,4,9.145402877151092e-11
5.34,0.22574817354072055,77.50000000216832,0,90,3.0,4,4.4707641941339216e-11
5.345,0.18829581422840957,77.50000000104771,0,90,3.0,4,2.160225721098934e-11
5.35,0.14343835532456656,77.50000000050038,0,90,3.0,4,1.0317080523236655e-11
5.355,0.09979255431561854,77.5000000002362,0,90,3.0,4,4.870074561265413e-12
5.36,0.06340729067170194,77.5000000001102,0,90,3.0,4,2.272271717863743e-12
5.365,0.03679497683410042,77.50000000005083,0,90,3.0,4,1.0480871611603622e-12
5.37,0.019500578284482293,77.50000000002316,0,90,3.0,4,4.776019213562735e-13
5.375,0.009439396781978427,77.50000000001044,0,90,3.0,4,2.1536037558089634e-13
5.38,0.004178588733610924,77.50000000000465,0,90,3.0,4,9.581339158497021e-14
5.385,0.0017299316936037381,77.50000000000205,0,90,3.0,4,4.2193053175032755e-14
5.39,0.0008997325756988589,77.5000000000009,0,90,3.0,4,1.845946076407683e-14
5.395,0.001634769674224814,77.50000000000038,0,90,3.0,4,7.911197470318642e-15
5.4,0.00614904736476635,77.50000000000016,0,90,3.0,4,3.2230804508705575e-15
5.405,0.02168080359963608,77.50000000000007,0,90,3.0,4,1.465036568577526e-15
5.41,0.06433400338904088,77.50000000000003,0,90,3.0,4,5.860146274310105e-16
5.415,0.1593410769217493,77.50000000000001,0,90,3.0,4,2.9300731371550523e-16
5.42,0.3291989194808569,77.5,0,90,3.0,4,0.0
5.425,0.5672906802982638,77.5,0,90,3.0,4,0.0
5.43,0.815339152120446,77.5,0,90,3.0,4,0.0
5.435,0.9768711246313155,77.50000284146185,1,90,3.0,4,5.858684226416127e-08
5.44,0.9726380909165361,77.50000566108393,0,90,3.0,4,1.1672338004733394e-07
5.445,0.7921091683291741,77.50001208193964,0,90,3.0,4,2.49112157614514e-07
5.45,0.49139090102639077,77.50002873397177,0,90,3.0,4,5.924530262760039e-07
5.455,0.15739335672107918,77.50007697165655,0,90,3.0,4,1.5870444650369519e-06
5.46,-0.11102342218909485,77.5002248661891,0,90,3.0,4,4.636416270107747e-06
5.465,-0.2314207883647528,77.50068051525129,0,90,3.0,4,1.4031242294631925e-05
5.47,-0.2029124434754801,77.50204432602273,0,90,3.0,4,4.215105201498454e-05
5.475,-0.11151350554305876,77.50593777613041,0,90,3.0,4,0.00012242837382286874
5.48,-0.039430666652076896,77.5164399231014,0,90,3.0,4,0.00033896748662683775
5.485,-0.006087703519843621,77.5430754284251,0,90,3.0,4,0.0008881531634040833
5.49,0.005350271385530551,77.60641853580098,0,90,3.0,4,0.0021941966144532724
5.495,0.010381647827441833,77.74742477142738,0,90,3.0,4,0.005101541678914966
5.5,0.015115203303506243,78.0408498094408,0,90,3.0,4,0.011151542462696914
5.505,0.021170964062928475,78.61092688858213,0,90,3.0,4,0.022905709042930475
5.51,0.029082821134029553,79.6435860439409,0,90,3.0,4,0.04419765039053402
5.515,0.03923107061708144,81.38481376725014,0,90,3.0,4,0.08009925293299251
5.52,0.051969043308817596,84.11198300521768,0,90,3.0,4,0.13632954649933363
5.525,0.06760532616283861,88.06822919931167,0,90,3.0,4,0.21790163297549842
5.53,0.08636519236693461,93.3624433467146,0,90,3.0,4,0.3270606875611258
5.535,0.10834733138818661,99.85796314992469,0,90,3.0,4,0.4609889309262822
5.54,0.1334809643017884,107.09329543873122,0,90,3.0,4,0.6101710399738396
5.545,0.16148868344343945,114.28467844096284,0,90,3.0,4,0.7584469781641822
5.55,0.191860907532018,120.44171590167264,0,90,3.0,4,0.8853962041581988
5.555,0.22384764873847726,124.58441298286456,0,90,3.0,4,0.9708126388219498
5.56,0.25647215537198226,126.0,0,90,3.0,4,1.0
5.565,0.2885689161419028,124.44805851086043,0,90,3.0,4,0.9680012064094935
5.57,0.31884566517832524,120.23336770229193,0,90,3.0,4,0.8811003649957099
5.575,0.3459657668955683,114.1166790767293,0,90,3.0,4,0.7549830737469958
5.58,0.3686441789190902,107.09975419133913,0,90,3.0,4,0.6103042101307037
5.585,0.3857476379544367,100.16845034237797,0,90,3.0,4,0.46739072870882403
5.59,0.3963882865005728,94.08390247082684,0,90,3.0,4,0.34193613341911017
5.595,0.4,89.27867445647695,0,90,3.0,4,0.2428592671438546
5.6,0.39638828650057273,85.864344835223,0,90,3.0,4,0.1724607182520205
5.605,0.38574763795443656,83.71609774519702,0,90,3.0,4,0.1281669638184952
5.61,0.36864417891908974,82.5841699556867,0,90,3.0,4,0.10482824650900421
5.615,0.345965766895568,82.19056841459238,0,90,3.0,4,0.09671275081633768
5.62,0.3188456651783249,82.29034138789683,0,90,3.0,4,0.098769925523646
5.625,0.28856891614190205,82.69662523703138,0,90,3.0,4,0.10714691210373987
5.63,0.2564721553719815,83.28017122082787,0,90,3.0,4,0.11917878805830655
5.635,0.22384764873847685,83.95647708211006,0,90,3.0,4,0.1331232388063929
5.64,0.19186090753201765,84.67048907652408,0,90,3.0,4,0.1478451355984346
5.645,0.16148868344343878,85.38412783726835,0,90,3.0,4,0.16255933685089385
5.65,0.1334809643017881,86.06814495598806,0,90,3.0,4,0.17666278259769197
5.655,0.10834733138818531,86.69778161152293,0,90,3.0,4,0.1896449816808851
5.66,0.08636519236690572,87.25104168924796,0,90,3.0,4,0.20105240596387536
5.665,0.06760532616242629,87.70847176089451,0,90,3.0,4,0.21048395383287652
5.67,0.05196904332202373,88.05365884673252,0,90,3.0,4,0.21760121333469107
5.675,0.03923107185803287,88.27395822955663,0,90,3.0,4,0.2221434686506521
5.68,0.02908287038705761,88.36117218288662,0,90,3.0,4,0.22394169449250761
5.685,0.02117220077308346,88.31202622987558,0,90,3.0,4,0.22292837587372338
5.69,0.0151361834125735,88.12836388999429,0,90,3.0,4,0.2191415235050369
5.695,0.010626454858290009,87.81702923229327,0,90,3.0,4,0.2127222522122323
5.7,0.007326255555493652,87.38944286440807,0,90,3.0,4,0.20390603844140345
5.705,0.004960179211183015,86.86090652517962,0,90,3.0,4,0.1930083819624663
5.71,0.0032978759379303545,86.24969489964558,0,90,3.0,4,0.18040608040506342
5.715,0.002153242296767213,85.57600963817242,0,90,3.0,4,0.16651566264273035
5.72,0.001380616732225004,84.86087877929835,0,90,3.0,4,0.15177069648037828
5.725,0.0008693106590991584,84.1250844861679,0,90,3.0,4,0.13659968012717333
5.73,0.000537524815942247,83.38819378194358,0,90,3.0,4,0.12140605735966155
5.735,0.0003263951340288585,82.66775226181372,0,90,3.0,4,0.10655159302708696
5.74,0.00019463030985187395,81.97868166934622,0,90,3.0,4,0.0923439519452828
5.745,0.00011397219555062695,81.33290118404989,0,90,3.0,4,0.07902889039278119
5.75,6.55403863487943e-05,80.73917169351294,0,90,3.0,4,0.066787045227071
5.755,3.701184389455385e-05,80.20314431499443,0,90,3.0,4,0.05573493432978211
5.76,2.0525516217290957e-05,79.72758053473622,0,90,3.0,4,0.04592949556157153
5.765,1.1178128483661116e-05,79.31270241863277,0,90,3.0,4,0.03737530760067562
5.77,5.978135409912517e-06,78.95662759204296,0,90,3.0,4,0.030033558598823985
5.775,3.1396702713238487e-06,78.6558446534466,0,90,3.0,4,0.02383184852467202
5.78,1.6192875458531019e-06,78.40568947884991,0,90,3.0,4,0.018674009873193977
5.785,8.201353897972012e-07,78.20079032117712,0,90,3.0,4,0.014449284972724198
5.79,4.0791415086824765e-07,78.03545846105052,0,90,3.0,4,0.011040380640216993
5.795,1.9923866938774793e-07,77.90401025968183,0,90,3.0,4,0.008330108447047955
5.8,9.556527981051257e-08,77.80101484957184,0,90,3.0,4,0.006206491743749331
5.805,4.501406988770349e-08,77.72146870454772,0,90,3.0,4,0.004566365042220984
5.81,0.0,77.66090358782964,0,90,3.0,4,0.0033175997490646754
5.815,0.0,77.61543779137935,0,90,3.0,4,0.0023801606469968993
5.82,0.0,77.58178227885897,0,90,3.0,4,0.001686232553793126
5.825,0.0,77.55721360654816,0,90,3.0,4,0.0011796619906837135
5.83,0.0,77.539524679794,0,90,3.0,4,0.0008149418514226595
5.835,0.0,77.5269628821488,0,90,3.0,4,0.0005559357144081271
5.84,0.0,77.51816323428235,0,90,3.0,4,0.0003744996759248408
5.845,0.0,77.51208228217608,0,90,3.0,4,0.0002491192201253834
5.85,0.0,77.50793658518138,0,90,3.0,4,0.00016364093157491326
5.855,0.0,77.5051481039483,0,90,3.0,4,0.00010614647316084095
5.86,0.0,77.50329753832021,0,90,3.0,4,6.799048082910107e-05
5.865,0.0,77.50208574548876,0,90,3.0,4,4.300506162383865e-05
5.87,0.0,77.50130275183275,0,90,3.0,4,2.686086253099591e-05
5.875,0.0,77.50080350945366,0,90,3.0,4,1.6567205230122108e-05
5.88,0.0,77.50048938336957,0,90,3.0,4,1.0090378753998781e-05
5.885,0.0,77.5002943312271,0,90,3.0,4,6.068685094758096e-06
5.89,0.0,77.50017480441339,0,90,3.0,4,3.6042147090816777e-06
5.895,0.0,77.50010251734817,0,90,3.0,4,2.1137597560393317e-06
5.9,0.0,77.50005937057459,0,90,3.0,4,1.2241355585553447e-06
5.905,0.0,77.50003395267987,0,90,3.0,4,7.000552550755284e-07
5.91,0.0,77.50001917369362,0,90,3.0,4,3.9533388898816314e-07
5.915,0.001684486749771458,77.50001069218405,0,90,3.0,4,2.204574030591025e-07
5.92,0.004172395771277602,77.50000588783982,0,90,3.0,4,1.2139875915983288e-07
5.925,0.009438687428818865,77.50000320165451,0,90,3.0,4,6.601349500482514e-08
5.93,0.019500507867137046,77.50000171918202,0,90,3.0,4,3.5447052029020285e-08
5.935,0.03679496976339974,77.50000091158711,0,90,3.0,4,1.8795610474663807e-08
5.94,0.06340728953298436,77.50000047731316,0,90,3.0,4,9.841508556549802e-09
5.945,0.09979255396093453,77.50000024679568,0,90,3.0,4,5.088570701117692e-09
5.95,0.14343835518453557,77.50000012600873,0,90,3.0,4,2.5981181192712274e-09
5.955,0.18829581417209276,77.50000006353201,0,90,3.0,4,1.3099384211938703e-09
5.96,0.2257481735193119,77.50000003163105,0,90,3.0,4,6.52186520138579e-10
5.965,0.24718154073554727,77.50000001555118,0,90,3.0,4,3.2064288452321053e-10
5.97,0.24718154074102772,77.50000000754991,0,90,3.0,4,1.5566833961614618e-10
5.975,0.22574817354072055,77.5000000036195,0,90,3.0,4,7.462896280333919e-11
5.98,0.18829581422840957,77.5000000017135,0,90,3.0,4,3.5329942865874475e-11
5.985,0.14343835532456656,77.50000000080104,0,90,3.0,4,1.65162362595156e-11
5.99,0.09979255431561854,77.50000000036978,0,90,3.0,4,7.624343310191161e-12
5.995,0.06340729067170194,77.50000000016857,0,90,3.0,4,3.475652755293323e-12
6.0,0.03679497683410042,77.50000000007587,0,90,3.0,4,1.5643660479270824e-12
6.005,0.019500578284482293,77.50000000003372,0,90,3.0,4,6.953063554468939e-13
6.01,0.009439396781978427,77.50000000001481,0,90,3.0,4,3.0531362089155643e-13
6.015,0.004178588733610924,77.50000000000642,0,90,3.0,4,1.3243930579940837e-13
6.02,0.0017299316936037381,77.50000000000274,0,90,3.0,4,5.655041154709251e-14
6.025,0.0008997325756988589,77.50000000000117,0,90,3.0,5,2.402659972467143e-14
6.03,0.001634769674224814,77.50000000000048,0,90,3.0,5,9.962248666327177e-15
6.035,0.00614904736476635,77.5000000000002,0,90,3.0,5,4.102102392017073e-15
6.04,0.02168080359963608,77.50000000000009,0,90,3.0,5,1.7580438822930315e-15
6.045,0.06433400338904088,77.50000000000003,0,90,3.0,5,5.860146274310105e-16
6.05,0.1593410769217493,77.50000000000001,0,90,3.0,5,2.9300731371550523e-16
6.055,0.3291989194808569,77.5,0,90,3.0,5,0.0
6.06,0.5672906802982638,77.5,0,90,3.0,5,0.0
6.065,0.815339152120446,77.5,0,90,3.0,5,0.0
6.07,0.9768711246313155,77.50000285473426,1,90,3.0,5,5.8860500253900945e-08
6.075,0.9726380909165361,77.5000049983091,0,90,3.0,5,1.0305791947664063e-07
6.08,0.7921091683291741,77.5000091154937,0,90,3.0,5,1.8794832364441503e-07
6.085,0.49139090102639077,77.50001772688137,0,90,3.0,5,3.655027086031473e-07
6.09,0.15739335672107918,77.5000373499512,0,90,3.0,5,7.701020865859147e-07
6.095,-0.11102342218909485,77.50008500575251,0,90,3.0,5,1.7526959280394762e-06
6.1,-0.2314207883647528,77.50020448252373,0,90,3.0,5,4.216134509850179e-06
6.105,-0.2029124434754801,77.50050509629355,0,90,3.0,5,1.0414356568068712e-05
6.11,-0.11151350554305876,77.50124942857047,0,90,3.0,5,2.5761413824221028e-05
6.115,-0.039430666652076896,77.50304137163405,0,90,3.0,5,6.270869348566418e-05
6.12,-0.006087703519843621,77.50720659234621,0,90,3.0,5,0.00014858953291149867
6.125,0.005350271385530551,77.51651671365775,0,90,3.0,5,0.0003405507970670282
6.13,0.010381647827441833,77.53648043728987,0,90,3.0,5,0.000752173964739536
6.135,0.015115203303506243,77.57748674207457,0,90,3.0,5,0.0015976647850426658
6.14,0.021170964062928475,77.65808783672054,0,90,3.0,5,0.003259543025165774
6.145,0.029082821134029553,77.80957351772746,0,90,3.0,5,0.006382959128401189
6.15,0.03923107061708144,78.08161919315936,0,90,3.0,5,0.011992148312564023
6.155,0.051969043308817596,78.5481198867466,0,90,3.0,5,0.021610719314362987
6.16,0.06760532616283861,79.31138621754397,0,90,3.0,5,0.037348169433896274
6.165,0.08636519236693461,80.501894662539,0,90,3.0,5,0.06189473531008251
6.17,0.10834733138818661,82.27019956672632,0,90,3.0,5,0.09835463024177978
6.175,0.1334809643017884,84.7680342733444,0,90,3.0,5,0.1498563767699876
6.18,0.16148868344343945,88.11759318932269,0,90,3.0,5,0.2189194472025297
6.185,0.191860907532018,92.37161292978578,0,90,3.0,5,0.30663119442857284
6.19,0.22384764873847726,97.47150946226328,0,90,3.0,5,0.4117837002528512
6.195,0.25647215537198226,103.2149623594649,0,90,3.0,5,0.5302054094735033
6.2,0.2885689161419028,109.24593250545675,0,90,3.0,5,0.6545553093908608
6.205,0.31884566517832524,115.07742493768276,0,90,3.0,5,0.7747922667563456
6.21,0.3459657668955683,120.14994703649623,0,90,3.0,5,0.8793803512679634
6.215,0.3686441789190902,123.91813671703507,0,90,3.0,5,0.9570749838563931
6.22,0.3857476379544367,125.94783631725358,0,90,3.0,5,0.9989244601495583
6.225,0.3963882865005728,126.0,0,90,3.0,5,1.0
6.23,0.4,124.07915595123734,0,90,3.0,5,0.9603949680667493
6.235,0.39638828650057273,120.43297441942573,0,90,3.0,5,0.8852159674108399
6.24,0.38574763795443656,115.50305402477471,0,90,3.0,5,0.783568124222159
6.245,0.36864417891908974,109.84055929025234,0,90,3.0,5,0.6668156554691205
6.25,0.345965766895568,104.00906719378588,0,90,3.0,5,0.5465787050265131
6.255,0.3188456651783249,98.49818917012387,0,90,3.0,5,0.4329523540231725
6.26,0.28856891614190205,93.66555143370792,0,90,3.0,5,0.3333103388393385
6.265,0.2564721553719815,89.7144827701363,0,90,3.0,5,0.2518450055698206
6.27,0.22384764873847685,86.7043124531151,0,90,3.0,5,0.18977963820855864
6.275,0.19186090753201765,84.58288995167732,0,90,3.0,5,0.14603896807582095
6.28,0.16148868344343878,83.22834194908314,0,90,3.0,5,0.11811014328006485
6.285,0.1334809643017881,82.48873580979522,0,90,3.0,5,0.1028605321607261
6.29,0.10834733138818531,82.21247796708191,0,90,3.0,5,0.0971644941666373
6.295,0.08636519236690572,82.26690909575632,0,90,3.0,5,0.09828678547951172
6.3,0.06760532616242629,82.54616069056094,0,90,3.0,5,0.1040445503208441
6.305,0.05196904332202373,82.971274279,0,90,3.0,5,0.11280977894845359
6.31,0.03923107185803287,83.48598202927768,0,90,3.0,5,0.123422309882014
6.315,0.02908287038705761,84.0509493967084,0,90,3.0,5,0.13507112158161658
6.32,0.02117220077308346,84.63829145408482,0,90,3.0,5,0.14718126709453241
6.325,0.0151361834125735,85.22723755948846,0,90,3.0,5,0.15932448576264863
6.33,0.010626454858290009,85.80114977653734,0,90,3.0,5,0.17115772735128543
6.335,0.007326255555493652,86.34573114748355,0,90,3.0,5,0.1823862092264649
6.34,0.004960179211183015,86.84812271191404,0,90,3.0,5,0.19274479818379472
6.345,0.0032978759379303545,87.29658861252781,0,90,3.0,5,0.20199151778407862
6.35,0.002153242296767213,87.68054828000182,0,90,3.0,5,0.20990821195880033
6.355,0.001380616732225004,87.99078493957134,0,90,3.0,5,0.21630484411487302
6.36,0.0008693106590991584,88.21971832679051,0,90,3.0,5,0.22102512014001058
6.365,0.000537524815942247,88.36167114857207,0,90,3.0,5,0.22395198244478498
6.37,0.0003263951340288585,88.41308600139116,0,90,3.0,5,0.2250120825029106
6.375,0.00019463030985187395,88.37266684196382,0,90,3.0,5,0.2241786977724499
6.38,0.00011397219555062695,88.24143078599542,0,90,3.0,5,0.22147279971124575
6.385,6.55403863487943e-05,88.02266468234762,0,90,3.0,5,0.21696215839892008
6.39,3.701184389455385e-05,87.72178799669148,0,90,3.0,5,0.2107585153957005
6.395,2.0525516217290957e-05,87.34612959684776,0,90,3.0,5,0.20301298137830434
6.4,1.1178128483661116e-05,86.90463113480797,0,90,3.0,5,0.193909920305319
6.405,5.978135409912517e-06,86.40749373199031,0,90,3.0,5,0.18365966457711988
6.41,3.1396702713238487e-06,85.86578741799237,0,90,3.0,5,0.1724904622266467
6.415,1.6192875458531019e-06,85.2910441240324,0,90,3.0,5,0.1606400850315958
6.42,8.201353897972012e-07,84.69485496083774,0,90,3.0,5,0.1483475249657267
6.425,4.0791415086824765e-07,84.08849109567761,0,90,3.0,5,0.1358451772304662
6.43,1.9923866938774793e-07,83.48256496485517,0,90,3.0,5,0.12335185494546747
6.435,9.556527981051257e-08,82.88674507841722,0,90,3.0,5,0.11106690883334476
6.44,4.501406988770349e-08,82.30953360935997,0,90,3.0,5,0.09916564143010256
6.445,0.0,81.75811164906654,0,90,3.0,5,0.08779611647559867
6.45,0.0,81.23825278415366,0,90,3.0,5,0.07707737699285894
6.455,0.0,80.7543018005637,0,90,3.0,5,0.06709900619718959
6.46,0.0,80.30921208306694,0,90,3.0,5,0.05792189861993688
6.465,0.0,79.90463281376022,0,90,3.0,5,0.049580058015674555
6.47,0.0,79.54103546418303,0,90,3.0,5,0.04208320544707268
6.475,0.0,79.21786832813989,0,90,3.0,5,0.03541996552865745
6.48,0.0,78.9337278944078,0,90,3.0,5,0.029561399884696807
6.485,0.0,78.68653659498678,0,90,3.0,5,0.024464672061583023
6.49,0.0,78.47371773397128,0,90,3.0,5,0.020076654308686274
6.495,0.0,78.29236003491764,0,90,3.0,5,0.016337320307580113
6.5,0.0,78.13936607011075,0,90,3.0,5,0.013182805569293887
6.505,0.0,78.01158069613635,0,90,3.0,5,0.010548055590440183
6.51,0.0,77.90589738363109,0,90,3.0,5,0.00836901821919764
6.515,0.0,77.8193418930763,0,90,3.0,5,0.006584368929408222
6.52,0.0,77.74913404493157,0,90,3.0,5,0.005136784431578676
6.525,0.0,77.69272932628196,0,90,3.0,5,0.003973800541896147
6.53,0.0,77.64784276200395,0,90,3.0,5,0.003048304371215399
6.535,0.0,77.61245787474897,0,90,3.0,5,0.0023187190669890574
6.54,0.0,77.58482370079636,0,90,3.0,5,0.001748942284461098
6.545,0.0,77.56344276484224,0,90,3.0,5,0.001308098244169814
6.55,0.0,77.54705269750748,0,90,3.0,5,0.0009701587114944715
6.555,0.0,77.53460385564382,0,90,3.0,5,0.000713481559666455
6.56,0.0,77.52523492376558,0,90,3.0,5,0.000520307706506818
6.565,0.0,77.51824807439121,0,90,3.0,5,0.00037624895651978263
6.57,0.0,77.51308487652001,0,90,3.0,5,0.00026979126845384197
6.575,0.0,77.50930378690524,0,90,3.0,5,0.0001918306578399022
6.58,0.0,77.50655975200604,0,90,3.0,5,0.00013525261868125264
6.585,0.0,77.50458619617231,0,90,3.0,5,9.456074582086453e-05
6.59,0.0,77.50317947470528,0,90,3.0,5,6.55561794902501e-05
6.595,0.0,77.50218572571207,0,90,3.0,5,4.5066509527158975e-05
6.6,0.0,77.50148995615403,0,90,3.0,5,3.0720745443954676e-05
6.605,0.0,77.50100713770587,0,90,3.0,5,2.076572589421349e-05
6.61,0.0,77.50067505904896,0,90,3.0,5,1.3918743277501338e-05
6.615,0.0,77.50044867535075,0,90,3.0,5,9.251038159866944e-06
6.62,0.0,77.50029570604245,0,90,3.0,5,6.097031803106408e-06
6.625,0.0,77.5001932527698,0,90,3.0,5,3.9845931918459906e-06
6.63,0.0,77.50012523588686,0,90,3.0,5,2.5821832341347375e-06
6.635,0.0,77.50008047656003,0,90,3.0,5,1.6593105160679733e-06
6.64,0.0,77.50005127994527,0,90,3.0,5,1.057318459131529e-06
6.645,0.0,77.50003240136019,0,90,3.0,5,6.680692822040319e-07
6.65,0.0,77.50002030095513,0,90,3.0,5,4.185763944021637e-07
6.655,0.0,77.50001261267603,0,90,3.0,5,2.6005517589069737e-07
6.66,0.0,77.50000777025998,0,90,3.0,5,1.6021154605950118e-07
6.665,0.0,77.5000047468051,0,90,3.0,5,9.787227017835734e-08
6.67,0.0,77.50000287544319,0,90,3.0,5,5.9287488384893317e-08
6.675,0.0,77.5000017272123,0,90,3.0,5,3.5612624601854644e-08
6.68,0.0,77.50000102878397,0,90,3.0,5,2.1212040618846322e-08
6.685,0.0,77.50000060763139,0,90,3.0,5,1.2528482315734512e-08
6.69,0.001684486749771458,77.50000035587195,0,90,3.0,5,7.3375659179798756e-09
6.695,0.004172395771277602,77.50000020667352,0,90,3.0,5,4.261309673968275e-09
6.7,0.009438687428818865,77.50000011901822,0,90,3.0,5,2.4539840125594917e-09
6.705,0.019500507867137046,77.50000006796411,0,90,3.0,5,1.4013218352027758e-09
6.71,0.03679496976339974,77.50000003848427,0,90,3.0,5,7.934901761998226e-10
6.715,0.06340728953298436,77.5000000216085,0,90,3.0,5,4.4553607996518976e-10
6.72,0.09979255396093453,77.50000001203105,0,90,3.0,5,2.480629218646839e-10
6.725,0.14343835518453557,77.50000000664232,0,90,3.0,5,1.3695513451839172e-10
6.73,0.18829581417209276,77.50000000363642,0,90,3.0,5,7.497764150666063e-11
6.735,0.2257481735193119,77.50000000197409,0,90,3.0,5,4.0702817977475695e-11
6.74,0.24718154073554727,77.50000000106266,0,90,3.0,5,2.191050090501805e-11
6.745,0.24718154074102772,77.50000000056723,0,90,3.0,5,1.1695386926954391e-11
6.75,0.22574817354072055,77.50000000030023,0,90,3.0,5,6.190365516867479e-12
6.755,0.18829581422840957,77.50000000015758,0,90,3.0,5,3.2491581017912374e-12
6.76,0.14343835532456656,77.50000000008201,0,90,3.0,5,1.6909452074521806e-12
6.765,0.09979255431561854,77.50000000004232,0,90,3.0,5,8.725757802447746e-13
6.77,0.06340729067170194,77.50000000002166,0,90,3.0,5,4.4654314610242995e-13
6.775,0.03679497683410042,77.50000000001098,0,90,3.0,5,2.2649465350208555e-13
6.78,0.019500578284482293,77.50000000000553,0,90,3.0,5,1.1397984503533153e-13
6.785,0.009439396781978427,77.50000000000276,0,90,3.0,5,5.684341886080802e-14
6.79,0.004178588733610924,77.50000000000136,0,90,3.0,5,2.8128702116688503e-14
6.795,0.0017299316936037381,77.50000000000067,0,90,3.0,5,1.3771343744628746e-14
6.8,0.0008997325756988589,77.50000000000033,0,90,3.0,5,6.73916821545662e-15
6.805,0.001634769674224814,77.50000000000016,0,90,3.0,5,3.2230804508705575e-15
6.81,0.00614904736476635,77.50000000000007,0,90,3.0,5,1.465036568577526e-15
6.815,0.02168080359963608,77.50000000000003,0,90,3.0,5,5.860146274310105e-16
6.82,0.06433400338904088,77.50000000000001,0,90,3.0,5,2.9300731371550523e-16
6.825,0.1593410769217493,77.5,0,90,3.0,5,0.0
6.83,0.3291989194808569,77.5,0,90,3.0,5,0.0
6.835,0.5672906802982638,77.5,0,90,3.0,5,0.0
6.84,0.815339152120446,77.5,0,90,3.0,5,0.0
6.845,0.9768711246313155,77.50000284143212,1,90,3.0,5,5.8586229292860976e-08
6.85,0.9726380909165361,77.50000583146736,0,90,3.0,5,1.202364404603547e-07
6.855,0.7921091683291741,77.50001291995002,0,90,3.0,5,2.6639072213640117e-07
6.86,0.49139090102639077,77.50003226688011,0,90,3.0,5,6.652964971509232e-07
6.865,0.15739335672107918,77.50009146729056,0,90,3.0,5,1.8859235166891051e-06
6.87,-0.11102342218909485,77.50028231969486,0,90,3.0,5,5.821024636312247e-06
6.875,-0.2314207883647528,77.50089563317056,0,90,3.0,5,1.8466663310466604e-05
6.88,-0.2029124434754801,77.50279477482674,0,90,3.0,5,5.7624223231740184e-05
6.885,-0.11151350554305876,77.50836230615555,0,90,3.0,5,0.00017241868361952817
6.89,-0.039430666652076896,77.52367979111813,0,90,3.0,5,0.00048824311583767037
6.895,-0.006087703519843621,77.5630506413428,0,90,3.0,5,0.001300013223562846
6.9,0.005350271385530551,77.65735119887681,0,90,3.0,5,0.0032443546160167086
6.905,0.010381647827441833,77.86746710715887,0,90,3.0,5,0.007576641384719037
6.91,0.015115203303506243,78.30236463021275,0,90,3.0,5,0.016543600622943303
6.915,0.021170964062928475,79.13733108826858,0,90,3.0,5,0.03375940388182642
6.92,0.029082821134029553,80.62181224102206,0,90,3.0,5,0.06436726270148568
6.925,0.03923107061708144,83.06062494683303,0,90,3.0,5,0.11465206075944392
6.93,0.051969043308817596,86.75239811914301,0,90,3.0,5,0.19077109524006206
6.935,0.06760532616283861,91.8807685365827,0,90,3.0,5,0.2965106914759321
6.94,0.08636519236693461,98.378581699193,0,90,3.0,5,0.43048622060191766
6.945,0.10834733138818661,105.81484382460435,0,90,3.0,5,0.5838112128784403
6.95,0.1334809643017884,113.37028529184028,0,90,3.0,5,0.7395935111719645
6.955,0.16148868344343945,119.95121217066642,0,90,3.0,5,0.8752827251683799
6.96,0.191860907532018,124.43853022744858,0,90,3.0,5,0.9678047469577027
6.965,0.22384764873847726,126.0,0,90,3.0,5,1.0
6.97,0.25647215537198226,124.34766027518786,0,90,3.0,5,0.9659311396945951
6.975,0.2885689161419028,119.83188579232352,0,90,3.0,5,0.872822387470588
6.98,0.31884566517832524,113.33063921599614,0,90,3.0,5,0.7387760663091988
6.985,0.3459657668955683,105.98251867436208,0,90,3.0,5,0.5872684262755069
6.99,0.3686441789190902,98.87536492166085,0,90,3.0,5,0.4407291736424917
6.995,0.3857476379544367,92.80643509047863,0,90,3.0,5,0.3155965998036831
7.0,0.3963882865005728,88.18058983620915,0,90,3.0,5,0.22021834713833302
7.005,0.4,85.04411319426126,0,90,3.0,5,0.1555487256548713
7.01,0.39638828650057273,83.20164974082076,0,90,3.0,5,0.11755978847053104
7.015,0.38574763795443656,82.35075838790847,0,90,3.0,5,0.10001563686409218
7.02,0.36864417891908974,82.18664603062561,0,90,3.0,5,0.09663187692011567
7.025,0.345965766895568,82.4593416048419,0,90,3.0,5,0.10225446607921435
7.03,0.3188456651783249,82.98936010076446,0,90,3.0,5,0.11318268248998882
7.035,0.28856891614190205,83.65844156520596,0,90,3.0,5,0.12697817660218477
7.04,0.2564721553719815,84.39128642988611,0,90,3.0,5,0.14208837999765173
7.045,0.22384764873847685,85.13833014088996,0,90,3.0,5,0.15749134311113325
7.05,0.19186090753201765,85.86358501918068,0,90,3.0,5,0.1724450519418696
7.055,0.16148868344343878,86.53774164025361,0,90,3.0,5,0.1863451884588374
7.06,0.1334809643017881,87.13514770436207,0,90,3.0,5,0.1986628392651973
7.065,0.10834733138818531,87.63311023993182,0,90,3.0,5,0.20893010803983142
7.07,0.08636519236690572,88.01234649405333,0,90,3.0,5,0.21674941224852232
7.075,0.06760532616242629,88.25784561540895,0,90,3.0,5,0.22181124980224648
7.08,0.05196904332202373,88.35972160168467,0,90,3.0,5,0.22391178560174574
7.085,0.03923107185803287,88.31383084039841,0,90,3.0,5,0.22296558433811153
7.09,0.02908287038705761,88.12203891912183,0,90,3.0,5,0.21901111173447083
7.095,0.02117220077308346,87.79209127073761,0,90,3.0,5,0.21220806743788898
7.1,0.0151361834125735,87.33709330329839,0,90,3.0,5,0.20282666604738944
7.105,0.010626454858290009,86.77464665719775,0,90,3.0,5,0.19122982798345875
7.11,0.007326255555493652,86.12572038682296,0,90,3.0,5,0.1778499048829477
7.115,0.004960179211183015,85.41335773775471,0,90,3.0,5,0.16316201521143728
7.12,0.0032978759379303545,84.6613292794557,0,90,3.0,5,0.1476562738032103
7.125,0.002153242296767213,83.89284106707322,0,90,3.0,5,0.13181115602212826
7.13,0.001380616732225004,83.12939330715007,0,90,3.0,5,0.11606996509587768
7.135,0.0008693106590991584,82.38986307038944,0,90,3.0,5,0.10082191897710183
7.14,0.000537524815942247,81.68985722228209,0,90,3.0,5,0.08638880870684713
7.145,0.0003263951340288585,81.04135260089133,0,90,3.0,5,0.07301757939982123
7.15,0.00019463030985187395,80.45261306492628,0,90,3.0,5,0.060878619895387266
7.155,0.00011397219555062695,79.92835023724436,0,90,3.0,5,0.050069077056584727
7.16,6.55403863487943e-05,79.47007850466264,0,90,3.0,5,0.040620175353868825
7.165,3.701184389455385e-05,79.07660594892458,0,90,3.0,5,0.03250733915308413
7.17,2.0525516217290957e-05,78.74460118423498,0,90,3.0,5,0.025661880087319185
7.175,1.1178128483661116e-05,78.46918052638576,0,90,3.0,5,0.01998310363681971
7.18,5.978135409912517e-06,78.2444689160559,0,90,3.0,5,0.015349874557853478
7.185,3.1396702713238487e-06,78.06409971428411,0,90,3.0,5,0.0116309219440023
7.19,1.6192875458531019e-06,77.92163107405308,0,90,3.0,5,0.008693424207280032
7.195,8.201353897972012e-07,77.8108685318973,0,90,3.0,5,0.006409660451490697
7.2,4.0791415086824765e-07,77.72609363393019,0,90,3.0,5,0.004661724410931766
7.205,1.9923866938774793e-07,77.66220615385751,0,90,3.0,5,0.0033444567805672376
7.21,9.556527981051257e-08,77.6147925595831,0,90,3.0,5,0.0023668568986204967
7.215,4.501406988770349e-08,77.58013598383405,0,90,3.0,5,0.001652288326475351
7.22,0.0,77.55518344728331,0,90,3.0,5,0.0011378030367693226
7.225,0.0,77.53748499883328,0,90,3.0,5,0.0007728865738820285
7.23,0.0,77.52511733723763,0,90,3.0,6,0.0005178832420130192
7.235,0.0,77.51660187395179,0,90,3.0,6,0.0003423066794182526
7.24,0.0,77.51082450507081,0,90,3.0,6,0.00022318567156319368
7.245,0.0,77.5069618779409,0,90,3.0,6,0.000143543875070011
7.25,0.0,77.5044168452331,0,90,3.0,6,9.106897387824837e-05
7.255,0.0,77.50276417401062,0,90,3.0,6,5.699327856952372e-05
7.26,0.0,77.50170642025451,0,90,3.0,6,3.518392277334391e-05
7.265,0.0,77.50103913993615,0,90,3.0,6,2.1425565693892532e-05
7.27,0.0,77.50062420823656,0,90,3.0,6,1.2870272918739032e-05
7.275,0.0,77.50036987278257,0,90,3.0,6,7.626242939602552e-06
7.28,0.0,77.50021619352097,0,90,3.0,6,4.4575983705135985e-06
7.285,0.0,77.5001246523284,0,90,3.0,6,2.5701511009343053e-06
7.29,0.0,77.50007089662091,0,90,3.0,6,1.4617859981804828e-06
7.295,0.0,77.5000397757244,0,90,3.0,6,8.201180289290147e-07
7.3,0.001684486749771458,77.50002201294153,0,90,3.0,6,4.5387508305690605e-07
7.305,0.004172395771277602,77.50001201726069,0,90,3.0,6,2.4777857086603747e-07
7.31,0.009438687428818865,77.50000647143071,0,90,3.0,6,1.3343156100295487e-07
7.315,0.019500507867137046,77.50000343765706,0,90,3.0,6,7.087952694418323e-08
7.32,0.03679496976339974,77.50000180132557,0,90,3.0,6,3.714073333876794e-08
7.325,0.06340728953298436,77.50000093108493,0,90,3.0,6,1.9197627350352085e-08
7.33,0.09979255396093453,77.50000047473779,0,90,3.0,6,9.788408013114397e-09
7.335,0.14343835518453557,77.50000023877328,0,90,3.0,6,4.923160454335133e-09
7.34,0.18829581417209276,77.50000011846365,0,90,3.0,6,2.4425494021417445e-09
7.345,0.2257481735193119,77.50000005797648,0,90,3.0,6,1.1953913139991856e-09
7.35,0.24718154073554727,77.50000002798892,0,90,3.0,6,5.770910896918047e-10
7.355,0.24718154074102772,77.50000001332869,0,90,3.0,6,2.7481829870198784e-10
7.36,0.22574817354072055,77.50000000626119,0,90,3.0,6,1.290966783645419e-10
7.365,0.18829581422840957,77.5000000029013,0,90,3.0,6,5.982066617547126e-11
7.37,0.14343835532456656,77.50000000132616,0,90,3.0,6,2.734344251593095e-11
7.375,0.09979255431561854,77.50000000059795,0,90,3.0,6,1.2328868739207313e-11
7.38,0.06340729067170194,77.50000000026596,0,90,3.0,6,5.483631876185681e-12
7.385,0.03679497683410042,77.50000000011669,0,90,3.0,6,2.4058830529180133e-12
7.39,0.019500578284482293,77.5000000000505,0,90,3.0,6,1.0413479929449055e-12
7.395,0.009439396781978427,77.50000000002156,0,90,3.0,6,4.444920949064214e-13
7.4,0.004178588733610924,77.50000000000908,0,90,3.0,6,1.8723167346420783e-13
7.405,0.0017299316936037381,77.50000000000377,0,90,3.0,6,7.764693813460889e-14
7.41,0.0008997325756988589,77.50000000000155,0,90,3.0,6,3.193779719499007e-14
7.415,0.001634769674224814,77.50000000000063,0,90,3.0,6,1.289232180348223e-14
7.42,0.00614904736476635,77.50000000000024,0,90,3.0,6,4.9811243331635886e-15
7.425,0.02168080359963608,77.5000000000001,0,90,3.0,6,2.0510511960085364e-15
7.43,0.06433400338904088,77.50000000000004,0,90,3.0,6,8.790219411465157e-16
7.435,0.1593410769217493,77.50000000000001,0,90,3.0,6,2.9300731371550523e-16
7.44,0.3291989194808569,77.5,0,90,3.0,6,0.0
7.445,0.5672906802982638,77.5,0,90,3.0,6,0.0
7.45,0.815339152120446,77.5,0,90,3.0,6,0.0
7.455,0.9768711246313155,77.5000028426471,1,90,3.0,6,5.8611280539161714e-08
7.46,0.9726380909165361,77.50000511593532,0,90,3.0,6,1.0548320254379974e-07
7.465,0.7921091683291741,77.50000964036138,0,90,3.0,6,1.9877033781123133e-07
7.47,0.49139090102639077,77.50001953538487,0,90,3.0,6,4.027914405220876e-07
7.475,0.15739335672107918,77.5000432606964,0,90,3.0,6,8.919731216731625e-07
7.48,-0.11102342218909485,77.50010390844962,0,90,3.0,6,2.1424422601453958e-06
7.485,-0.2314207883647528,77.5002632553772,0,90,3.0,6,5.427945921772184e-06
7.49,-0.2029124434754801,77.50068079911502,0,90,3.0,6,1.4037095154986373e-05
7.495,-0.11151350554305876,77.50175059357754,0,90,3.0,6,3.609471293897673e-05
7.5,-0.039430666652076896,77.50439971025311,0,90,3.0,6,9.07156753218724e-05
7.505,-0.006087703519843621,77.51069868561211,0,90,3.0,6,0.00022059145591984562
7.51,0.005350271385530551,77.52502734592285,0,90,3.0,6,0.0005160277509866174
7.515,0.010381647827441833,77.55614203264604,0,90,3.0,6,0.001157567683423432
7.52,0.015115203303506243,77.62055133166675,0,90,3.0,6,0.002485594467355595
7.525,0.021170964062928475,77.74752797986558,0,90,3.0,6,0.0051036696879501135
7.53,0.029082821134029553,77.98572371732214,0,90,3.0,6,0.010014922006642163
7.535,0.03923107061708144,78.41057612864718,0,90,3.0,6,0.018774765539117094
7.54,0.051969043308817596,79.13047625561579,0,90,3.0,6,0.03361806712609876
7.545,0.06760532616283861,80.288229430218,0,90,3.0,6,0.0574892666024329
7.55,0.08636519236693461,82.05327668834015,0,90,3.0,6,0.09388199357402367
7.555,0.10834733138818661,84.60035215810349,0,90,3.0,6,0.14639901356914414
7.56,0.1334809643017884,88.07263753087827,0,90,3.0,6,0.2179925264098612
7.565,0.16148868344343945,92.5323744193579,0,90,3.0,6,0.3099458643166576
7.57,0.191860907532018,97.90846515079481,0,90,3.0,6,0.4207930958926765
7.575,0.22384764873847726,103.95656597893684,0,90,3.0,6,0.545496205751275
7.58,0.25647215537198226,110.2493957755857,0,90,3.0,6,0.6752452737234165
7.585,0.2885689161419028,116.21077142328033,0,90,3.0,6,0.7981602355315532
7.59,0.31884566517832524,121.1957556814175,0,90,3.0,6,0.9009434161117009
7.595,0.3459657668955683,124.60405333132145,0,90,3.0,6,0.9712175944602361
7.6,0.3686441789190902,126.0,0,90,3.0,6,1.0
7.605,0.3857476379544367,125.20631710246992,0,90,3.0,6,0.9836354041746376
7.61,0.3963882865005728,122.34395676344872,0,90,3.0,6,0.9246176652257467
7.615,0.4,117.80585638212884,0,90,3.0,6,0.8310485851985328
7.62,0.39638828650057273,112.17263043562735,0,90,3.0,6,0.7148995966108733
7.625,0.38574763795443656,106.09531796174919,0,90,3.0,6,0.5895941847783338
7.63,0.36864417891908974,100.1779060461979,0,90,3.0,6,0.46758569167418357
7.635,0.345965766895568,94.88840785358333,0,90,3.0,6,0.35852387326975943
7.64,0.3188456651783249,90.51462290691649,0,90,3.0,6,0.2683427403487935
7.645,0.28856891614190205,87.16524039511556,0,90,3.0,6,0.19928330711578476
7.65,0.2564721553719815,84.80460264853114,0,90,3.0,6,0.15061036388724008
7.655,0.22384764873847685,83.30370962862875,0,90,3.0,6,0.11966411605420108
7.66,0.19186090753201765,82.49107847374887,0,90,3.0,6,0.102908834510286
7.665,0.16148868344343878,82.19252499411174,0,90,3.0,6,0.09675309266209764
7.67,0.1334809643017881,82.25561243620318,0,90,3.0,6,0.09805386466398308
7.675,0.10834733138818531,82.55988607569486,0,90,3.0,6,0.10432754795247139
7.68,0.08636519236690572,83.01693364758768,0,90,3.0,6,0.11375120922861191
7.685,0.06760532616242629,83.5649129488636,0,90,3.0,6,0.1250497515229607
7.69,0.05196904332202373,84.16130719449305,0,90,3.0,6,0.13734654009264016
7.695,0.03923107185803287,84.77624455095192,0,90,3.0,6,0.15002566084436939
7.7,0.02908287038705761,85.38741654807927,0,90,3.0,6,0.1626271453212221
7.705,0.02117220077308346,85.97674825310652,0,90,3.0,6,0.17477831449704168
7.71,0.0151361834125735,86.52852713853278,0,90,3.0,6,0.18615519873263464
7.715,0.010626454858290009,87.02856534351251,0,90,3.0,6,0.19646526481469095
7.72,0.007326255555493652,87.46400648746604,0,90,3.0,6,0.20544343273125848
7.725,0.004960179211183015,87.82348441956617,0,90,3.0,6,0.21285534885703444
7.73,0.0032978759379303545,88.09743716513903,0,90,3.0,6,0.21850385907503148
7.735,0.002153242296767213,88.27845237699276,0,90,3.0,6,0.2222361314843868
7.74,0.001380616732225004,88.3615692400097,0,90,3.0,6,0.2239498812373134
7.745,0.0008693106590991584,88.34449234955764,0,90,3.0,6,0.22359778040325032
7.75,0.000537524815942247,88.22769267734277,0,90,3.0,6,0.22118953973902625
7.755,0.0003263951340288585,88.01438449029398,0,90,3.0,6,0.21679143278956656
7.76,0.00019463030985187395,87.71037788946353,0,90,3.0,6,0.21052325545285627
7.765,0.00011397219555062695,87.32381572039769,0,90,3.0,6,0.20255290145149876
7.77,6.55403863487943e-05,86.86481124553991,0,90,3.0,6,0.19308889166061674
7.775,3.701184389455385e-05,86.3450089974046,0,90,3.0,6,0.18237131953411556
7.78,2.0525516217290957e-05,85.7770953728047,0,90,3.0,6,0.17066176026401433
7.785,1.1178128483661116e-05,85.17428757646559,0,90,3.0,6,0.15823273353537295
7.79,5.978135409912517e-06,84.54982942288322,0,90,3.0,6,0.14535730768831384
7.795,3.1396702713238487e-06,83.91652038266207,0,90,3.0,6,0.1322993893332386
7.8,1.6192875458531019e-06,83.2863004053816,0,90,3.0,6,0.11930516299755867
7.805,8.201353897972012e-07,82.66990788930764,0,90,3.0,6,0.10659603895479665
7.81,4.0791415086824765e-07,82.07662220661173,0,90,3.0,6,0.09436334446622126
7.815,1.9923866938774793e-07,81.51409596754554,0,90,3.0,6,0.08276486531021739
7.82,9.556527981051257e-08,80.98827622965146,0,90,3.0,6,0.07192322122992703
7.825,4.501406988770349e-08,80.50340856865901,0,90,3.0,6,0.06192594986925797
7.83,0.0,80.06211366048802,0,90,3.0,6,0.05282708578325822
7.835,0.0,79.66552298724739,0,90,3.0,6,0.04464995849994609
7.84,0.0,79.31345855224248,0,90,3.0,6,0.03739089798438103
7.845,0.0,79.00464102634591,0,90,3.0,6,0.031023526316410473
7.85,0.0,78.73691140612398,0,90,3.0,6,0.025503327961319173
7.855,0.0,78.50745282498198,0,90,3.0,6,0.020772223195504785
7.86,0.0,78.31300136218435,0,90,3.0,6,0.016762914684213436
7.865,0.0,78.15003726913261,0,90,3.0,6,0.013402830291394033
7.87,0.0,78.01495072107623,0,90,3.0,6,0.010617540640747058
7.875,0.0,77.90417878471544,0,90,3.0,6,0.008333583190009092
7.88,0.0,77.81431259660769,0,90,3.0,6,0.006480672095003965
7.885,0.0,77.7421756582178,0,90,3.0,6,0.0049933125405732665
7.89,0.0,77.68487561033564,0,90,3.0,6,0.00381186825434305
7.895,0.0,77.63983284131709,0,90,3.0,6,0.0028831513673626243
7.9,0.0,77.60478983910438,0,90,3.0,6,0.0021606152392656588
7.905,0.0,77.57780537394699,0,90,3.0,6,0.0016042345143708625
7.91,0.0,77.557237472093,0,90,3.0,6,0.0011801540637730494
7.915,0.0,77.541718792023,0,90,3.0,6,0.0008601812788248429
7.92,0.0,77.53012752354391,0,90,3.0,6,0.0006211860524517667
7.925,0.0,77.521556367243,0,90,3.0,6,0.0004444611802679114
7.93,0.0,77.51528157589647,0,90,3.0,6,0.00031508403910239985
7.935,0.0,77.51073349457783,0,90,3.0,6,0.00022130916655329464
7.94,0.0,77.50746955224747,0,90,3.0,6,0.0001540113865457991
7.945,0.0,77.50515025137989,0,90,3.0,6,0.0001061907501007836
7.95,0.0,77.50351837976685,0,90,3.0,6,7.254391271845802e-05
7.955,0.0,77.50238142786796,0,90,3.0,6,4.91016055249376e-05
7.96,0.0,77.50159702817518,0,90,3.0,6,3.292841598316223e-05
7.965,0.0,77.50106112892836,0,90,3.0,6,2.1878946976411752e-05
7.97,0.0,77.50069856071771,0,90,3.0,6,1.4403313767187092e-05
7.975,0.0,77.50045563869121,0,90,3.0,6,9.39461218983768e-06
7.98,0.0,77.50029445400165,0,90,3.0,6,6.071216528807875e-06
7.985,0.0,77.5001885362026,0,90,3.0,6,3.8873443835087794e-06
7.99,0.0,77.50011960586598,0,90,3.0,6,2.4661003293982205e-06
7.995,0.0,77.50007517797681,0,90,3.0,6,1.5500613775441604e-06
8.0,0.0,77.5000468176076,0,90,3.0,6,9.653114968443202e-07
8.005,0.0,77.50002888738506,0,90,3.0,6,5.956161867312196e-07
8.01,0.0,77.50001765987696,0,90,3.0,6,3.641211744308617e-07
8.015,0.0,77.50001069664408,0,90,3.0,6,2.2054936252549018e-07
8.02,0.0,77.5000064193026,0,90,3.0,6,1.323567545048568e-07
8.025,0.0,77.50000381688064,0,90,3.0,6,7.869856980524326e-08
8.03,0.0,77.50000224858724,0,90,3.0,6,4.636262343110596e-08
8.035,0.0,77.50000131247589,0,90,3.0,6,2.706135851487076e-08
8.04,0.001684486749771458,77.50000075902022,0,90,3.0,6,1.5649901535052964e-08
8.045,0.004172395771277602,77.5000004349064,0,90,3.0,6,8.967142208610913e-09
8.05,0.009438687428818865,77.50000024689864,0,90,3.0,6,5.090693539105561e-09
8.055,0.019500507867137046,77.50000013887433,0,90,3.0,6,2.863388188641168e-09
8.06,0.03679496976339974,77.50000007739372,0,90,3.0,6,1.5957468382186994e-09
8.065,0.06340728953298436,77.50000004273365,0,90,3.0,6,8.81106102168974e-10
8.07,0.09979255396093453,77.50000002337839,0,90,3.0,6,4.820286758518874e-10
8.075,0.14343835518453557,77.50000001267183,0,90,3.0,6,2.612749146474297e-10
8.08,0.18829581417209276,77.50000000680527,0,90,3.0,6,1.4031475637745372e-10
8.085,0.2257481735193119,77.50000000362103,0,90,3.0,6,7.466031458590674e-11
8.09,0.24718154073554727,77.50000000190896,0,90,3.0,6,3.935996545871753e-11
8.095,0.24718154074102772,77.5000000009971,0,90,3.0,6,2.0558858166848425e-11
8.1,0.22574817354072055,77.50000000051602,0,90,3.0,6,1.0639681575637426e-11
8.105,0.18829581422840957,77.50000000026459,0,90,3.0,6,5.455503174068992e-12
8.11,0.14343835532456656,77.50000000013442,0,90,3.0,6,2.771556180434964e-12
8.115,0.09979255431561854,77.50000000006766,0,90,3.0,6,1.3950078205995204e-12
8.12,0.06340729067170194,77.50000000003374,0,90,3.0,6,6.955993627606094e-13
8.125,0.03679497683410042,77.50000000001667,0,90,3.0,6,3.4369757898828763e-13
8.13,0.019500578284482293,77.50000000000816,0,90,3.0,6,1.681861980727e-13
8.135,0.009439396781978427,77.50000000000396,0,90,3.0,6,8.174904052662596e-14
8.14,0.004178588733610924,77.5000000000019,0,90,3.0,6,3.92629800378777e-14
8.145,0.0017299316936037381,77.50000000000091,0,90,3.0,6,1.8752468077792334e-14
8.15,0.0008997325756988589,77.50000000000043,0,90,3.0,6,8.790219411465157e-15
8.155,0.001634769674224814,77.5000000000002,0,90,3.0,6,4.102102392017073e-15
8.16,0.00614904736476635,77.50000000000009,0,90,3.0,6,1.7580438822930315e-15
8.165,0.02168080359963608,77.50000000000004,0,90,3.0,6,8.790219411465157e-16
8.17,0.06433400338904088,77.50000000000001,0,90,3.0,6,2.9300731371550523e-16
8.175,0.1593410769217493,77.50000000000001,0,90,3.0,6,2.9300731371550523e-16
8.18,0.3291989194808569,77.5,0,90,3.0,6,0.0
8.185,0.5672906802982638,77.5,0,90,3.0,6,0.0
8.19,0.815339152120446,77.5,0,90,3.0,6,0.0
8.195,0.9768711246313155,77.50000284590683,1,90,3.0,6,5.867849143580372e-08
8.2,0.9726380909165361,77.50000620454384,0,90,3.0,6,1.279287389057647e-07
8.205,0.7921091683291741,77.50001485828533,0,90,3.0,6,3.06356398467185e-07
8.21,0.49139090102639077,77.50004110438331,0,90,3.0,6,8.47513058019591e-07
8.215,0.15739335672107918,77.50013076213497,0,90,3.0,6,2.6961264942768786e-06
8.22,-0.11102342218909485,77.5004494825599,0,90,3.0,6,9.267681647444764e-06
8.225,-0.2314207883647528,77.5015589661188,0,90,3.0,6,3.2143631315322414e-05
8.23,-0.2029124434754801,77.5052175459013,0,90,3.0,6,0.00010757826600624445
8.235,-0.11151350554305876,77.51646564059375,0,90,3.0,6,0.0003394977442010446
8.24,-0.039430666652076896,77.54846474100408,0,90,3.0,6,0.0009992730103934465
8.245,-0.006087703519843621,77.63237182235686,0,90,3.0,6,0.002729315924883692
8.25,0.005350271385530551,77.8346877800114,0,90,3.0,6,0.006900778969307072
8.255,0.010381647827441833,78.28243410896945,0,90,3.0,6,0.016132662040607305
8.26,0.015115203303506243,79.19029108423398,0,90,3.0,6,0.03485136256152529
8.265,0.021170964062928475,80.87323691731447,0,90,3.0,6,0.06955127664565922
8.27,0.029082821134029553,83.71773945614594,0,90,3.0,6,0.12820081352878218
8.275,0.03923107061708144,88.08476141493827,0,90,3.0,6,0.2182425034007891
8.28,0.051969043308817596,94.14082921914031,0,90,3.0,6,0.3431098808070168
8.285,0.06760532616283861,101.66075344659448,0,90,3.0,6,0.49815986487823677
8.29,0.08636519236693461,109.89637848788419,0,90,3.0,6,0.6679665667604988
8.295,0.10834733138818661,117.61967189185137,0,90,3.0,6,0.8272097297288942
8.3,0.1334809643017884,123.39251895920344,0,90,3.0,6,0.9462375043134731
8.305,0.16148868344343945,126.0,0,90,3.0,6,1.0
8.31,0.191860907532018,124.87296442908382,0,90,3.0,6,0.976762153176986
8.315,0.22384764873847726,120.30021686273133,0,90,3.0,6,0.8824786982006461
8.32,0.25647215537198226,113.32335946796991,0,90,3.0,6,0.7386259684117507
8.325,0.2885689161419028,105.36763648293541,0,90,3.0,6,0.5745904429471218
8.33,0.31884566517832524,97.78841963142564,0,90,3.0,6,0.41831793054485855
8.335,0.3459657668955683,91.52952526924612,0,90,3.0,6,0.28926856225249736
8.34,0.3686441789190902,87.00059676071308,0,90,3.0,6,0.1958885930043934
8.345,0.3857476379544367,84.15740367561432,0,90,3.0,6,0.13726605516730553
8.35,0.3963882865005728,82.68782985773649,0,90,3.0,6,0.10696556407704101
8.355,0.4,82.19790601931109,0,90,3.0,6,0.09686404163528023
8.36,0.39638828650057273,82.33508188176637,0,90,3.0,6,0.09969240993332723
8.365,0.38574763795443656,82.83817540477975,0,90,3.0,6,0.11006547226349994
8.37,0.36864417891908974,83.53579413597762,0,90,3.0,6,0.12444936362840464
8.375,0.345965766895568,84.32208637457715,0,90,3.0,6,0.14066157473354957
8.38,0.3188456651783249,85.13045992484066,0,90,3.0,6,0.15732907061527143
8.385,0.28856891614190205,85.91446775428722,0,90,3.0,6,0.17349418050076734
8.39,0.2564721553719815,86.63709729820755,0,90,3.0,6,0.18839375872592887
8.395,0.22384764873847685,87.26629555257269,0,90,3.0,6,0.2013669186097461
8.4,0.19186090753201765,87.77410402168786,0,90,3.0,6,0.21183719632346107
8.405,0.16148868344343878,88.1374572071066,0,90,3.0,6,0.21932901457951767
8.41,0.1334809643017881,88.33947616553674,0,90,3.0,6,0.22349435392859252
8.415,0.10834733138818531,88.370627803718,0,90,3.0,6,0.22413665574676278
8.42,0.08636519236690572,88.22943022962616,0,90,3.0,6,0.22122536555930228
8.425,0.06760532616242629,87.92255902280364,0,90,3.0,6,0.21489812418151835
8.43,0.05196904332202373,87.4643214547078,0,90,3.0,6,0.20544992690119177
8.435,0.03923107185803287,86.87555008771182,0,90,3.0,7,0.19331031108684155
8.44,0.02908287038705761,86.18203333435652,0,90,3.0,7,0.17901099658467048
8.445,0.02117220077308346,85.41264718597564,0,90,3.0,7,0.1631473646592916
8.45,0.0151361834125735,84.5973760413798,0,90,3.0,7,0.14633765033772791
8.455,0.010626454858290009,83.76540995306897,0,90,3.0,7,0.12918371037255605
8.46,0.007326255555493652,82.94348250088538,0,90,3.0,7,0.11223675259557486
8.465,0.004960179211183015,82.15457284595149,0,90,3.0,7,0.09597057414332973
8.47,0.0032978759379303545,81.41704439676907,0,90,3.0,7,0.08076380199523858
8.475,0.002153242296767213,80.74423883237593,0,90,3.0,7,0.06689152231702944
8.48,0.001380616732225004,80.1444953314543,0,90,3.0,7,0.05452567693720194
8.485,0.0008693106590991584,79.6215264610567,0,90,3.0,7,0.04374281363003512
8.49,0.000537524815942247,79.1750576675656,0,90,3.0,7,0.03453727149619786
8.495,0.0003263951340288585,78.80162755946155,0,90,3.0,7,0.026837681638382488
8.5,0.00019463030985187395,78.4954498134256,0,90,3.0,7,0.02052473842114627
8.505,0.00011397219555062695,78.24925157690515,0,90,3.0,7,0.015448486121755716
8.51,6.55403863487943e-05,78.05502382198966,0,90,3.0,7,0.011443790144116787
8.515,3.701184389455385e-05,77.90464226572584,0,90,3.0,7,0.008343139499501863
8.52,2.0525516217290957e-05,77.79033976819916,0,90,3.0,7,0.00598638697317857
8.525,1.1178128483661116e-05,77.7050300273915,0,90,3.0,7,0.004227423245185594
8.53,5.978135409912517e-06,77.64249646006887,0,90,3.0,7,0.002938071341626178
8.535,3.1396702713238487e-06,77.5974689625508,0,90,3.0,7,0.0020096693309444593
8.54,1.6192875458531019e-06,77.56561517226245,0,90,3.0,7,0.0013528901497413253
8.545,8.201353897972012e-07,77.54347282522139,0,90,3.0,7,0.0008963469117811515
8.55,4.0791415086824765e-07,77.52834700099051,0,90,3.0,7,0.0005844742472269558
8.555,1.9923866938774793e-07,77.51819164760497,0,90,3.0,7,0.00037508551762814547
8.56,9.556527981051257e-08,77.51148980378764,0,90,3.0,7,0.000236903170879177
8.565,4.501406988770349e-08,77.50714214810645,0,90,3.0,7,0.00014726078570006815
8.57,0.0,77.50436938942745,0,90,3.0,7,9.009050365881597e-05
8.575,0.0,77.502630802931,0,90,3.0,7,5.4243359401948275e-05
8.58,0.0,77.50155894768903,0,90,3.0,7,3.2143251320290405e-05
8.585,0.0,77.5009091811648,0,90,3.0,7,1.8746003397949344e-05
8.59,0.0,77.50052184914884,0,90,3.0,7,1.0759776264726544e-05
8.595,0.0,77.50029479165876,0,90,3.0,7,6.078178531136464e-06
8.6,0.0,77.5001638932488,0,90,3.0,7,3.37924224322471e-06
8.605,0.001684486749771458,77.50008967731557,0,90,3.0,7,1.849016815909992e-06
8.61,0.004172395771277602,77.50004829251203,0,90,3.0,7,9.957218976031766e-07
8.615,0.009438687428818865,77.50002559485397,0,90,3.0,7,5.277289477531273e-07
8.62,0.019500507867137046,77.50001335061208,0,90,3.0,7,2.7527035214363197e-07
8.625,0.03679496976339974,77.50000685370425,0,90,3.0,7,1.4131348967969914e-07
8.63,0.06340728953298436,77.50000346278243,0,90,3.0,7,7.13975758881321e-08
8.635,0.09979255396093453,77.5000017218714,0,90,3.0,7,3.550250307712632e-08
8.64,0.14343835518453557,77.50000084265903,0,90,3.0,7,1.7374413074349766e-08
8.645,0.18829581417209276,77.5000004058623,0,90,3.0,7,8.368294739861103e-09
8.65,0.2257481735193119,77.50000019238942,0,90,3.0,7,3.96679220055788e-09
8.655,0.24718154073554727,77.50000008975515,0,90,3.0,7,1.8506215941126413e-09
8.66,0.24718154074102772,77.500000041211,0,90,3.0,7,8.497112475262988e-10
8.665,0.22574817354072055,77.5000000186227,0,90,3.0,7,3.839731923023661e-10
8.67,0.18829581422840957,77.50000000828224,0,90,3.0,7,1.7076788551384732e-10
8.675,0.14343835532456656,77.50000000362517,0,90,3.0,7,7.474587272151167e-11
8.68,0.09979255431561854,77.50000000156166,0,90,3.0,7,3.21991597188243e-11
8.685,0.06340729067170194,77.50000000066208,0,90,3.0,7,1.3651210746005388e-11
8.69,0.03679497683410042,77.50000000027626,0,90,3.0,7,5.696062178629422e-12
8.695,0.019500578284482293,77.50000000011345,0,90,3.0,7,2.3390773853908783e-12
8.7,0.009439396781978427,77.50000000004586,0,90,3.0,7,9.455346013599354e-13
8.705,0.004178588733610924,77.50000000001823,0,90,3.0,7,3.759283834969932e-13
8.71,0.0017299316936037381,77.50000000000713,0,90,3.0,7,1.4708967148518363e-13
