Time,ECG,Pressure,R_Peaks,mean_hr,hrv_scale,Phase_Bin,Normalized_Pressure
0.0,0.001684486749771458,77.5,0,90,3.0,0,0.0
0.005,0.004172395771277602,77.5,0,90,3.0,0,0.0
0.01,0.009438687428818865,77.5,0,90,3.0,0,0.0
0.015,0.019500507867137046,77.5,0,90,3.0,0,0.0
0.02,0.03679496976339974,77.5,0,90,3.0,0,0.0
0.025,0.06340728953298436,77.5,0,90,3.0,0,0.0
0.03,0.09979255396093453,77.5,0,90,3.0,0,0.0
0.035,0.14343835518453557,77.5,0,90,3.0,0,0.0
0.04,0.18829581417209276,77.5,0,90,3.0,0,0.0
0.045,0.2257481735193119,77.5,0,90,3.0,0,0.0
0.05,0.24718154073554727,77.5,0,90,3.0,0,0.0
0.055,0.24718154074102772,77.5,0,90,3.0,0,0.0
0.06,0.22574817354072055,77.5,0,90,3.0,0,0.0
0.065,0.18829581422840957,77.5,0,90,3.0,0,0.0
0.07,0.14343835532456656,77.5,0,90,3.0,0,0.0
0.075,0.09979255431561854,77.5,0,90,3.0,0,0.0
0.08,0.06340729067170194,77.5,0,90,3.0,0,0.0
0.085,0.03679497683410042,77.5,0,90,3.0,0,0.0
0.09,0.019500578284482293,77.5,0,90,3.0,0,0.0
0.095,0.009439396781978427,77.5,0,90,3.0,0,0.0
0.1,0.004178588733610924,77.5,0,90,3.0,0,0.0
0.105,0.0017299316936037381,77.5,0,90,3.0,0,0.0
0.11,0.0008997325756988589,77.5,0,90,3.0,0,0.0
0.115,0.001634769674224814,77.5,0,90,3.0,0,0.0
0.12,0.00614904736476635,77.5,0,90,3.0,0,0.0
0.125,0.02168080359963608,77.5,0,90,3.0,0,0.0
0.13,0.06433400338904088,77.5,0,90,3.0,0,0.0
0.135,0.1593410769217493,77.5,0,90,3.0,0,0.0
0.14,0.3291989194808569,77.5,0,90,3.0,0,0.0
0.145,0.5672906802982638,77.5,0,90,3.0,0,0.0
0.15,0.815339152120446,77.5,0,90,3.0,0,0.0
0.155,0.9768711246313155,77.5,0,90,3.0,0,0.0
0.16,0.9726380909165361,77.5,0,90,3.0,0,0.0
0.165,0.7921091683291741,77.5,0,90,3.0,0,0.0
0.17,0.49139090102639077,77.5,0,90,3.0,0,0.0
0.175,0.15739335672107918,77.5,0,90,3.0,0,0.0
0.18,-0.11102342218909485,77.5,0,90,3.0,0,0.0
0.185,-0.2314207883647528,77.5,0,90,3.0,0,0.0
0.19,-0.2029124434754801,77.5,0,90,3.0,0,0.0
0.195,-0.11151350554305876,77.5,0,90,3.0,0,0.0
0.2,-0.039430666652076896,77.5,0,90,3.0,0,0.0
0.205,-0.006087703519843621,77.5,0,90,3.0,0,0.0
0.21,0.005350271385530551,77.5,0,90,3.0,0,0.0
0.215,0.010381647827441833,77.5,0,90,3.0,0,0.0
0.22,0.015115203303506243,77.5,0,90,3.0,0,0.0
0.225,0.021170964062928475,77.5,0,90,3.0,0,0.0
0.23,0.029082821134029553,77.5,0,90,3.0,0,0.0
0.235,0.03923107061708144,77.5,0,90,3.0,0,0.0
0.24,0.051969043308817596,77.5,0,90,3.0,0,0.0
0.245,0.06760532616283861,77.5,0,90,3.0,0,0.0
0.25,0.08636519236693461,77.5,0,90,3.0,0,0.0
0.255,0.10834733138818661,77.5,0,90,3.0,0,0.0
0.26,0.1334809643017884,77.5,0,90,3.0,0,0.0
0.265,0.16148868344343945,77.5,0,90,3.0,0,0.0
0.27,0.191860907532018,77.5,0,90,3.0,0,0.0
0.275,0.22384764873847726,77.5,0,90,3.0,0,0.0
0.28,0.25647215537198226,77.5,0,90,3.0,0,0.0
0.285,0.2885689161419028,77.5,0,90,3.0,0,0.0
0.29,0.31884566517832524,77.5,0,90,3.0,0,0.0
0.295,0.3459657668955683,77.5,0,90,3.0,0,0.0
0.3,0.3686441789190902,77.5,0,90,3.0,0,0.0
0.305,0.3857476379544367,77.5,0,90,3.0,0,0.0
0.31,0.3963882865005728,77.5,0,90,3.0,0,0.0
0.315,0.4,77.5,0,90,3.0,0,0.0
0.32,0.39638828650057273,77.5,0,90,3.0,0,0.0
0.325,0.38574763795443656,77.5,0,90,3.0,0,0.0
0.33,0.36864417891908974,77.5,0,90,3.0,0,0.0
0.335,0.345965766895568,77.5,0,90,3.0,0,0.0
0.34,0.3188456651783249,77.5,0,90,3.0,0,0.0
0.345,0.28856891614190205,77.5,0,90,3.0,0,0.0
0.35,0.2564721553719815,77.5,0,90,3.0,0,0.0
0.355,0.22384764873847685,77.5,0,90,3.0,0,0.0
0.36,0.19186090753201765,77.5,0,90,3.0,0,0.0
0.365,0.16148868344343878,77.5,0,90,3.0,0,0.0
0.37,0.1334809643017881,77.5,0,90,3.0,0,0.0
0.375,0.10834733138818531,77.5,0,90,3.0,0,0.0
0.38,0.08636519236690572,77.5,0,90,3.0,0,0.0
0.385,0.06760532616242629,77.5,0,90,3.0,0,0.0
0.39,0.05196904332202373,77.5,0,90,3.0,0,0.0
0.395,0.03923107185803287,77.5,0,90,3.0,0,0.0
0.4,0.02908287038705761,77.5,0,90,3.0,0,0.0
0.405,0.02117220077308346,77.5,0,90,3.0,0,0.0
0.41,0.0151361834125735,77.5,0,90,3.0,0,0.0
0.415,0.010626454858290009,77.5,0,90,3.0,0,0.0
0.42,0.007326255555493652,77.5,0,90,3.0,0,0.0
0.425,0.004960179211183015,77.5,0,90,3.0,0,0.0
0.43,0.0032978759379303545,77.5,0,90,3.0,0,0.0
0.435,0.002153242296767213,77.5,0,90,3.0,0,0.0
0.44,0.001380616732225004,77.5,0,90,3.0,0,0.0
0.445,0.0008693106590991584,77.5,0,90,3.0,0,0.0
0.45,0.000537524815942247,77.5,0,90,3.0,0,0.0
0.455,0.0003263951340288585,77.5,0,90,3.0,0,0.0
0.46,0.00019463030985187395,77.5,0,90,3.0,0,0.0
0.465,0.00011397219555062695,77.5,0,90,3.0,0,0.0
0.47,6.55403863487943e-05,77.5,0,90,3.0,0,0.0
0.475,3.701184389455385e-05,77.5,0,90,3.0,0,0.0
0.48,2.0525516217290957e-05,77.5,0,90,3.0,0,0.0
0.485,1.1178128483661116e-05,77.5,0,90,3.0,0,0.0
0.49,5.978135409912517e-06,77.5,0,90,3.0,0,0.0
0.495,3.1396702713238487e-06,77.5,0,90,3.0,0,0.0
0.5,1.6192875458531019e-06,77.5,0,90,3.0,0,0.0
0.505,8.201353897972012e-07,77.5,0,90,3.0,0,0.0
0.51,4.0791415086824765e-07,77.5,0,90,3.0,0,0.0
0.515,1.9923866938774793e-07,77.5,0,90,3.0,0,0.0
0.52,9.556527981051257e-08,77.5,0,90,3.0,0,0.0
0.525,4.501406988770349e-08,77.5,0,90,3.0,0,0.0
0.53,0.0,77.5,0,90,3.0,0,0.0
0.535,0.0,77.5,0,90,3.0,0,0.0
0.54,0.0,77.5,0,90,3.0,0,0.0
0.545,0.0,77.5,0,90,3.0,0,0.0
0.55,0.0,77.5,0,90,3.0,0,0.0
0.555,0.0,77.5,0,90,3.0,0,0.0
0.56,0.0,77.5,0,90,3.0,0,0.0
0.565,0.0,77.5,0,90,3.0,0,0.0
0.57,0.0,77.5,0,90,3.0,0,0.0
0.575,0.0,77.5,0,90,3.0,0,0.0
0.58,0.0,77.5,0,90,3.0,0,0.0
0.585,0.0,77.5,0,90,3.0,0,0.0
0.59,0.0,77.5,0,90,3.0,0,0.0
0.595,0.0,77.5,0,90,3.0,0,0.0
0.6,0.0,77.5,0,90,3.0,0,0.0
0.605,0.0,77.5,0,90,3.0,0,0.0
0.61,0.0,77.5,0,90,3.0,0,0.0
0.615,0.0,77.5,0,90,3.0,0,0.0
0.62,0.0,77.5,0,90,3.0,0,0.0
0.625,0.0,77.5,0,90,3.0,0,0.0
0.63,0.0,77.5,0,90,3.0,0,0.0
0.635,0.0,77.5,0,90,3.0,0,0.0
0.64,0.0,77.5,0,90,3.0,0,0.0
0.645,0.0,77.5,0,90,3.0,0,0.0
0.65,0.0,77.5,0,90,3.0,0,0.0
0.655,0.0,77.5,0,90,3.0,0,0.0
0.66,0.001684486749771458,77.5,0,90,3.0,0,0.0
0.665,0.004172395771277602,77.5,0,90,3.0,0,0.0
0.67,0.009438687428818865,77.5,0,90,3.0,0,0.0
0.675,0.019500507867137046,77.5,0,90,3.0,0,0.0
0.68,0.03679496976339974,77.5,0,90,3.0,0,0.0
0.685,0.06340728953298436,77.5,0,90,3.0,0,0.0
0.69,0.09979255396093453,77.5,0,90,3.0,0,0.0
0.695,0.14343835518453557,77.5,0,90,3.0,0,0.0
0.7,0.18829581417209276,77.5,0,90,3.0,0,0.0
0.705,0.2257481735193119,77.5,0,90,3.0,0,0.0
0.71,0.24718154073554727,77.5,0,90,3.0,0,0.0
0.715,0.24718154074102772,77.5,0,90,3.0,0,0.0
0.72,0.22574817354072055,77.5,0,90,3.0,0,0.0
0.725,0.18829581422840957,77.5,0,90,3.0,0,0.0
0.73,0.14343835532456656,77.5,0,90,3.0,0,0.0
0.735,0.09979255431561854,77.5,0,90,3.0,0,0.0
0.74,0.06340729067170194,77.5,0,90,3.0,0,0.0
0.745,0.03679497683410042,77.5,0,90,3.0,0,0.0
0.75,0.019500578284482293,77.5,0,90,3.0,0,0.0
0.755,0.009439396781978427,77.5,0,90,3.0,0,0.0
0.76,0.004178588733610924,77.5,0,90,3.0,0,0.0
0.765,0.0017299316936037381,77.5,0,90,3.0,0,0.0
0.77,0.0008997325756988589,77.5,0,90,3.0,0,0.0
0.775,0.001634769674224814,77.5,0,90,3.0,0,0.0
0.78,0.00614904736476635,77.5,0,90,3.0,0,0.0
0.785,0.02168080359963608,77.5,0,90,3.0,0,0.0
0.79,0.06433400338904088,77.5,0,90,3.0,0,0.0
0.795,0.1593410769217493,77.5,0,90,3.0,0,0.0
0.8,0.3291989194808569,77.5,0,90,3.0,0,0.0
0.805,0.5672906802982638,77.5,0,90,3.0,0,0.0
0.81,0.815339152120446,77.5,0,90,3.0,0,0.0
0.815,0.9768711246313155,77.5000028495992,1,90,3.0,0,5.8754622647104476e-08
0.82,0.9726380909165361,77.50000521622965,0,90,3.0,0,1.075511268589759e-07
0.825,0.7921091683291741,77.50001003184255,0,90,3.0,0,2.06842114423744e-07
0.83,0.49139090102639077,77.50002086143309,0,90,3.0,0,4.30132640946054e-07
0.835,0.15739335672107918,77.5000476593659,0,90,3.0,0,9.826673382361047e-07
0.84,-0.11102342218909485,77.5001183364054,0,90,3.0,0,2.4399258843904763e-06
0.845,-0.2314207883647528,77.50030933544511,0,90,3.0,0,6.378050414630557e-06
0.85,-0.2029124434754801,77.50082200342337,0,90,3.0,0,1.6948524193111617e-05
0.855,-0.11151350554305876,77.50216205965356,0,90,3.0,0,4.457854955787588e-05
0.86,-0.039430666652076896,77.50553489210309,0,90,3.0,0,0.0001141214866615578
0.865,-0.006087703519843621,77.51365844030069,0,90,3.0,0,0.0002816173257873785
0.87,0.005350271385530551,77.53231627301004,0,90,3.0,0,0.0006663149074234897
0.875,0.010381647827441833,77.57309621159689,0,90,3.0,0,0.001507138383441046
0.88,0.015115203303506243,77.657803469981,0,90,3.0,0,0.0032536797934227773
0.885,0.021170964062928475,77.82485509900845,0,90,3.0,0,0.006698043278524646
0.89,0.029082821134029553,78.13736293559109,0,90,3.0,0,0.01314150382662031
0.895,0.03923107061708144,78.69144684397986,0,90,3.0,0,0.024565914308863117
0.9,0.051969043308817596,79.62164981828742,0,90,3.0,0,0.0437453570780912
0.905,0.06760532616283861,81.09861679088165,0,90,3.0,0,0.07419828434807525
0.91,0.08636519236693461,83.31340846938576,0,90,3.0,0,0.11986409215228377
0.915,0.10834733138818661,86.44420204955951,0,90,3.0,0,0.18441653710431974
0.92,0.1334809643017884,90.60562721106557,0,90,3.0,0,0.2702191177539292
0.925,0.16148868344343945,95.78836983257673,0,90,3.0,0,0.3770797903624069
0.93,0.191860907532018,101.80487465023725,0,90,3.0,0,0.501131436087366
0.935,0.22384764873847726,108.26223981649645,0,90,3.0,0,0.6342729859071432
0.94,0.25647215537198226,114.58168257095079,0,90,3.0,0,0.7645707746587792
0.945,0.2885689161419028,120.0732287599271,0,90,3.0,0,0.8777985311325176
0.95,0.31884566517832524,124.05651257188923,0,90,3.0,0,0.9599280942657573
0.955,0.3459657668955683,126.0,0,90,3.0,0,1.0
0.96,0.3686441789190902,125.63979154071257,0,90,3.0,0,0.9925730214579911
0.965,0.3857476379544367,123.04159744781288,0,90,3.0,0,0.9390020092332552
0.97,0.3963882865005728,118.58602852218327,0,90,3.0,0,0.8471346087048097
0.975,0.4,112.88194313968907,0,90,3.0,0,0.7295246008183314
0.98,0.39638828650057273,106.63524700178176,0,90,3.0,0,0.6007267423047786
0.985,0.38574763795443656,100.51222268984526,0,90,3.0,0,0.4744788183473249
0.99,0.36864417891908974,95.03342954567974,0,90,3.0,0,0.3615140112511286
0.995,0.345965766895568,90.51937551821848,0,90,3.0,0,0.2684407323344017
1.0,0.3188456651783249,87.0899623785511,0,90,3.0,0,0.1977311830629094
1.005,0.28856891614190205,84.70403859301403,0,90,3.0,0,0.1485368782064749
1.01,0.2564721553719815,83.21803786777781,0,90,3.0,0,0.11789768799541875
1.015,0.22384764873847685,82.44396448813953,0,90,3.0,0,0.1019374121265882
1.02,0.19186090753201765,82.19384441375703,0,90,3.0,0,0.09678029719086668
1.025,0.16148868344343878,82.30602436330493,0,90,3.0,0,0.09909328584133872
1.03,0.1334809643017881,82.65514723512985,0,90,3.0,0,0.10629169556968754
1.035,0.10834733138818531,83.15091306925933,0,90,3.0,0,0.11651367153112024
1.04,0.08636519236690572,83.73116053721081,0,90,3.0,0,0.12847753684970747
1.045,0.06760532616242629,84.35352751412901,0,90,3.0,0,0.1413098456521446
1.05,0.05196904332202373,84.988162019471,0,90,3.0,0,0.1543950931849692
1.055,0.03923107185803287,85.61243627372812,0,90,3.0,0,0.16726672729336334
1.06,0.02908287038705761,86.20766235021242,0,90,3.0,0,0.17953942990128693
1.065,0.02117220077308346,86.75737840114627,0,90,3.0,0,0.19087378146693337
1.07,0.0151361834125735,87.24669041211017,0,90,3.0,0,0.200962688909488
1.075,0.010626454858290009,87.66223561673164,0,90,3.0,0,0.20953063127281724
1.08,0.007326255555493652,87.99245861796106,0,90,3.0,0,0.21633935294765078
1.085,0.004960179211183015,88.22800094208027,0,90,3.0,0,0.22119589571299528
1.09,0.0032978759379303545,88.36208251802232,0,90,3.0,0,0.22396046428911998
1.095,0.002153242296767213,88.3908031202982,0,90,3.0,0,0.22455264165563302
1.1,0.001380616732225004,88.313322569792,0,90,3.0,0,0.22295510453179396
1.105,0.0008693106590991584,88.13189872855499,0,90,3.0,0,0.21921440677432963
1.11,0.000537524815942247,87.85177727674194,0,90,3.0,0,0.21343870673694726
1.115,0.0003263951340288585,87.48093946488271,0,90,3.0,0,0.20579256628624143
1.12,0.00019463030985187395,87.02972432038673,0,90,3.0,0,0.1964891612450873
1.125,0.00011397219555062695,86.51035011571695,0,90,3.0,0,0.18578041475705043
1.13,6.55403863487943e-05,85.93636593813538,0,90,3.0,0,0.17394568944609035
1.135,3.701184389455385e-05,85.3220676178811,0,90,3.0,0,0.16127974469857945
1.14,2.0525516217290957e-05,84.6819129313368,0,90,3.0,0,0.148080678996635
1.145,1.1178128483661116e-05,84.02996899291153,0,90,3.0,0,0.1346385359363203
1.15,5.978135409912517e-06,83.37942041297052,0,90,3.0,0,0.1212251631540313
1.155,3.1396702713238487e-06,82.74216065154886,0,90,3.0,0,0.10808578662987335
1.16,1.6192875458531019e-06,82.1284816903293,0,90,3.0,0,0.09543261217173804
1.165,8.201353897972012e-07,81.54686938374624,0,90,3.0,0,0.08344060585043796
1.17,4.0791415086824765e-07,81.00390431750586,0,90,3.0,0,0.07224544984548158
1.175,1.9923866938774793e-07,80.50426129419272,0,90,3.0,0,0.061943531839025075
1.18,9.556527981051257e-08,80.0507951370098,0,90,3.0,0,0.05259371416515051
1.185,4.501406988770349e-08,79.64469664134593,0,90,3.0,0,0.04422054930610166
1.19,0.0,79.28570032014531,0,90,3.0,0,0.036818563301965146
1.195,0.0,78.97232502831886,0,90,3.0,0,0.03035721707873945
1.2,0.0,78.70212942204091,0,90,3.0,0,0.024786173650328078
1.205,0.0,78.47196622074313,0,90,3.0,1,0.020040540633878907
1.21,0.0,78.27822204797289,0,90,3.0,1,0.016045815422121426
1.215,0.0,78.11703287434221,0,90,3.0,1,0.012722327306025044
1.22,0.0,77.98446843779352,0,90,3.0,1,0.009989039954505645
1.225,0.0,77.87668219124409,0,90,3.0,1,0.007766643118434765
1.23,0.0,77.79002611222023,0,90,3.0,1,0.005979919839592419
1.235,0.0,77.72113196608001,0,90,3.0,1,0.0045594219810311054
1.24,0.0,77.66696228011871,0,90,3.0,1,0.003442521239561037
1.245,0.0,77.62483536066372,0,90,3.0,1,0.0025739249621386353
1.25,0.0,77.59242921979414,0,90,3.0,1,0.0019057571091575505
1.255,0.0,77.5677693573691,0,90,3.0,1,0.0013973063375072496
1.26,0.0,77.54920507081805,0,90,3.0,1,0.0010145375426401475
1.265,0.0,77.53537844729509,0,90,3.0,1,0.0007294525215482013
1.27,0.0,77.52518953144987,0,90,3.0,1,0.0005193717824715101
1.275,0.0,77.51776044419957,0,90,3.0,1,0.0003661947257642661
1.28,0.0,77.51240052211861,0,90,3.0,1,0.00025568086842496865
1.285,0.0,77.50857390234358,0,90,3.0,1,0.00017678149162030733
1.29,0.0,77.50587042450613,0,90,3.0,1,0.0001210396805387185
1.295,0.0,77.50398027332128,0,90,3.0,1,8.20674911603147e-05
1.3,0.0,77.50267244451638,0,90,3.0,1,5.510194879129766e-05
1.305,0.0,77.5017768751459,0,90,3.0,1,3.6636600946249204e-05
1.31,0.0,77.50116992370694,0,90,3.0,1,2.4122138287409434e-05
1.315,0.0,77.50076279982322,0,90,3.0,1,1.5727831406616835e-05
1.32,0.0,77.50049251111884,0,90,3.0,1,1.015486842960076e-05
1.325,0.0,77.50031490090498,0,90,3.0,1,6.492802164579301e-06
1.33,0.0,77.50019938119357,0,90,3.0,1,4.110952444694028e-06
1.335,0.0,77.50012501061386,0,90,3.0,1,2.5775384300424175e-06
1.34,0.0,77.50007761791949,0,90,3.0,1,1.6003694739636784e-06
1.345,0.0,77.50004772319603,0,90,3.0,1,9.839834233647257e-07
1.35,0.0,77.50002905691196,0,90,3.0,1,5.991115867144208e-07
1.355,0.0,77.50001751950404,0,90,3.0,1,3.6122688744895996e-07
1.36,0.0,77.50001046035855,0,90,3.0,1,2.1567749593149407e-07
1.365,0.0,77.50000618477277,0,90,3.0,1,1.275210880854483e-07
1.37,0.0,77.5000036212069,0,90,3.0,1,7.466405980539065e-08
1.375,0.0,77.5000020995941,0,90,3.0,1,4.329059997074829e-08
1.38,0.001684486749771458,77.50000120550708,0,90,3.0,1,2.4855815989625268e-08
1.385,0.004172395771277602,77.50000068541972,0,90,3.0,1,1.4132365381040462e-08
1.39,0.009438687428818865,77.50000038591871,0,90,3.0,1,7.957086810756194e-09
1.395,0.019500507867137046,77.50000021517286,0,90,3.0,1,4.436553832213754e-09
1.4,0.03679496976339974,77.50000011880414,0,90,3.0,1,2.4495698573783677e-09
1.405,0.06340728953298436,77.5000000649573,0,90,3.0,1,1.3393258827302806e-09
1.41,0.09979255396093453,77.50000003517037,0,90,3.0,1,7.251623356779353e-10
1.415,0.14343835518453557,77.50000001885725,0,90,3.0,1,3.8880927801524053e-10
1.42,0.18829581417209276,77.50000001001226,0,90,3.0,1,2.064383028782592e-10
1.425,0.2257481735193119,77.50000000526427,0,90,3.0,1,1.0854162929277176e-10
1.43,0.24718154073554727,77.50000000274092,0,90,3.0,1,5.651378563287807e-11
1.435,0.24718154074102772,77.50000000141321,0,90,3.0,1,2.913840531975213e-11
1.44,0.22574817354072055,77.50000000072156,0,90,3.0,1,1.487744635390478e-11
1.445,0.18829581422840957,77.50000000036482,0,90,3.0,1,7.52208375770445e-12
1.45,0.14343835532456656,77.50000000018267,0,90,3.0,1,3.766316010499104e-12
1.455,0.09979255431561854,77.50000000009057,0,90,3.0,1,1.8673356103089148e-12
1.46,0.06340729067170194,77.50000000004447,0,90,3.0,1,9.16819884615816e-13
1.465,0.03679497683410042,77.50000000002161,0,90,3.0,1,4.4566412416128344e-13
1.47,0.019500578284482293,77.5000000000104,0,90,3.0,1,2.1448135363974982e-13
1.475,0.009439396781978427,77.50000000000496,0,90,3.0,1,1.0225955248671133e-13
1.48,0.004178588733610924,77.50000000000234,0,90,3.0,1,4.834620676305836e-14
1.485,0.0017299316936037381,77.5000000000011,0,90,3.0,1,2.25615631560939e-14
1.49,0.0008997325756988589,77.50000000000051,0,90,3.0,1,1.0548263293758189e-14
1.495,0.001634769674224814,77.50000000000023,0,90,3.0,1,4.688117019448084e-15
1.5,0.00614904736476635,77.5000000000001,0,90,3.0,1,2.0510511960085364e-15
1.505,0.02168080359963608,77.50000000000004,0,90,3.0,1,8.790219411465157e-16
1.51,0.06433400338904088,77.50000000000001,0,90,3.0,1,2.9300731371550523e-16
1.515,0.1593410769217493,77.50000000000001,0,90,3.0,1,2.9300731371550523e-16
1.52,0.3291989194808569,77.5,0,90,3.0,1,0.0
1.525,0.5672906802982638,77.5,0,90,3.0,1,0.0
1.53,0.815339152120446,77.5,0,90,3.0,1,0.0
1.535,0.9768711246313155,77.50000284455477,1,90,3.0,1,5.865061384095488e-08
1.54,0.9726380909165361,77.50000580215873,0,90,3.0,1,1.1963213866046006e-07
1.545,0.7921091683291741,77.50001275539046,0,90,3.0,1,2.6299774139467264e-07
1.55,0.49139090102639077,77.50003153289097,0,90,3.0,1,6.501627004562926e-07
1.555,0.15739335672107918,77.50008834514392,0,90,3.0,1,1.8215493592205602e-06
1.56,-0.11102342218909485,77.50026962696381,0,90,3.0,1,5.559318841517676e-06
1.565,-0.2314207883647528,77.50084721852477,0,90,3.0,1,1.746842319109944e-05
1.57,-0.2029124434754801,77.50262352697138,0,90,3.0,1,5.4093339616011907e-05
1.575,-0.11151350554305876,77.5078033638614,0,90,3.0,1,0.00016089410023502665
1.58,-0.039430666652076896,77.52199868923158,0,90,3.0,1,0.00045358122126969516
1.585,-0.006087703519843621,77.55839158559259,0,90,3.0,1,0.0012039502184038775
1.59,0.005350271385530551,77.64544907945715,0,90,3.0,1,0.0029989500919000256
1.595,0.010381647827441833,77.83943363242335,0,90,3.0,1,0.006998631596357746
1.6,0.015115203303506243,78.24149114478274,0,90,3.0,1,0.015288477212015301
1.605,0.021170964062928475,79.01552596208309,0,90,3.0,1,0.03124795798109462
1.61,0.029082821134029553,80.39745622062914,0,90,3.0,1,0.059741365373796665
1.615,0.03923107061708144,82.68089569707755,0,90,3.0,1,0.10682259169232053
1.62,0.051969043308817596,86.16349000922408,0,90,3.0,1,0.1786286599840016
1.625,0.06760532616283861,91.04761566539297,0,90,3.0,1,0.27933228176067976
1.63,0.08636519236693461,97.31105705610833,0,90,3.0,1,0.40847540321872833
1.635,0.10834733138818661,104.59124514857123,0,90,3.0,1,0.558582374197345
1.64,0.1334809643017884,112.14479230420652,0,90,3.0,1,0.714325614519722
1.645,0.16148868344343945,118.93414437414808,0,90,3.0,1,0.8543122551370738
1.65,0.191860907532018,123.84829352749307,0,90,3.0,1,0.9556349180926406
1.655,0.22384764873847726,126.0,0,90,3.0,1,1.0
1.66,0.25647215537198226,124.99217715523251,0,90,3.0,1,0.9792201475305672
1.665,0.2885689161419028,121.04437142658236,0,90,3.0,1,0.8978220912697393
1.67,0.31884566517832524,114.92472257434005,0,90,3.0,1,0.7716437644193825
1.675,0.3459657668955683,107.71690768839707,0,90,3.0,1,0.6230290245030324
1.68,0.3686441789190902,100.51955294559312,0,90,3.0,1,0.4746299576410952
1.685,0.3857476379544367,94.19220054499121,0,90,3.0,1,0.3441690834018806
1.69,0.3963882865005728,89.22431615738736,0,90,3.0,1,0.2417384774719044
1.695,0.4,85.7397757016038,0,90,3.0,1,0.16989228250729493
1.7,0.39638828650057273,83.59551274299349,0,90,3.0,1,0.1256806751132679
1.705,0.38574763795443656,82.51202148824075,0,90,3.0,1,0.10334064924207728
1.71,0.36864417891908974,82.18453997599953,0,90,3.0,1,0.09658845311339231
1.715,0.345965766895568,82.35069195328542,0,90,3.0,1,0.10001426707804989
1.72,0.3188456651783249,82.81534105407329,0,90,3.0,1,0.10959466090872755
1.725,0.28856891614190205,83.44684964319964,0,90,3.0,1,0.12261545656081735
1.73,0.2564721553719815,84.16077579935893,0,90,3.0,1,0.1373355834919367
1.735,0.22384764873847685,84.90235137585982,0,90,3.0,1,0.15262580156412006
1.74,0.19186090753201765,85.6331163605077,0,90,3.0,1,0.1676931208352103
1.745,0.16148868344343878,86.32276772136484,0,90,3.0,1,0.1819127365229864
1.75,0.1334809643017881,86.94520055538263,0,90,3.0,1,0.1947464032037655
1.755,0.10834733138818531,87.47723188509201,0,90,3.0,1,0.2057161213421033
1.76,0.08636519236690572,87.89875236903507,0,90,3.0,1,0.2144072653409292
1.765,0.06760532616242629,88.19347427941852,0,90,3.0,1,0.2204840057612067
1.77,0.05196904332202373,88.34978775287364,0,90,3.0,1,0.22370696397677606
1.775,0.03923107185803287,88.36145639506222,0,90,3.0,1,0.22394755453736537
1.78,0.02908287038705761,88.22801050891252,0,90,3.0,1,0.22119609296726842
1.785,0.02117220077308346,87.95477284458106,0,90,3.0,1,0.21556232669239295
1.79,0.0151361834125735,87.55250483419901,0,90,3.0,1,0.20726814091131984
1.795,0.010626454858290009,87.03670299958162,0,90,3.0,1,0.1966330515377654
1.8,0.007326255555493652,86.42660878786413,0,90,3.0,1,0.18405378944049744
1.805,0.004960179211183015,85.74401975485523,0,90,3.0,1,0.16997978875990166
1.81,0.0032978759379303545,85.01200421327506,0,90,3.0,1,0.15488668480979512
1.815,0.002153242296767213,84.25362432761578,0,90,3.0,1,0.13924998613640788
1.82,0.001380616732225004,83.4907645732292,0,90,3.0,1,0.1235209190356536
1.825,0.0008693106590991584,82.74314518763843,0,90,3.0,1,0.10810608634306047
1.83,0.000537524815942247,82.02757644937837,0,90,3.0,1,0.09335209173976027
1.835,0.0003263951340288585,81.35748261877617,0,90,3.0,1,0.07953572409847783
1.84,0.00019463030985187395,80.74269753063376,0,90,3.0,1,0.0668597428996652
1.845,0.00011397219555062695,80.18951010980362,0,90,3.0,1,0.05545381669698187
1.85,6.55403863487943e-05,79.70091970511072,0,90,3.0,1,0.045379787734241665
1.855,3.701184389455385e-05,79.27704937041982,0,90,3.0,1,0.036640193204532316
1.86,2.0525516217290957e-05,78.91566034163318,0,90,3.0,1,0.029188873023364634
1.865,1.1178128483661116e-05,78.61271236828955,0,90,3.0,1,0.022942523057516498
1.87,5.978135409912517e-06,78.36292100843355,0,90,3.0,1,0.017792185740897845
1.875,3.1396702713238487e-06,78.16027286034101,0,90,3.0,1,0.013613873409092989
1.88,1.6192875458531019e-06,77.99847126514554,0,90,3.0,1,0.01027775804423793
1.885,8.201353897972012e-07,77.87129669790625,0,90,3.0,1,0.0076556020186854794
1.89,4.0791415086824765e-07,77.7728766174986,0,90,3.0,1,0.005626322010280338
1.895,1.9923866938774793e-07,77.69786812413626,0,90,3.0,1,0.004079755136830178
1.9,9.556527981051257e-08,77.64156295752402,0,90,3.0,1,0.0029188238664745575
1.905,4.501406988770349e-08,77.59992811506405,0,90,3.0,1,0.0020603735064751677
1.91,0.0,77.56959692327771,0,90,3.0,1,0.0014349881088188555
1.915,0.0,77.54782518554492,0,90,3.0,1,0.0009860862998953192
1.92,0.0,77.53242556585776,0,90,3.0,1,0.0006685683682013222
1.925,0.0,77.52169115816386,0,90,3.0,1,0.000447240374512603
1.93,0.0,77.51431667597406,0,90,3.0,1,0.0002951891953414032
1.935,0.0,77.50932321990186,0,90,3.0,1,0.00019223133818265347
1.94,0.0,77.5059903739918,0,90,3.0,1,0.000123512865810454
1.945,0.0,77.503797573812,0,90,3.0,1,7.830049096894785e-05
1.95,0.0,77.50237532362256,0,90,3.0,1,4.897574479502613e-05
1.955,0.0,77.50146589758421,0,90,3.0,1,3.02246924579589e-05
1.96,0.0,77.5008925832809,0,90,3.0,1,1.840377898765462e-05
1.965,0.0,77.50053623868786,0,90,3.0,1,1.1056467790873172e-05
1.97,0.0,77.50031785702697,0,90,3.0,1,6.553753133424103e-06
1.975,0.0,77.50018589588124,0,90,3.0,1,3.832904767934976e-06
1.98,0.0,77.50010726844758,0,90,3.0,1,2.211720568632784e-06
1.985,0.0,77.50006107148786,0,90,3.0,1,1.2592059353252255e-06
1.99,0.0,77.5000343059368,0,90,3.0,1,7.073389029596677e-07
1.995,0.001684486749771458,77.50001901359956,0,90,3.0,1,3.920329805206381e-07
2.0,0.004172395771277602,77.50001039737434,0,90,3.0,1,2.143788523562293e-07
2.005,0.009438687428818865,77.50000560979892,0,90,3.0,1,1.1566595708714398e-07
2.01,0.019500507867137046,77.50000298631205,0,90,3.0,1,6.157344442332952e-08
2.015,0.03679496976339974,77.50000156851023,0,90,3.0,1,3.2340417079729975e-08
2.02,0.06340728953298436,77.50000081283763,0,90,3.0,1,1.6759538691554346e-08
2.025,0.09979255396093453,77.5000004156086,0,90,3.0,1,8.569249410863177e-09
2.03,0.14343835518453557,77.50000020966674,0,90,3.0,1,4.323025511448859e-09
2.035,0.18829581417209276,77.50000010436113,0,90,3.0,1,2.151775976186006e-09
2.04,0.2257481735193119,77.50000005125219,0,90,3.0,1,1.0567461132952828e-09
2.045,0.24718154073554727,77.5000000248342,0,90,3.0,1,5.120452240908449e-10
2.05,0.24718154074102772,77.50000001187277,0,90,3.0,1,2.447994064045206e-10
2.055,0.22574817354072055,77.5000000056004,0,90,3.0,1,1.1547213128408461e-10
2.06,0.18829581422840957,77.50000000260646,0,90,3.0,1,5.374135043050196e-11
2.065,0.14343835532456656,77.50000000119687,0,90,3.0,1,2.467766197574728e-11
2.07,0.09979255431561854,77.50000000054226,0,90,3.0,1,1.1180573076756249e-11
2.075,0.06340729067170194,77.5000000002424,0,90,3.0,1,4.997825750045373e-12
2.08,0.03679497683410042,77.50000000010691,0,90,3.0,1,2.204294021081746e-12
2.085,0.019500578284482293,77.50000000004653,0,90,3.0,1,9.593059451045642e-13
2.09,0.009439396781978427,77.50000000001998,0,90,3.0,1,4.1196828308400036e-13
2.095,0.004178588733610924,77.50000000000846,0,90,3.0,1,1.7433935166072562e-13
2.1,0.0017299316936037381,77.50000000000354,0,90,3.0,1,7.295882111516081e-14
2.105,0.0008997325756988589,77.50000000000146,0,90,3.0,1,3.017975331269704e-14
2.11,0.001634769674224814,77.5000000000006,0,90,3.0,1,1.230630717605122e-14
2.115,0.00614904736476635,77.50000000000024,0,90,3.0,1,4.9811243331635886e-15
2.12,0.02168080359963608,77.5000000000001,0,90,3.0,1,2.0510511960085364e-15
2.125,0.06433400338904088,77.50000000000004,0,90,3.0,1,8.790219411465157e-16
2.13,0.1593410769217493,77.50000000000001,0,90,3.0,1,2.9300731371550523e-16
2.135,0.3291989194808569,77.5,0,90,3.0,1,0.0
2.14,0.5672906802982638,77.5,0,90,3.0,1,0.0
2.145,0.815339152120446,77.5,0,90,3.0,1,0.0
2.15,0.9768711246313155,77.50000284586159,1,90,3.0,1,5.8677558500516847e-08
2.155,0.9726380909165361,77.50000516474043,0,90,3.0,1,1.0648949338368784e-07
2.16,0.7921091683291741,77.50000983043871,0,90,3.0,1,2.0268945801485502e-07
2.165,0.49139090102639077,77.50002017526417,0,90,3.0,1,4.1598482821943446e-07
2.17,0.15739335672107918,77.50004536729918,0,90,3.0,1,9.354082305069767e-07
2.175,-0.11102342218909485,77.50011076651302,0,90,3.0,1,2.2838456292325625e-06
2.18,-0.2314207883647528,77.5002850110043,0,90,3.0,1,5.8765155524584185e-06
2.185,-0.2029124434754801,77.50074708028492,0,90,3.0,1,1.5403717214929802e-05
2.19,-0.11151350554305876,77.50194280599986,0,90,3.0,1,4.005785566722263e-05
2.195,-0.039430666652076896,77.5049279313996,0,90,3.0,1,0.00010160683298158099
2.2,-0.006087703519843621,77.51207173356352,0,90,3.0,1,0.0002489017229590993
2.205,0.005350271385530551,77.52840128290548,0,90,3.0,1,0.000585593461968606
2.21,0.010381647827441833,77.56397906014128,0,90,3.0,1,0.0013191558792016167
2.215,0.015115203303506243,77.63776147081478,0,90,3.0,1,0.0028404426972119647
2.22,0.021170964062928475,77.78326220135963,0,90,3.0,1,0.005840457759992444
2.225,0.029082821134029553,78.05587747145417,0,90,3.0,1,0.011461391164003442
2.23,0.03923107061708144,78.54077600300882,0,90,3.0,1,0.0214592990311096
2.235,0.051969043308817596,79.35882370017484,0,90,3.0,1,0.03832626185927501
2.24,0.06760532616283861,80.66643122157606,0,90,3.0,1,0.06528724168198065
2.245,0.08636519236693461,82.64423704518795,0,90,3.0,1,0.10606674319975154
2.25,0.10834733138818661,85.47024105151274,0,90,3.0,1,0.16433486704149988
2.255,0.1334809643017884,89.27633401919208,0,90,3.0,1,0.24281101070499128
2.26,0.16148868344343945,94.09324311547192,0,90,3.0,1,0.3421287240303489
2.265,0.191860907532018,99.79635432434684,0,90,3.0,1,0.45971864586282135
2.27,0.22384764873847726,106.0707181121124,0,90,3.0,1,0.5890869713837609
2.275,0.25647215537198226,112.414152102772,0,90,3.0,1,0.7198794247994226
2.28,0.2885689161419028,118.19021013965265,0,90,3.0,1,0.8389734049412917
2.285,0.31884566517832524,122.72842191489322,0,90,3.0,1,0.9325447817503756
2.29,0.3459657668955683,125.45198838957337,0,90,3.0,1,0.9887007915375953
2.295,0.3686441789190902,126.0,0,90,3.0,1,1.0
2.3,0.3857476379544367,124.30867485172185,0,90,3.0,1,0.9651273165303473
2.305,0.3963882865005728,120.62657779142631,0,90,3.0,1,0.8892077895139446
2.31,0.4,115.45901429383217,0,90,3.0,1,0.782660088532622
2.315,0.39638828650057273,109.45894164673679,0,90,3.0,1,0.6589472504481813
2.32,0.38574763795443656,103.29703058022503,0,90,3.0,1,0.5318975377365985
2.325,0.36864417891908974,97.5464345552443,0,90,3.0,1,0.4133285475308104
2.33,0.345965766895568,92.6085121379603,0,90,3.0,1,0.31151571418474855
2.335,0.3188456651783249,88.68935253270487,0,90,3.0,1,0.23070829964339945
2.34,0.28856891614190205,85.82066001567553,0,90,3.0,1,0.17156000032320678
2.345,0.2564721553719815,83.90809160368029,0,90,3.0,1,0.13212560007588228
2.35,0.22384764873847685,82.78766537950541,0,90,3.0,1,0.10902402844341057
2.355,0.19186090753201765,82.27493168545303,0,90,3.0,1,0.0984521997000624
2.36,0.16148868344343878,82.19880493003672,0,90,3.0,1,0.09688257587704567
2.365,0.1334809643017881,82.4188702080318,0,90,3.0,1,0.10142000428931557
2.37,0.10834733138818531,82.82952231745624,0,90,3.0,1,0.10988705809188119
2.375,0.08636519236690572,83.35601376271482,0,90,3.0,1,0.12074255180855306
2.38,0.06760532616242629,83.9470769430105,0,90,3.0,1,0.13292942150537115
2.385,0.05196904332202373,84.56733781891765,0,90,3.0,1,0.1457183055446938
2.39,0.03923107185803287,85.19117318822897,0,90,3.0,1,0.15858089047894788
2.395,0.02908287038705761,85.79848598049588,0,90,3.0,1,0.1711028037215646
2.4,0.02117220077308346,86.372206845233,0,90,3.0,1,0.18293209990171125
2.405,0.0151361834125735,86.89707692639371,0,90,3.0,1,0.19375416343079813
2.41,0.010626454858290009,87.35925877048336,0,90,3.0,2,0.20328368598934773
2.415,0.007326255555493652,87.74641728003608,0,90,3.0,2,0.2112663356708471
2.42,0.004960179211183015,88.04802380897954,0,90,3.0,2,0.2174850269892688
2.425,0.0032978759379303545,88.25572651055214,0,90,3.0,2,0.22176755691860076
2.43,0.002153242296767213,88.36369161710158,0,90,3.0,2,0.2239936415897233
2.435,0.001380616732225004,88.36885916056198,0,90,3.0,2,0.22410018887756664
2.44,0.0008693106590991584,88.27108106749418,0,90,3.0,2,0.22208414572152949
2.445,0.000537524815942247,88.07312615119709,0,90,3.0,2,0.21800260105561003
2.45,0.0003263951340288585,87.78054918031154,0,90,3.0,2,0.21197008619199048
2.455,0.00019463030985187395,87.40143171379235,0,90,3.0,2,0.20415323121221338
2.46,0.00011397219555062695,86.94601125277715,0,90,3.0,2,0.19476311861396195
2.465,6.55403863487943e-05,86.42622234909373,0,90,3.0,2,0.18404582163079866
2.47,3.701184389455385e-05,85.85517831781087,0,90,3.0,2,0.17227171789300758
2.475,2.0525516217290957e-05,85.24662486818843,0,90,3.0,2,0.15972422408635945
2.48,1.1178128483661116e-05,84.61439720084722,0,90,3.0,2,0.14668860207932416
2.485,5.978135409912517e-06,83.97191003197823,0,90,3.0,2,0.13344144395831392
2.49,3.1396702713238487e-06,83.33170590892841,0,90,3.0,2,0.12024135894697759
2.495,1.6192875458531019e-06,82.70508154656905,0,90,3.0,2,0.10732126900142366
2.5,8.201353897972012e-07,82.10180531548804,0,90,3.0,2,0.09488258382449559
2.505,4.0791415086824765e-07,81.52993206595734,0,90,3.0,2,0.08309138280324412
2.51,1.9923866938774793e-07,80.99571476651627,0,90,3.0,2,0.07207659312404685
2.515,9.556527981051257e-08,80.50360648407369,0,90,3.0,2,0.06193003059945743
2.52,4.501406988770349e-08,80.05634142369696,0,90,3.0,2,0.05270807059168997
2.525,0.0,79.65508032520124,0,90,3.0,2,0.04443464588043794
2.53,0.0,79.29960357294775,0,90,3.0,2,0.03710522830820094
2.535,0.0,78.98853486620382,0,90,3.0,2,0.030691440540284973
2.54,0.0,78.71957905375766,0,90,3.0,2,0.025145959871291867
2.545,0.0,78.48975950713555,0,90,3.0,2,0.02040741251825867
2.55,0.0,78.2956428924812,0,90,3.0,2,0.016405008092395822
2.555,0.0,78.13354209041512,0,90,3.0,2,0.013062723513713799
2.56,0.0,77.99969101352993,0,90,3.0,2,0.010302907495462392
2.565,0.0,77.8903879331648,0,90,3.0,2,0.008049235735356758
2.57,0.0,77.80210645967149,0,90,3.0,2,0.006228999168484375
2.575,0.0,77.73157539738591,0,90,3.0,2,0.00477475046156516
2.58,0.0,77.67583025447672,0,90,3.0,2,0.0036253660716849866
2.585,0.0,77.63224022257143,0,90,3.0,2,0.0027266025272458896
2.59,0.0,77.59851499022419,0,90,3.0,2,0.002031236911838941
2.595,0.0,77.57269588798313,0,90,3.0,2,0.0014988842883119607
2.6,0.0,77.55313566904915,0,90,3.0,2,0.0010955808051372144
2.605,0.0,77.53847080207267,0,90,3.0,2,0.000793212413869408
2.61,0.0,77.52758958124467,0,90,3.0,2,0.0005688573452509103
2.615,0.0,77.51959872218865,0,90,3.0,2,0.00040409736471436886
2.62,0.0,77.51379047372285,0,90,3.0,2,0.0002843396643886512
2.625,0.0,77.50961168199261,0,90,3.0,2,0.00019817901015689758
2.63,0.0,77.50663572503977,0,90,3.0,2,0.0001368190729849794
2.635,0.0,77.50453780836098,0,90,3.0,2,9.35630589892589e-05
2.64,0.0,77.50307377943045,0,90,3.0,2,6.337689547322465e-05
2.645,0.0,77.50206237686946,0,90,3.0,2,4.2523234421866724e-05
2.65,0.0,77.50137066757361,0,90,3.0,2,2.826118708474768e-05
2.655,0.0,77.50090232923444,0,90,3.0,2,1.8604726483200586e-05
2.66,0.0,77.50058839191706,0,90,3.0,2,1.213179210438837e-05
2.665,0.0,77.50038004685945,0,90,3.0,2,7.836017720571185e-06
2.67,0.0,77.50024315117817,0,90,3.0,2,5.013426353978915e-06
2.675,0.0,77.50015409352449,0,90,3.0,2,3.177186071879237e-06
2.68,0.0,77.50009672999809,0,90,3.0,2,1.994432950338246e-06
2.685,0.0,77.50006014600001,0,90,3.0,2,1.240123711542446e-06
2.69,0.0,77.50003704427512,0,90,3.0,2,7.63799486961587e-07
2.695,0.0,77.50002259978108,0,90,3.0,2,4.6597486754397267e-07
2.7,0.0,77.50001365702623,0,90,3.0,2,2.815881696888121e-07
2.705,0.0,77.50000817479433,0,90,3.0,2,1.6855246043792484e-07
2.71,0.0,77.50000484692508,0,90,3.0,2,9.993659958680152e-08
2.715,0.0,77.50000284658763,0,90,3.0,2,5.8692528537181886e-08
2.72,0.0,77.50000165596667,0,90,3.0,2,3.414364268979794e-08
2.725,0.001684486749771458,77.50000095421755,0,90,3.0,2,1.967458875772058e-08
2.73,0.004172395771277602,77.50000054464309,0,90,3.0,2,1.1229754354363397e-08
2.735,0.009438687428818865,77.50000030792529,0,90,3.0,2,6.348975063898701e-09
2.74,0.019500507867137046,77.50000017244378,0,90,3.0,2,3.555541785392483e-09
2.745,0.03679496976339974,77.50000009565737,0,90,3.0,2,1.9723169077327295e-09
2.75,0.06340728953298436,77.50000005256034,0,90,3.0,2,1.0837183155447362e-09
2.755,0.09979255396093453,77.50000002860662,0,90,3.0,2,5.898272385970766e-10
2.76,0.14343835518453557,77.50000001542212,0,90,3.0,2,3.1798179210004633e-10
2.765,0.18829581417209276,77.5000000082355,0,90,3.0,2,1.6980418445903701e-10
2.77,0.2257481735193119,77.50000000435617,0,90,3.0,2,8.981787593172354e-11
2.775,0.24718154073554727,77.50000000228238,0,90,3.0,2,4.705931864121986e-11
2.78,0.24718154074102772,77.50000000118452,0,90,3.0,2,2.4423038620128507e-11
2.785,0.22574817354072055,77.50000000060892,0,90,3.0,2,1.2555070385395684e-11
2.79,0.18829581422840957,77.50000000031007,0,90,3.0,2,6.393126577958609e-12
2.795,0.14343835532456656,77.50000000015639,0,90,3.0,2,3.224545487439135e-12
2.8,0.09979255431561854,77.50000000007813,0,90,3.0,2,1.6109542108078477e-12
2.805,0.06340729067170194,77.50000000003867,0,90,3.0,2,7.972729006198897e-13
2.81,0.03679497683410042,77.50000000001896,0,90,3.0,2,3.90871756496484e-13
2.815,0.019500578284482293,77.50000000000921,0,90,3.0,2,1.898687392876474e-13
2.82,0.009439396781978427,77.50000000000442,0,90,3.0,2,9.112527456552213e-14
2.825,0.004178588733610924,77.5000000000021,0,90,3.0,2,4.336508242989477e-14
2.83,0.0017299316936037381,77.500000000001,0,90,3.0,2,2.0510511960085366e-14
2.835,0.0008997325756988589,77.50000000000047,0,90,3.0,2,9.669241352611673e-15
2.84,0.001634769674224814,77.50000000000021,0,90,3.0,2,4.395109705732579e-15
2.845,0.00614904736476635,77.5000000000001,0,90,3.0,2,2.0510511960085364e-15
2.85,0.02168080359963608,77.50000000000004,0,90,3.0,2,8.790219411465157e-16
2.855,0.06433400338904088,77.50000000000001,0,90,3.0,2,2.9300731371550523e-16
2.86,0.1593410769217493,77.50000000000001,0,90,3.0,2,2.9300731371550523e-16
2.865,0.3291989194808569,77.5,0,90,3.0,2,0.0
2.87,0.5672906802982638,77.5,0,90,3.0,2,0.0
2.875,0.815339152120446,77.5,0,90,3.0,2,0.0
2.88,0.9768711246313155,77.5000028426471,1,90,3.0,2,5.8611280539161714e-08
2.885,0.9726380909165361,77.50000511593532,0,90,3.0,2,1.0548320254379974e-07
2.89,0.7921091683291741,77.50000964036138,0,90,3.0,2,1.9877033781123133e-07
2.895,0.49139090102639077,77.50001953538487,0,90,3.0,2,4.027914405220876e-07
2.9,0.15739335672107918,77.5000432606964,0,90,3.0,2,8.919731216731625e-07
2.905,-0.11102342218909485,77.50010390844962,0,90,3.0,2,2.1424422601453958e-06
2.91,-0.2314207883647528,77.5002632553772,0,90,3.0,2,5.427945921772184e-06
2.915,-0.2029124434754801,77.50068079911502,0,90,3.0,2,1.4037095154986373e-05
2.92,-0.11151350554305876,77.50175059357754,0,90,3.0,2,3.609471293897673e-05
2.925,-0.039430666652076896,77.50439971025311,0,90,3.0,2,9.07156753218724e-05
2.93,-0.006087703519843621,77.51069868561211,0,90,3.0,2,0.00022059145591984562
2.935,0.005350271385530551,77.52502734592285,0,90,3.0,2,0.0005160277509866174
2.94,0.010381647827441833,77.55614203264604,0,90,3.0,2,0.001157567683423432
2.945,0.015115203303506243,77.62055133166675,0,90,3.0,2,0.002485594467355595
2.95,0.021170964062928475,77.74752797986558,0,90,3.0,2,0.0051036696879501135
2.955,0.029082821134029553,77.98572371732214,0,90,3.0,2,0.010014922006642163
2.96,0.03923107061708144,78.41057612864718,0,90,3.0,2,0.018774765539117094
2.965,0.051969043308817596,79.13047625561579,0,90,3.0,2,0.03361806712609876
2.97,0.06760532616283861,80.288229430218,0,90,3.0,2,0.0574892666024329
2.975,0.08636519236693461,82.05327668834015,0,90,3.0,2,0.09388199357402367
2.98,0.10834733138818661,84.60035215810349,0,90,3.0,2,0.14639901356914414
2.985,0.1334809643017884,88.07263753087827,0,90,3.0,2,0.2179925264098612
2.99,0.16148868344343945,92.5323744193579,0,90,3.0,2,0.3099458643166576
2.995,0.191860907532018,97.90846515079481,0,90,3.0,2,0.4207930958926765
3.0,0.22384764873847726,103.95656597893684,0,90,3.0,2,0.545496205751275
3.005,0.25647215537198226,110.2493957755857,0,90,3.0,2,0.6752452737234165
3.01,0.2885689161419028,116.21077142328033,0,90,3.0,2,0.7981602355315532
3.015,0.31884566517832524,121.1957556814175,0,90,3.0,2,0.9009434161117009
3.02,0.3459657668955683,124.60405333132145,0,90,3.0,2,0.9712175944602361
3.025,0.3686441789190902,126.0,0,90,3.0,2,1.0
3.03,0.3857476379544367,125.20631710246992,0,90,3.0,2,0.9836354041746376
3.035,0.3963882865005728,122.34395676344872,0,90,3.0,2,0.9246176652257467
3.04,0.4,117.80585638212884,0,90,3.0,2,0.8310485851985328
3.045,0.39638828650057273,112.17263043562735,0,90,3.0,2,0.7148995966108733
3.05,0.38574763795443656,106.09531796174919,0,90,3.0,2,0.5895941847783338
3.055,0.36864417891908974,100.1779060461979,0,90,3.0,2,0.46758569167418357
3.06,0.345965766895568,94.88840785358333,0,90,3.0,2,0.35852387326975943
3.065,0.3188456651783249,90.51462290691649,0,90,3.0,2,0.2683427403487935
3.07,0.28856891614190205,87.16524039511556,0,90,3.0,2,0.19928330711578476
3.075,0.2564721553719815,84.80460264853114,0,90,3.0,2,0.15061036388724008
3.08,0.22384764873847685,83.30370962862875,0,90,3.0,2,0.11966411605420108
3.085,0.19186090753201765,82.49107847374887,0,90,3.0,2,0.102908834510286
3.09,0.16148868344343878,82.19252499411174,0,90,3.0,2,0.09675309266209764
3.095,0.1334809643017881,82.25561243620318,0,90,3.0,2,0.09805386466398308
3.1,0.10834733138818531,82.55988607569486,0,90,3.0,2,0.10432754795247139
3.105,0.08636519236690572,83.01693364758768,0,90,3.0,2,0.11375120922861191
3.11,0.06760532616242629,83.5649129488636,0,90,3.0,2,0.1250497515229607
3.115,0.05196904332202373,84.16130719449305,0,90,3.0,2,0.13734654009264016
3.12,0.03923107185803287,84.77624455095192,0,90,3.0,2,0.15002566084436939
3.125,0.02908287038705761,85.38741654807927,0,90,3.0,2,0.1626271453212221
3.13,0.02117220077308346,85.97674825310652,0,90,3.0,2,0.17477831449704168
3.135,0.0151361834125735,86.52852713853278,0,90,3.0,2,0.18615519873263464
3.14,0.010626454858290009,87.02856534351251,0,90,3.0,2,0.19646526481469095
3.145,0.007326255555493652,87.46400648746604,0,90,3.0,2,0.20544343273125848
3.15,0.004960179211183015,87.82348441956617,0,90,3.0,2,0.21285534885703444
3.155,0.0032978759379303545,88.09743716513903,0,90,3.0,2,0.21850385907503148
3.16,0.002153242296767213,88.27845237699276,0,90,3.0,2,0.2222361314843868
3.165,0.001380616732225004,88.3615692400097,0,90,3.0,2,0.2239498812373134
3.17,0.0008693106590991584,88.34449234955764,0,90,3.0,2,0.22359778040325032
3.175,0.000537524815942247,88.22769267734277,0,90,3.0,2,0.22118953973902625
3.18,0.0003263951340288585,88.01438449029398,0,90,3.0,2,0.21679143278956656
3.185,0.00019463030985187395,87.71037788946353,0,90,3.0,2,0.21052325545285627
3.19,0.00011397219555062695,87.32381572039769,0,90,3.0,2,0.20255290145149876
3.195,6.55403863487943e-05,86.86481124553991,0,90,3.0,2,0.19308889166061674
3.2,3.701184389455385e-05,86.3450089974046,0,90,3.0,2,0.18237131953411556
3.205,2.0525516217290957e-05,85.7770953728047,0,90,3.0,2,0.17066176026401433
3.21,1.1178128483661116e-05,85.17428757646559,0,90,3.0,2,0.15823273353537295
3.215,5.978135409912517e-06,84.54982942288322,0,90,3.0,2,0.14535730768831384
3.22,3.1396702713238487e-06,83.91652038266207,0,90,3.0,2,0.1322993893332386
3.225,1.6192875458531019e-06,83.2863004053816,0,90,3.0,2,0.11930516299755867
3.23,8.201353897972012e-07,82.66990788930764,0,90,3.0,2,0.10659603895479665
3.235,4.0791415086824765e-07,82.07662220661173,0,90,3.0,2,0.09436334446622126
3.24,1.9923866938774793e-07,81.51409596754554,0,90,3.0,2,0.08276486531021739
3.245,9.556527981051257e-08,80.98827622965146,0,90,3.0,2,0.07192322122992703
3.25,4.501406988770349e-08,80.50340856865901,0,90,3.0,2,0.06192594986925797
3.255,0.0,80.06211366048802,0,90,3.0,2,0.05282708578325822
3.26,0.0,79.66552298724739,0,90,3.0,2,0.04464995849994609
3.265,0.0,79.31345855224248,0,90,3.0,2,0.03739089798438103
3.27,0.0,79.00464102634591,0,90,3.0,2,0.031023526316410473
3.275,0.0,78.73691140612398,0,90,3.0,2,0.025503327961319173
3.28,0.0,78.50745282498198,0,90,3.0,2,0.020772223195504785
3.285,0.0,78.31300136218435,0,90,3.0,2,0.016762914684213436
3.29,0.0,78.15003726913261,0,90,3.0,2,0.013402830291394033
3.295,0.0,78.01495072107623,0,90,3.0,2,0.010617540640747058
3.3,0.0,77.90417878471544,0,90,3.0,2,0.008333583190009092
3.305,0.0,77.81431259660769,0,90,3.0,2,0.006480672095003965
3.31,0.0,77.7421756582178,0,90,3.0,2,0.0049933125405732665
3.315,0.0,77.68487561033564,0,90,3.0,2,0.00381186825434305
3.32,0.0,77.63983284131709,0,90,3.0,2,0.0028831513673626243
3.325,0.0,77.60478983910438,0,90,3.0,2,0.0021606152392656588
3.33,0.0,77.57780537394699,0,90,3.0,2,0.0016042345143708625
3.335,0.0,77.557237472093,0,90,3.0,2,0.0011801540637730494
3.34,0.0,77.541718792023,0,90,3.0,2,0.0008601812788248429
3.345,0.0,77.53012752354391,0,90,3.0,2,0.0006211860524517667
3.35,0.0,77.521556367243,0,90,3.0,2,0.0004444611802679114
3.355,0.0,77.51528157589647,0,90,3.0,2,0.00031508403910239985
3.36,0.0,77.51073349457783,0,90,3.0,2,0.00022130916655329464
3.365,0.0,77.50746955224747,0,90,3.0,2,0.0001540113865457991
3.37,0.0,77.50515025137989,0,90,3.0,2,0.0001061907501007836
3.375,0.0,77.50351837976685,0,90,3.0,2,7.254391271845802e-05
3.38,0.0,77.50238142786796,0,90,3.0,2,4.91016055249376e-05
3.385,0.0,77.50159702817518,0,90,3.0,2,3.292841598316223e-05
3.39,0.0,77.50106112892836,0,90,3.0,2,2.1878946976411752e-05
3.395,0.0,77.50069856071771,0,90,3.0,2,1.4403313767187092e-05
3.4,0.0,77.50045563869121,0,90,3.0,2,9.39461218983768e-06
3.405,0.0,77.50029445400165,0,90,3.0,2,6.071216528807875e-06
3.41,0.0,77.5001885362026,0,90,3.0,2,3.8873443835087794e-06
3.415,0.0,77.50011960586598,0,90,3.0,2,2.4661003293982205e-06
3.42,0.0,77.50007517797681,0,90,3.0,2,1.5500613775441604e-06
3.425,0.0,77.5000468176076,0,90,3.0,2,9.653114968443202e-07
3.43,0.0,77.50002888738506,0,90,3.0,2,5.956161867312196e-07
3.435,0.0,77.50001765987696,0,90,3.0,2,3.641211744308617e-07
3.44,0.0,77.50001069664408,0,90,3.0,2,2.2054936252549018e-07
3.445,0.0,77.5000064193026,0,90,3.0,2,1.323567545048568e-07
3.45,0.0,77.50000381688064,0,90,3.0,2,7.869856980524326e-08
3.455,0.0,77.50000224858724,0,90,3.0,2,4.636262343110596e-08
3.46,0.0,77.50000131247589,0,90,3.0,2,2.706135851487076e-08
3.465,0.001684486749771458,77.50000075902022,0,90,3.0,2,1.5649901535052964e-08
3.47,0.004172395771277602,77.5000004349064,0,90,3.0,2,8.967142208610913e-09
3.475,0.009438687428818865,77.50000024689864,0,90,3.0,2,5.090693539105561e-09
3.48,0.019500507867137046,77.50000013887433,0,90,3.0,2,2.863388188641168e-09
3.485,0.03679496976339974,77.50000007739372,0,90,3.0,2,1.5957468382186994e-09
3.49,0.06340728953298436,77.50000004273365,0,90,3.0,2,8.81106102168974e-10
3.495,0.09979255396093453,77.50000002337839,0,90,3.0,2,4.820286758518874e-10
3.5,0.14343835518453557,77.50000001267183,0,90,3.0,2,2.612749146474297e-10
3.505,0.18829581417209276,77.50000000680527,0,90,3.0,2,1.4031475637745372e-10
3.51,0.2257481735193119,77.50000000362103,0,90,3.0,2,7.466031458590674e-11
3.515,0.24718154073554727,77.50000000190896,0,90,3.0,2,3.935996545871753e-11
3.52,0.24718154074102772,77.5000000009971,0,90,3.0,2,2.0558858166848425e-11
3.525,0.22574817354072055,77.50000000051602,0,90,3.0,2,1.0639681575637426e-11
3.53,0.18829581422840957,77.50000000026459,0,90,3.0,2,5.455503174068992e-12
3.535,0.14343835532456656,77.50000000013442,0,90,3.0,2,2.771556180434964e-12
3.54,0.09979255431561854,77.50000000006766,0,90,3.0,2,1.3950078205995204e-12
3.545,0.06340729067170194,77.50000000003374,0,90,3.0,2,6.955993627606094e-13
3.55,0.03679497683410042,77.50000000001667,0,90,3.0,2,3.4369757898828763e-13
3.555,0.019500578284482293,77.50000000000816,0,90,3.0,2,1.681861980727e-13
3.56,0.009439396781978427,77.50000000000396,0,90,3.0,2,8.174904052662596e-14
3.565,0.004178588733610924,77.5000000000019,0,90,3.0,2,3.92629800378777e-14
3.57,0.0017299316936037381,77.50000000000091,0,90,3.0,2,1.8752468077792334e-14
3.575,0.0008997325756988589,77.50000000000043,0,90,3.0,2,8.790219411465157e-15
3.58,0.001634769674224814,77.5000000000002,0,90,3.0,2,4.102102392017073e-15
3.585,0.00614904736476635,77.50000000000009,0,90,3.0,2,1.7580438822930315e-15
3.59,0.02168080359963608,77.50000000000004,0,90,3.0,2,8.790219411465157e-16
3.595,0.06433400338904088,77.50000000000001,0,90,3.0,2,2.9300731371550523e-16
3.6,0.1593410769217493,77.50000000000001,0,90,3.0,2,2.9300731371550523e-16
3.605,0.3291989194808569,77.5,0,90,3.0,2,0.0
3.61,0.5672906802982638,77.5,0,90,3.0,2,0.0
3.615,0.815339152120446,77.5,0,90,3.0,3,0.0
3.62,0.9768711246313155,77.50000285066528,1,90,3.0,3,5.8776603762772095e-08
3.625,0.9726380909165361,77.50000533774794,0,90,3.0,3,1.1005665847620811e-07
3.63,0.7921091683291741,77.50001055134113,0,90,3.0,3,2.1755342544631426e-07
3.635,0.49139090102639077,77.50002272509559,0,90,3.0,3,4.685586719629616e-07
3.64,0.15739335672107918,77.50005414678377,0,90,3.0,3,1.1164285312949602e-06
3.645,-0.11102342218909485,77.500140505292,0,90,3.0,3,2.8970163297926024e-06
3.65,-0.2314207883647528,77.50038258369432,0,90,3.0,3,7.888323594182947e-06
3.655,-0.2029124434754801,77.5010527695429,0,90,3.0,3,2.1706588513294712e-05
3.66,-0.11151350554305876,77.50284972513398,0,90,3.0,3,5.875721925740811e-05
3.665,-0.039430666652076896,77.50746597756105,0,90,3.0,3,0.00015393768167121978
3.67,-0.006087703519843621,77.51876169890194,0,90,3.0,3,0.0003868391526173268
3.675,0.005350271385530551,77.54500396355465,0,90,3.0,3,0.000927916774322657
3.68,0.010381647827441833,77.60277510805538,0,90,3.0,3,0.0021190743928944885
3.685,0.015115203303506243,77.72313394409493,0,90,3.0,3,0.004600699878245889
3.69,0.021170964062928475,77.96019364845812,0,90,3.0,3,0.009488528834187958
3.695,0.029082821134029553,78.40119339193035,0,90,3.0,3,0.018581307050110282
3.7,0.03923107061708144,79.17526941030879,0,90,3.0,3,0.034541637325954354
3.705,0.051969043308817596,80.45579048450003,0,90,3.0,3,0.06094413370103151
3.71,0.06760532616283861,82.44931195947832,0,90,3.0,3,0.10204766926759427
3.715,0.08636519236693461,85.36455622127653,0,90,3.0,3,0.16215579837683566
3.72,0.10834733138818661,89.35900055276574,0,90,3.0,3,0.24451547531475742
3.725,0.1334809643017884,94.46913761169944,0,90,3.0,3,0.3498791260144214
3.73,0.16148868344343945,100.54136540845477,0,90,3.0,3,0.47507969914339726
3.735,0.191860907532018,107.18914743882308,0,90,3.0,3,0.612147369872641
3.74,0.22384764873847726,113.8027021799891,0,90,3.0,3,0.7485093232987443
3.745,0.25647215537198226,119.62609966806052,0,90,3.0,3,0.868579374599186
3.75,0.2885689161419028,123.89459021136328,0,90,3.0,3,0.9565894888940882
3.755,0.31884566517832524,126.0,0,90,3.0,3,1.0
3.76,0.3459657668955683,125.63555232071732,0,90,3.0,3,0.992485614860151
3.765,0.3686441789190902,122.8728829839707,0,90,3.0,3,0.9355233604942412
3.77,0.3857476379544367,118.14488894980822,0,90,3.0,3,0.8380389474187262
3.775,0.3963882865005728,112.14032116465883,0,90,3.0,3,0.7142334260754398
3.78,0.4,105.64571806451514,0,90,3.0,3,0.5803240838044358
3.785,0.39638828650057273,99.38474665898676,0,90,3.0,3,0.4512318898760156
3.79,0.38574763795443656,93.89946334087666,0,90,3.0,3,0.3381332647603436
3.795,0.36864417891908974,89.49722210145336,0,90,3.0,3,0.24736540415367753
3.8,0.345965766895568,86.26179009897115,0,90,3.0,3,0.18065546595816798
3.805,0.3188456651783249,84.10837075711324,0,90,3.0,3,0.1362550671569739
3.81,0.28856891614190205,82.85525798893129,0,90,3.0,3,0.11041769049342856
3.815,0.2564721553719815,82.28893368935184,0,90,3.0,3,0.09874090081137807
3.82,0.22384764873847685,82.20954302821511,0,90,3.0,3,0.09710397996319811
3.825,0.19186090753201765,82.45412614899202,0,90,3.0,3,0.1021469309070519
3.83,0.16148868344343878,82.9020248457851,0,90,3.0,3,0.11138195558319808
3.835,0.1334809643017881,83.46956389310165,0,90,3.0,3,0.1230837916103433
3.84,0.10834733138818531,84.1004855952502,0,90,3.0,3,0.13609248650000424
3.845,0.08636519236690572,84.75645137662403,0,90,3.0,3,0.14961755415719646
3.85,0.06760532616242629,85.40966434514888,0,90,3.0,3,0.16308586278657491
3.855,0.05196904332202373,86.0380544133898,0,90,3.0,3,0.17604235903896498
3.86,0.03923107185803287,86.62263152761466,0,90,3.0,3,0.18809549541473522
3.865,0.02908287038705761,87.14635512742458,0,90,3.0,3,0.1988939201530842
3.87,0.02117220077308346,87.59392038235315,0,90,3.0,3,0.20812206973924013
3.875,0.0151361834125735,87.95201971947535,0,90,3.0,3,0.21550556122629577
3.88,0.010626454858290009,88.20979239540345,0,90,3.0,3,0.22082046176089595
3.885,0.007326255555493652,88.35928803931012,0,90,3.0,3,0.2239028461713426
3.89,0.004960179211183015,88.3958424677883,0,90,3.0,3,0.22465654572759378
3.895,0.0032978759379303545,88.31830826653777,0,90,3.0,3,0.22305790240284062
3.9,0.002153242296767213,88.12911092076266,0,90,3.0,3,0.21915692620129187
3.905,0.001380616732225004,87.83412164429782,0,90,3.0,3,0.21307467307830563
3.91,0.0008693106590991584,87.44235443924178,0,90,3.0,3,0.20499699874725325
3.915,0.000537524815942247,86.96550861191454,0,90,3.0,3,0.19516512601885658
3.92,0.0003263951340288585,86.41738895346812,0,90,3.0,3,0.18386368976222928
3.925,0.00019463030985187395,85.81324358973214,0,90,3.0,3,0.171407084324374
3.93,0.00011397219555062695,85.16906367666229,0,90,3.0,3,0.15812502426107813
3.935,6.55403863487943e-05,84.5008894969962,0,90,3.0,3,0.14434823705146793
3.94,3.701184389455385e-05,83.82416428298873,0,90,3.0,3,0.1303951398554378
3.945,2.0525516217290957e-05,83.15317077049401,0,90,3.0,3,0.11656022207204154
3.95,1.1178128483661116e-05,82.50057687127921,0,90,3.0,3,0.10310467775833418
3.955,5.978135409912517e-06,81.8771068894783,0,90,3.0,3,0.09024962658718141
3.96,3.1396702713238487e-06,81.29134441020258,0,90,3.0,3,0.07817204969489863
3.965,1.6192875458531019e-06,80.74966329577829,0,90,3.0,3,0.06700336692326372
3.97,8.201353897972012e-07,80.25627492189922,0,90,3.0,3,0.05683041076080865
3.975,4.0791415086824765e-07,79.81337343151264,0,90,3.0,3,0.04769842126830195
3.98,1.9923866938774793e-07,79.42135668043277,0,90,3.0,3,0.03961560165840754
3.985,9.556527981051257e-08,79.07909874103451,0,90,3.0,3,0.032558736928546675
3.99,4.501406988770349e-08,78.78425013843707,0,90,3.0,3,0.026479384297671618
3.995,0.0,78.5335440627456,0,90,3.0,3,0.021310186860734128
4.0,0.0,78.32309016640502,0,90,3.0,3,0.016970931266082963
4.005,0.0,78.14864170879353,0,90,3.0,3,0.013374055851413066
4.01,0.0,78.00582625821215,0,90,3.0,3,0.010429407385817584
4.015,0.0,77.89033447553675,0,90,3.0,3,0.008048133516221589
4.02,0.0,77.79806535061086,0,90,3.0,3,0.006145677332182583
4.025,0.0,77.72522941908457,0,90,3.0,3,0.0046439055481354696
4.03,0.0,77.66841384122971,0,90,3.0,3,0.0034724503346331417
4.035,0.0,77.62461476063879,0,90,3.0,3,0.0025693765080163334
4.04,0.0,77.59124314265756,0,90,3.0,3,0.001881301910465172
4.045,0.0,77.5661104364004,0,90,3.0,3,0.0013631017814514075
4.05,0.0,77.54740005593854,0,90,3.0,3,0.0009773207410008
4.055,0.0,77.53362998903987,0,90,3.0,3,0.0006934018358735332
4.06,0.0,77.52361095963337,0,90,3.0,3,0.00048682390996646063
4.065,0.0,77.51640361595736,0,90,3.0,3,0.00033821888571872985
4.07,0.0,77.51127728584574,0,90,3.0,3,0.00023252135764404482
4.075,0.0,77.50767200055635,0,90,3.0,3,0.0001581855784815344
4.08,0.0,77.50516477853803,0,90,3.0,3,0.00010649027913466187
4.085,0.0,77.503440597138,0,90,3.0,3,7.094014717516253e-05
4.09,0.0,77.5022680623265,0,90,3.0,3,4.676417168027292e-05
4.095,0.0,77.50147950074185,0,90,3.0,3,3.0505169935078867e-05
4.1,0.0,77.50095502431975,0,90,3.0,3,1.9691223087647813e-05
4.105,0.0,77.50061003213925,0,90,3.0,3,1.2577982252566668e-05
4.11,0.0,77.50038559380044,0,90,3.0,3,7.95038763803906e-06
4.115,0.0,77.50024118284321,0,90,3.0,3,4.9728421280745995e-06
4.12,0.0,77.50014928006648,0,90,3.0,3,3.0779395150644987e-06
4.125,0.0,77.50009143158961,0,90,3.0,3,1.8851874146323622e-06
4.13,0.0,77.50005541530939,0,90,3.0,3,1.1425836987655202e-06
4.135,0.0,77.50003323550604,0,90,3.0,3,6.852681657310126e-07
4.14,0.0,77.50001972485731,0,90,3.0,3,4.06698088869403e-07
4.145,0.0,77.50001158415837,0,90,3.0,3,2.3884862622891006e-07
4.15,0.0,77.50000673215557,0,90,3.0,3,1.388073313198229e-07
4.155,0.0,77.5000038715319,0,90,3.0,3,7.982540004489884e-08
4.16,0.001684486749771458,77.50000220318306,0,90,3.0,3,4.542645480852894e-08
4.165,0.004172395771277602,77.5000012406731,0,90,3.0,3,2.5580888665065207e-08
4.17,0.009438687428818865,77.50000069135831,0,90,3.0,3,1.4254810500376349e-08
4.175,0.019500507867137046,77.50000038123086,0,90,3.0,3,7.860430144122352e-09
4.18,0.03679496976339974,77.50000020802328,0,90,3.0,3,4.289139801632287e-09
4.185,0.06340728953298436,77.5000001123246,0,90,3.0,3,2.315971121638587e-09
4.19,0.09979255396093453,77.50000006001736,0,90,3.0,3,1.237471266351124e-09
4.195,0.14343835518453557,77.50000003173349,0,90,3.0,3,6.542988098631541e-10
4.2,0.18829581417209276,77.50000001660344,0,90,3.0,3,3.4233890407458886e-10
4.205,0.2257481735193119,77.50000000859642,0,90,3.0,3,1.772456912054697e-10
4.21,0.24718154073554727,77.50000000440428,0,90,3.0,3,9.080999869596425e-11
4.215,0.24718154074102772,77.50000000223291,0,90,3.0,3,4.603936018217619e-11
4.22,0.22574817354072055,77.50000000112023,0,90,3.0,3,2.3097473532879562e-11
4.225,0.18829581422840957,77.50000000055614,0,90,3.0,3,1.1466841222256297e-11
4.23,0.14343835532456656,77.5000000002732,0,90,3.0,3,5.633065606180588e-12
4.235,0.09979255431561854,77.50000000013281,0,90,3.0,3,2.738446353985112e-12
4.24,0.06340729067170194,77.50000000006389,0,90,3.0,3,1.3173608824649115e-12
4.245,0.03679497683410042,77.50000000003041,0,90,3.0,3,6.270356513511812e-13
4.25,0.019500578284482293,77.50000000001432,0,90,3.0,3,2.953513722252293e-13
4.255,0.009439396781978427,77.50000000000668,0,90,3.0,3,1.3771343744628745e-13
4.26,0.004178588733610924,77.50000000000308,0,90,3.0,3,6.358258707626464e-14
4.265,0.0017299316936037381,77.5000000000014,0,90,3.0,3,2.9007724057835016e-14
4.27,0.0008997325756988589,77.50000000000064,0,90,3.0,3,1.3185329117197736e-14
4.275,0.001634769674224814,77.50000000000028,0,90,3.0,3,5.860146274310104e-15
4.28,0.00614904736476635,77.50000000000013,0,90,3.0,3,2.637065823439547e-15
4.285,0.02168080359963608,77.50000000000006,0,90,3.0,3,1.172029254862021e-15
4.29,0.06433400338904088,77.50000000000003,0,90,3.0,3,5.860146274310105e-16
4.295,0.1593410769217493,77.50000000000001,0,90,3.0,3,2.9300731371550523e-16
4.3,0.3291989194808569,77.5,0,90,3.0,3,0.0
4.305,0.5672906802982638,77.5,0,90,3.0,3,0.0
4.31,0.815339152120446,77.5,0,90,3.0,3,0.0
4.315,0.9768711246313155,77.50000284586159,1,90,3.0,3,5.8677558500516847e-08
4.32,0.9726380909165361,77.50000570245213,0,90,3.0,3,1.1757633254176457e-07
4.325,0.7921091683291741,77.50001225806744,0,90,3.0,3,2.527436586159141e-07
4.33,0.49139090102639077,77.50002942758579,0,90,3.0,3,6.067543461202937e-07
4.335,0.15739335672107918,77.50007969525397,0,90,3.0,3,1.6432011128453615e-06
4.34,-0.11102342218909485,77.50023533387187,0,90,3.0,3,4.8522447808367e-06
4.345,-0.2314207883647528,77.50071883774795,0,90,3.0,3,1.4821396865024148e-05
4.35,-0.2029124434754801,77.50217579271153,0,90,3.0,3,4.4861705392288955e-05
4.355,-0.11151350554305876,77.50635725002037,0,90,3.0,3,0.00013107732000766818
4.36,-0.039430666652076896,77.51768141331813,0,90,3.0,3,0.0003645652230542177
4.365,-0.006087703519843621,77.54648137072928,0,90,3.0,3,0.0009583787779233389
4.37,0.005350271385530551,77.61508024410816,0,90,3.0,3,0.002372788538312508
4.375,0.010381647827441833,77.76784731218491,0,90,3.0,3,0.005522624993503347
4.38,0.015115203303506243,78.08549326951349,0,90,3.0,3,0.012072026175535917
4.385,0.021170964062928475,78.70138007120593,0,90,3.0,3,0.024770723117648087
4.39,0.029082821134029553,79.81333731768606,0,90,3.0,3,0.047697676653320885
4.395,0.03923107061708144,81.67953161509834,0,90,3.0,3,0.08617590958965651
4.4,0.051969043308817596,84.58445788628454,0,90,3.0,3,0.1460712966244235
4.405,0.06760532616283861,88.76559186610127,0,90,3.0,3,0.23228024466188196
4.41,0.08636519236693461,94.30580224572596,0,90,3.0,3,0.34651138650981356
4.415,0.10834733138818661,101.01908127568012,0,90,3.0,3,0.4849295108387654
4.42,0.1334809643017884,108.37758909741606,0,90,3.0,3,0.6366513215962075
4.425,0.16148868344343945,115.53155299925712,0,90,3.0,3,0.7841557319434457
4.43,0.191860907532018,121.44932005335616,0,90,3.0,3,0.9061715474918796
4.435,0.22384764873847726,125.15631195469562,0,90,3.0,3,0.9826043701999098
4.44,0.25647215537198226,126.0,0,90,3.0,3,1.0
4.445,0.2885689161419028,123.8427949295679,0,90,3.0,3,0.9555215449395443
4.45,0.31884566517832524,119.10508764276156,0,90,3.0,3,0.8578368586136405
4.455,0.3459657668955683,112.64051130847515,0,90,3.0,3,0.7245466249170135
4.46,0.3686441789190902,105.4947173494078,0,90,3.0,3,0.5772106669980989
4.465,0.3857476379544367,98.64157127935391,0,90,3.0,3,0.4359086861722456
4.47,0.3963882865005728,92.7872202864701,0,90,3.0,3,0.3152004182777341
4.475,0.4,88.29055850091387,0,90,3.0,3,0.222485742286884
4.48,0.39638828650057273,85.19499150634792,0,90,3.0,3,0.15865961868758593
4.485,0.38574763795443656,83.32841126591062,0,90,3.0,3,0.1201734281631055
4.49,0.36864417891908974,82.41862451624381,0,90,3.0,3,0.10141493847925381
4.495,0.345965766895568,82.1853521137011,0,90,3.0,3,0.09660519822064124
4.5,0.3188456651783249,82.39306572658664,0,90,3.0,3,0.10088795312549777
4.505,0.28856891614190205,82.86818610804693,0,90,3.0,3,0.11068424965045211
4.51,0.2564721553719815,83.49352503596295,0,90,3.0,3,0.12357783579305044
4.515,0.22384764873847685,84.19327652565775,0,90,3.0,3,0.13800570155995362
4.52,0.19186090753201765,84.91762339581283,0,90,3.0,3,0.1529406885734603
4.525,0.16148868344343878,85.63113017574868,0,90,3.0,3,0.16765216857213774
4.53,0.1334809643017881,86.30565243766684,0,90,3.0,3,0.18155984407560488
4.535,0.10834733138818531,86.91685513029627,0,90,3.0,3,0.19416196144940762
4.54,0.08636519236690572,87.44305757969148,0,90,3.0,3,0.2050114964884842
4.545,0.06760532616242629,87.86533772288807,0,90,3.0,3,0.2137183035647025
4.55,0.05196904332202373,88.16817973634383,0,90,3.0,3,0.21996246879059445
4.555,0.03923107185803287,88.3402384667518,0,90,3.0,3,0.22351007147941854
4.56,0.02908287038705761,88.37498162664085,0,90,3.0,3,0.22422642529156384
4.565,0.02117220077308346,88.27108106749418,0,90,3.0,3,0.22208414572152949
4.57,0.0151361834125735,88.03249098378444,0,90,3.0,3,0.21716476255225653
4.575,0.010626454858290009,87.66819648788929,0,90,3.0,3,0.20965353583276886
4.58,0.007326255555493652,87.19165162443677,0,90,3.0,3,0.1998278685450881
4.585,0.004960179211183015,86.61995488836745,0,90,3.0,3,0.18804030697664836
4.59,0.0032978759379303545,85.97283240911523,0,90,3.0,3,0.1746975754456748
4.595,0.002153242296767213,85.27151291372265,0,90,3.0,3,0.16023737966438445
4.6,0.001380616732225004,84.53758349445417,0,90,3.0,3,0.14510481431864264
4.605,0.0008693106590991584,83.79191110989592,0,90,3.0,3,0.1297301259772355
4.61,0.000537524815942247,83.05370269529314,0,90,3.0,3,0.11450933392356989
4.615,0.0003263951340288585,82.33975866855332,0,90,3.0,3,0.09978883852687248
4.62,0.00019463030985187395,81.66395297564524,0,90,3.0,3,0.08585470052876794
4.625,0.00011397219555062695,81.03695029627794,0,90,3.0,3,0.07292681023253478
4.63,6.55403863487943e-05,80.46615012462807,0,90,3.0,3,0.06115773452841386
4.635,3.701184389455385e-05,79.95583016691808,0,90,3.0,3,0.05063567354470261
4.64,2.0525516217290957e-05,79.50744919237871,0,90,3.0,3,0.04139070499749928
4.645,1.1178128483661116e-05,79.12006270877623,0,90,3.0,3,0.03340335482012848
4.65,5.978135409912517e-06,78.7908034547283,0,90,3.0,3,0.02661450422120217
4.655,3.1396702713238487e-06,78.51538196065025,0,90,3.0,3,0.020935710528871037
4.66,1.6192875458531019e-06,78.28856917829346,0,90,3.0,3,0.016259158315329016
4.665,8.201353897972012e-07,78.1046320774523,0,90,3.0,3,0.012466640772212247
4.67,4.0791415086824765e-07,77.95770283268605,0,90,3.0,3,0.009437171807959853
4.675,1.9923866938774793e-07,77.8420716221398,0,90,3.0,3,0.007053023136903054
4.68,9.556527981051257e-08,77.75240126350023,0,90,3.0,3,0.005204149762891385
4.685,4.501406988770349e-08,77.68386837283725,0,90,3.0,3,0.0037911004708711957
4.69,0.0,77.63224022257143,0,90,3.0,3,0.0027266025272458896
4.695,0.0,77.593899037566,0,90,3.0,3,0.0019360626302268875
4.7,0.0,77.56582634489853,0,90,3.0,3,0.0013572442247118605
4.705,0.0,77.54555954431204,0,90,3.0,3,0.0009393720476709601
4.71,0.0,77.53113149901236,0,90,3.0,3,0.0006418865775744446
4.715,0.0,77.5210020517766,0,90,3.0,3,0.00043303199539392604
4.72,0.0,77.51398828420264,0,90,3.0,3,0.0002884182309822584
4.725,0.0,77.50919831335803,0,90,3.0,3,0.00018965594552633241
4.73,0.0,77.50597163128171,0,90,3.0,3,0.0001231264181795915
4.735,0.0,77.50382753172264,0,90,3.0,3,7.891817984814552e-05
4.74,0.0,77.50242206416318,0,90,3.0,3,4.9939467282149394e-05
4.745,0.0,77.50151319019876,0,90,3.0,3,3.119979791266787e-05
4.75,0.0,77.5009333454743,0,90,3.0,3,1.9244236583388782e-05
4.755,0.0,77.50056837159171,0,90,3.0,3,1.171900189095928e-05
4.76,0.0,77.50034171443933,0,90,3.0,3,7.045658542878787e-06
4.765,0.0,77.50020283146561,0,90,3.0,3,4.182092074523604e-06
4.77,0.0,77.50011886345717,0,90,3.0,3,2.450792931437352e-06
4.775,0.0,77.50006877053725,0,90,3.0,3,1.4179492217356982e-06
4.78,0.0,77.50003928235421,0,90,3.0,3,8.099454475996026e-07
4.785,0.0,77.50002215305511,0,90,3.0,3,4.567640229483398e-07
4.79,0.001684486749771458,77.50001233419412,0,90,3.0,3,2.5431328092204194e-07
4.795,0.004172395771277602,77.50000677998857,0,90,3.0,3,1.39793578701409e-07
4.8,0.009438687428818865,77.50000367949464,0,90,3.0,3,7.586586885858215e-08
4.805,0.019500507867137046,77.50000197146203,0,90,3.0,3,4.064870157768363e-08
4.81,0.03679496976339974,77.50000104286885,0,90,3.0,3,2.150245042272574e-08
4.815,0.06340728953298436,77.50000054464309,0,90,3.0,3,1.1229754354363397e-08
4.82,0.09979255396093453,77.50000028082472,0,90,3.0,4,5.7902004474018806e-09
4.825,0.14343835518453557,77.50000014295512,0,90,3.0,4,2.9475281688477126e-09
4.83,0.18829581417209276,77.50000007184642,0,90,3.0,4,1.481369382258656e-09
4.835,0.2257481735193119,77.50000003564934,0,90,3.0,4,7.350378541794027e-10
4.84,0.24718154073554727,77.5000000174638,0,90,3.0,4,3.6007844586886665e-10
4.845,0.24718154074102772,77.50000000844632,0,90,3.0,4,1.7415094795800654e-10
4.85,0.22574817354072055,77.50000000403308,0,90,3.0,4,8.315635465440153e-11
4.855,0.18829581422840957,77.50000000190128,0,90,3.0,4,3.920174150931116e-11
4.86,0.14343835532456656,77.50000000088491,0,90,3.0,4,1.824556542506451e-11
4.865,0.09979255431561854,77.50000000040662,0,90,3.0,4,8.383818267341751e-12
4.87,0.06340729067170194,77.50000000018447,0,90,3.0,4,3.803527939340973e-12
4.875,0.03679497683410042,77.50000000008262,0,90,3.0,4,1.7035445219419474e-12
4.88,0.019500578284482293,77.50000000003654,0,90,3.0,4,7.53321803562564e-13
4.885,0.009439396781978427,77.50000000001594,0,90,3.0,4,3.2875420598879686e-13
4.89,0.004178588733610924,77.50000000000688,0,90,3.0,4,1.4181553983830453e-13
4.895,0.0017299316936037381,77.50000000000293,0,90,3.0,4,6.035950662539408e-14
4.9,0.0008997325756988589,77.50000000000122,0,90,3.0,4,2.519862897953345e-14
4.905,0.001634769674224814,77.50000000000051,0,90,3.0,4,1.0548263293758189e-14
4.91,0.00614904736476635,77.50000000000021,0,90,3.0,4,4.395109705732579e-15
4.915,0.02168080359963608,77.50000000000009,0,90,3.0,4,1.7580438822930315e-15
4.92,0.06433400338904088,77.50000000000003,0,90,3.0,4,5.860146274310105e-16
4.925,0.1593410769217493,77.50000000000001,0,90,3.0,4,2.9300731371550523e-16
4.93,0.3291989194808569,77.5,0,90,3.0,4,0.0
4.935,0.5672906802982638,77.5,0,90,3.0,4,0.0
4.94,0.815339152120446,77.5,0,90,3.0,4,0.0
4.945,0.9768711246313155,77.50000284150002,1,90,3.0,4,5.858762928180591e-08
4.95,0.9726380909165361,77.5000055087254,0,90,3.0,4,1.1358196688794948e-07
4.955,0.7921091683291741,77.50001136395807,0,90,3.0,4,2.3430841373428661e-07
4.96,0.49139090102639077,77.50002585890292,0,90,3.0,4,5.331732559967612e-07
4.965,0.15739335672107918,77.50006577270929,0,90,3.0,4,1.356138335905626e-06
4.97,-0.11102342218909485,77.50018247875063,0,90,3.0,4,3.76244846661487e-06
4.975,-0.2314207883647528,77.50052776496497,0,90,3.0,4,1.0881751855078582e-05
4.98,-0.2029124434754801,77.50152756139154,0,90,3.0,4,3.1496111165786474e-05
4.985,-0.11151350554305876,77.50430755613382,0,90,3.0,4,8.88155903881271e-05
4.99,-0.039430666652076896,77.5116563600092,0,90,3.0,4,0.00024033731977727622
4.995,-0.006087703519843621,77.53002739545968,0,90,3.0,4,0.0006191215558697577
5.0,0.005350271385530551,77.57333096905042,0,90,3.0,4,0.0015119787433075698
5.005,0.010381647827441833,77.66940490223725,0,90,3.0,4,0.0034928845822112743
5.01,0.015115203303506243,77.86976747664984,0,90,3.0,4,0.007624071683501874
5.015,0.021170964062928475,78.26211431813414,0,90,3.0,4,0.01571369728111625
5.02,0.029082821134029553,78.98267513398078,0,90,3.0,4,0.03057062131919128
5.025,0.03923107061708144,80.22218766058688,0,90,3.0,4,0.05612758063065738
5.03,0.051969043308817596,82.21612057642412,0,90,3.0,4,0.09723959951389932
5.035,0.06760532616283861,85.20932922752098,0,90,3.0,4,0.15895524180455634
5.04,0.08636519236693461,89.39039798617173,0,90,3.0,4,0.24516284507570588
5.045,0.10834733138818661,94.8028006534978,0,90,3.0,4,0.35675877636077935
5.05,0.1334809643017884,101.25612781731577,0,90,3.0,4,0.48981706839826333
5.055,0.16148868344343945,108.27370857382006,0,90,3.0,4,0.6345094551303105
5.06,0.191860907532018,115.11341104223824,0,90,3.0,4,0.775534248293572
5.065,0.22384764873847726,120.88000833622657,0,90,3.0,4,0.8944331615716817
5.07,0.25647215537198226,124.71329532894552,0,90,3.0,4,0.9734700067823818
5.075,0.2885689161419028,126.0,0,90,3.0,4,1.0
5.08,0.31884566517832524,124.53834900968857,0,90,3.0,4,0.9698628661791459
5.085,0.3459657668955683,120.59493192202842,0,90,3.0,4,0.8885552973614108
5.09,0.3686441789190902,114.83222413300682,0,90,3.0,4,0.7697365800619963
5.095,0.3857476379544367,108.13422420586735,0,90,3.0,4,0.6316334887807702
5.1,0.3963882865005728,101.3936098555063,0,90,3.0,4,0.492651749598068
5.105,0.4,95.33064507931,0,90,3.0,4,0.3676421665837114
5.11,0.39638828650057273,90.39185276201252,0,90,3.0,4,0.2658113971548973
5.115,0.38574763795443656,86.73955542986523,0,90,3.0,4,0.19050629752299453
5.12,0.36864417891908974,84.31059562557269,0,90,3.0,4,0.14042465207366367
5.125,0.345965766895568,82.9065602268215,0,90,3.0,4,0.11147546859425768
5.13,0.3188456651783249,82.28033336831763,0,90,3.0,4,0.09856357460448717
5.135,0.28856891614190205,82.19778113694667,0,90,3.0,4,0.09686146674116852
5.14,0.2564721553719815,82.46927305071628,0,90,3.0,4,0.1024592381590986
5.145,0.22384764873847685,82.95682150774277,0,90,3.0,4,0.11251178366479946
5.15,0.19186090753201765,83.56687754099825,0,90,3.0,4,0.12509025857728348
5.155,0.16148868344343878,84.23787322707521,0,90,3.0,4,0.1389252211768085
5.16,0.1334809643017881,84.92832444149448,0,90,3.0,4,0.15316132869060786
5.165,0.10834733138818531,85.60801881012263,0,90,3.0,4,0.16717564556953876
5.17,0.08636519236690572,86.25260772478875,0,90,3.0,4,0.18046613865543806
5.175,0.06760532616242629,86.84089403560439,0,90,3.0,4,0.19259575331143078
5.18,0.05196904332202373,87.35388295636871,0,90,3.0,4,0.20317284446121045
5.185,0.03923107185803287,87.77481720348132,0,90,3.0,4,0.21185190110270763
5.19,0.02908287038705761,88.08966243795557,0,90,3.0,4,0.21834355542176428
5.195,0.02117220077308346,88.28771551986046,0,90,3.0,4,0.22242712412083412
5.2,0.0151361834125735,88.36214631799686,0,90,3.0,4,0.22396177975251258
5.205,0.010626454858290009,88.31036736727964,0,90,3.0,4,0.22289417252122967
5.21,0.007326255555493652,88.13417633763018,0,90,3.0,4,0.21926136778618927
5.215,0.004960179211183015,87.83965035915766,0,90,3.0,4,0.213188667199127
5.22,0.0032978759379303545,87.43679744267308,0,90,3.0,4,0.20488242149841407
5.225,0.002153242296767213,86.9389917989111,0,90,3.0,4,0.1946183876064145
5.23,0.001380616732225004,86.36223716698538,0,90,3.0,4,0.18272653952547177
5.235,0.0008693106590991584,85.72431461211428,0,90,3.0,4,0.16957349715699555
5.24,0.000537524815942247,85.04387789533241,0,90,3.0,4,0.15554387413056525
5.245,0.0003263951340288585,84.33956014461978,0,90,3.0,4,0.14102185865195427
5.25,0.00019463030985187395,83.62915046826862,0,90,3.0,4,0.1263742364591468
5.255,0.00011397219555062695,82.92888923969679,0,90,3.0,4,0.11193586061230489
5.26,6.55403863487943e-05,82.25291740154772,0,90,3.0,4,0.09799829693912823
5.265,3.701184389455385e-05,81.61289990625842,0,90,3.0,4,0.08480205992285401
5.27,2.0525516217290957e-05,81.01782800176962,0,90,3.0,4,0.07253253611896114
5.275,1.1178128483661116e-05,80.47399100328275,0,90,3.0,4,0.0613194021295412
5.28,5.978135409912517e-06,79.9850966673004,0,90,3.0,4,0.05123910654227622
5.285,3.1396702713238487e-06,79.55251108450634,0,90,3.0,4,0.04231981617538835
5.29,1.6192875458531019e-06,79.17558445710158,0,90,3.0,4,0.034548133136115024
5.295,8.201353897972012e-07,78.85202811529082,0,90,3.0,4,0.027876868356511774
5.3,4.0791415086824765e-07,78.57831019218708,0,90,3.0,4,0.022233199838908767
5.305,1.9923866938774793e-07,78.35004180586505,0,90,3.0,4,0.01752663517247519
5.31,9.556527981051257e-08,78.16233155760507,0,90,3.0,4,0.013656320775362298
5.315,4.501406988770349e-08,78.01009280593172,0,90,3.0,4,0.01051737744189113
5.32,0.0,77.88829476616297,0,90,3.0,4,0.008006077652844772
5.325,0.0,77.79215442099877,0,90,3.0,4,0.006023802494820002
5.33,0.0,77.71727110655786,0,90,3.0,4,0.004479816630058962
5.335,0.0,77.65970925268655,0,90,3.0,4,0.003292974282196985
5.34,0.0,77.61603707332719,0,90,3.0,4,0.0023925169758183882
5.345,0.0,77.58333012691409,0,90,3.0,4,0.0017181469466823053
5.35,0.0,77.55914879585012,0,90,3.0,4,0.0012195628010334112
5.355,0.0,77.54149811404007,0,90,3.0,4,0.0008556312173209687
5.36,0.0,77.52877725728622,0,90,3.0,4,0.0005933455110561316
5.365,0.0,77.51972463735181,0,90,3.0,4,0.0004066935536456509
5.37,0.0,77.51336310074132,0,90,3.0,4,0.00027552785033640716
5.375,0.0,77.50894837231351,0,90,3.0,4,0.0001845025219280774
5.38,0.0,77.50592269592266,0,90,3.0,4,0.00012211744170440163
5.385,0.0,77.50387465835057,0,90,3.0,4,7.988986289831832e-05
5.39,0.0,77.50250545138663,0,90,3.0,4,5.1658791476807595e-05
5.395,0.0,77.50160131633649,0,90,3.0,4,3.301683168021236e-05
5.4,0.0,77.50101159546982,0,90,3.0,4,2.0857638552975802e-05
5.405,0.0,77.5006316481158,0,90,3.0,4,1.3023672490711779e-05
5.41,0.0,77.50038983616128,0,90,3.0,4,8.037858995371654e-06
5.415,0.0,77.50023780863849,0,90,3.0,4,4.903270896659603e-06
5.42,0.0,77.50014338764066,0,90,3.0,4,2.9564461992214493e-06
5.425,0.0,77.50008545439401,0,90,3.0,4,1.7619462682629541e-06
5.43,0.0,77.5000503379664,0,90,3.0,4,1.0378962144255338e-06
5.435,0.0,77.50002930863025,0,90,3.0,4,6.04301654562995e-07
5.44,0.0,77.50001686684932,0,90,3.0,4,3.47770089106656e-07
5.445,0.0,77.50000959424924,0,90,3.0,4,1.9781957185729233e-07
5.45,0.001684486749771458,77.50000539419466,0,90,3.0,4,1.1122050843190777e-07
5.455,0.004172395771277602,77.50000299764929,0,90,3.0,4,6.180720184911667e-08
5.46,0.009438687428818865,77.50000164654504,0,90,3.0,4,3.394938235689233e-08
5.465,0.019500507867137046,77.50000089393305,0,90,3.0,4,1.8431609246878916e-08
5.47,0.03679496976339974,77.50000047970579,0,90,3.0,4,9.890841025930826e-09
5.475,0.06340728953298436,77.5000002544389,0,90,3.0,4,5.246162926755695e-09
5.48,0.09979255396093453,77.50000013339228,0,90,3.0,4,2.750356222265706e-09
5.485,0.14343835518453557,77.50000006912201,0,90,3.0,4,1.4251960711243151e-09
5.49,0.18829581417209276,77.50000003540305,0,90,3.0,4,7.299597444253993e-10
5.495,0.2257481735193119,77.5000000179227,0,90,3.0,4,3.695402380433678e-10
5.5,0.24718154073554727,77.5000000089682,0,90,3.0,4,1.8491134854689477e-10
5.505,0.24718154074102772,77.50000000443552,0,90,3.0,4,9.145402877151092e-11
5.51,0.22574817354072055,77.50000000216832,0,90,3.0,4,4.4707641941339216e-11
5.515,0.18829581422840957,77.50000000104771,0,90,3.0,4,2.160225721098934e-11
5.52,0.14343835532456656,77.50000000050038,0,90,3.0,4,1.0317080523236655e-11
5.525,0.09979255431561854,77.5000000002362,0,90,3.0,4,4.870074561265413e-12
5.53,0.06340729067170194,77.5000000001102,0,90,3.0,4,2.272271717863743e-12
5.535,0.03679497683410042,77.50000000005083,0,90,3.0,4,1.0480871611603622e-12
5.54,0.019500578284482293,77.50000000002316,0,90,3.0,4,4.776019213562735e-13
5.545,0.009439396781978427,77.50000000001044,0,90,3.0,4,2.1536037558089634e-13
5.55,0.004178588733610924,77.50000000000465,0,90,3.0,4,9.581339158497021e-14
5.555,0.0017299316936037381,77.50000000000205,0,90,3.0,4,4.2193053175032755e-14
5.56,0.0008997325756988589,77.5000000000009,0,90,3.0,4,1.845946076407683e-14
5.565,0.001634769674224814,77.50000000000038,0,90,3.0,4,7.911197470318642e-15
5.57,0.00614904736476635,77.50000000000016,0,90,3.0,4,3.2230804508705575e-15
5.575,0.02168080359963608,77.50000000000007,0,90,3.0,4,1.465036568577526e-15
5.58,0.06433400338904088,77.50000000000003,0,90,3.0,4,5.860146274310105e-16
5.585,0.1593410769217493,77.50000000000001,0,90,3.0,4,2.9300731371550523e-16
5.59,0.3291989194808569,77.5,0,90,3.0,4,0.0
5.595,0.5672906802982638,77.5,0,90,3.0,4,0.0
5.6,0.815339152120446,77.5,0,90,3.0,4,0.0
5.605,0.9768711246313155,77.5000028559769,1,90,3.0,4,5.888612169243417e-08
5.61,0.9726380909165361,77.50000532279577,0,90,3.0,4,1.0974836643597264e-07
5.615,0.7921091683291741,77.50001046219916,0,90,3.0,4,2.1571544653177382e-07
5.62,0.49139090102639077,77.50002236973569,0,90,3.0,4,4.612316636845095e-07
5.625,0.15739335672107918,77.50005283830866,0,90,3.0,4,1.0894496631291197e-06
5.63,-0.11102342218909485,77.50013587363745,0,90,3.0,4,2.8015182978772817e-06
5.635,-0.2314207883647528,77.5003669090899,0,90,3.0,4,7.5651358743344485e-06
5.64,-0.2029124434754801,77.50100252957115,0,90,3.0,4,2.0670712807275814e-05
5.645,-0.11151350554305876,77.50269808759987,0,90,3.0,4,5.563067216221545e-05
5.65,-0.039430666652076896,77.50703606177477,0,90,3.0,4,0.00014507343865504256
5.655,-0.006087703519843621,77.51761760128413,0,90,3.0,4,0.0003632495110129813
5.66,0.005350271385530551,77.54214594810216,0,90,3.0,4,0.0008689886206630927
5.665,0.010381647827441833,77.59607148804095,0,90,3.0,4,0.001980855423524708
5.67,0.015115203303506243,77.70836641529843,0,90,3.0,4,0.004296214748421203
5.675,0.021170964062928475,77.9296371645962,0,90,3.0,4,0.00885849823909693
5.68,0.029082821134029553,78.34181317749781,0,90,3.0,4,0.017356972731913653
5.685,0.03923107061708144,79.06694003244453,0,90,3.0,4,0.032308041906072886
5.69,0.051969043308817596,80.27039973466908,0,90,3.0,4,0.05712164401379555
5.695,0.06760532616283861,82.15204812412557,0,90,3.0,4,0.09591851802320765
5.7,0.08636519236693461,84.91878188632971,0,90,3.0,4,0.15296457497587032
5.705,0.10834733138818661,88.73551809123555,0,90,3.0,4,0.23166016682959892
5.71,0.1334809643017884,93.65914328335853,0,90,3.0,4,0.33317821202801096
5.715,0.16148868344343945,99.57021109016665,0,90,3.0,4,0.4550558987663227
5.72,0.191860907532018,106.12601860410251,0,90,3.0,4,0.5902271877134538
5.725,0.22384764873847726,112.76070620171899,0,90,3.0,4,0.7270248701385359
5.73,0.25647215537198226,118.74904589712469,0,90,3.0,4,0.8504957916932926
5.735,0.2885689161419028,123.33095343606797,0,90,3.0,4,0.9449681120838758
5.74,0.31884566517832524,125.86982346258154,0,90,3.0,4,0.9973159476820935
5.745,0.3459657668955683,126.0,0,90,3.0,4,1.0
5.75,0.3686441789190902,123.71659365765862,0,90,3.0,4,0.9529194568589406
5.755,0.3857476379544367,119.37750327034487,0,90,3.0,4,0.8634536756772139
5.76,0.3963882865005728,113.61693373312906,0,90,3.0,4,0.7446790460438981
5.765,0.4,107.1994396772741,0,90,3.0,4,0.6123595809747238
5.77,0.39638828650057273,100.86092501705839,0,90,3.0,4,0.48166855705275036
5.775,0.38574763795443656,95.1817546936844,0,90,3.0,4,0.3645722617254515
5.78,0.36864417891908974,90.51987078315264,0,90,3.0,4,0.26845094398252867
5.785,0.345965766895568,87.00790995248987,0,90,3.0,4,0.1960393804637086
5.79,0.3188456651783249,84.59832904861847,0,90,3.0,4,0.14635729997151478
5.795,0.28856891614190205,83.1310525189016,0,90,3.0,4,0.11610417564745562
5.8,0.2564721553719815,82.3997557140502,0,90,3.0,4,0.10102589101134435
5.805,0.22384764873847685,82.20156942287257,0,90,3.0,4,0.09693957572933126
5.81,0.19186090753201765,82.36525669130226,0,90,3.0,4,0.10031457095468585
5.815,0.16148868344343878,82.7606535757584,0,90,3.0,4,0.1084670840362556
5.82,0.1334809643017881,83.29581260087586,0,90,3.0,4,0.11950129073970851
5.825,0.10834733138818531,83.90842695672737,0,90,3.0,4,0.1321325145716983
5.83,0.08636519236690572,84.5563214845295,0,90,3.0,4,0.14549116462947434
5.835,0.06760532616242629,85.20957635581584,0,90,3.0,4,0.15896033723331632
5.84,0.05196904332202373,85.84509877246532,0,90,3.0,4,0.1720638922157798
5.845,0.03923107185803287,86.44344703944434,0,90,3.0,4,0.18440096988545024
5.85,0.02908287038705761,86.9873203919718,0,90,3.0,4,0.19561485344271767
5.855,0.02117220077308346,87.46110737664404,0,90,3.0,4,0.2053836572503925
5.86,0.0151361834125735,87.85101771835403,0,90,3.0,4,0.21342304573925833
5.865,0.010626454858290009,88.14547665780357,0,90,3.0,4,0.21949436407842413
5.87,0.007326255555493652,88.33558265324804,0,90,3.0,4,0.22341407532470184
5.875,0.004960179211183015,88.4155104714467,0,90,3.0,4,0.2250620715762205
5.88,0.0032978759379303545,88.38279169046189,0,90,3.0,4,0.22438745753529662
5.885,0.002153242296767213,88.23843584842453,0,90,3.0,4,0.22141104842112433
5.89,0.001380616732225004,87.98687694430782,0,90,3.0,4,0.21622426689294483
5.895,0.0008693106590991584,87.63574669193319,0,90,3.0,4,0.20898446787491118
5.9,0.000537524815942247,87.19548983856592,0,90,3.0,4,0.1999070069807406
5.905,0.0003263951340288585,86.67884832356206,0,90,3.0,4,0.18925460460952712
5.91,0.00019463030985187395,86.10024972200065,0,90,3.0,4,0.17732473653609598
5.915,0.00011397219555062695,85.47514083173311,0,90,3.0,4,0.16443589343779616
5.92,6.55403863487943e-05,84.8193091416906,0,90,3.0,4,0.15091359055032155
5.925,3.701184389455385e-05,84.14823329326723,0,90,3.0,4,0.13707697511891184
5.93,2.0525516217290957e-05,83.4764988703321,0,90,3.0,4,0.12322678083158957
5.935,1.1178128483661116e-05,82.81730856425602,0,90,3.0,4,0.10963522812899018
5.94,5.978135409912517e-06,82.18210679415621,0,90,3.0,4,0.096538284415592
5.945,3.1396702713238487e-06,81.58032915007796,0,90,3.0,4,0.0841304979397517
5.95,1.6192875458531019e-06,81.01927748638333,0,90,3.0,4,0.07256242239965631
5.955,8.201353897972012e-07,80.50411293388099,0,90,3.0,4,0.06194047286352556
5.96,4.0791415086824765e-07,80.0379521490593,0,90,3.0,4,0.05232891028988234
5.965,1.9923866938774793e-07,79.62204717610366,0,90,3.0,4,0.043753550022755945
5.97,9.556527981051257e-08,79.25602651946383,0,90,3.0,4,0.03620673236007898
5.975,4.501406988770349e-08,78.93817434270727,0,90,3.0,4,0.029653079231077746
5.98,0.0,78.66572586716714,0,90,3.0,4,0.024035584890044124
5.985,0.0,78.4351596525627,0,90,3.0,4,0.019281642320880477
5.99,0.0,78.24247104050093,0,90,3.0,4,0.01530868124744187
5.995,0.0,78.08341515681951,0,90,3.0,4,0.01202917849112397
6.0,0.0,77.9537120638225,0,90,3.0,4,0.009354887913865843
6.005,0.0,77.84921056697603,0,90,3.0,4,0.007200217875794358
6.01,0.0,77.7660105476462,0,90,3.0,4,0.005484753559715538
6.015,0.0,77.70054635288413,0,90,3.0,4,0.004134976348126429
6.02,0.0,77.64963566223828,0,90,3.0,4,0.003085271386356329
6.025,0.0,77.61049939044275,0,90,3.0,5,0.002278337947273288
6.03,0.0,77.58075865645289,0,90,3.0,5,0.0016651269371729105
6.035,0.0,77.55841477639846,0,90,3.0,5,0.0012044283793497855
6.04,0.0,77.5418177616279,0,90,3.0,5,0.0008622218892349844
6.045,0.0,77.52962806422242,0,90,3.0,5,0.00061088792211179
6.05,0.0,77.52077543867118,0,90,3.0,5,0.0004283595602305116
6.055,0.0,77.51441788504393,0,90,3.0,5,0.000297275980287135
6.06,0.0,77.50990278488175,0,90,3.0,5,0.00020418113158238505
6.065,0.0,77.50673158853434,0,90,3.0,5,0.00013879563988322056
6.07,0.0,77.50452879027938,0,90,3.0,5,9.337711916247929e-05
6.075,0.0,77.50301544414165,0,90,3.0,5,6.217410601345935e-05
6.08,0.0,77.50198712321371,0,90,3.0,5,4.097161265379787e-05
6.085,0.0,77.50129599324023,0,90,3.0,5,2.6721510107915127e-05
6.09,0.0,77.5008365369072,0,90,3.0,5,1.724818365362845e-05
6.095,0.0,77.50053440671559,0,90,3.0,5,1.1018695166751864e-05
6.1,0.0,77.50033788050787,0,90,3.0,5,6.966608409713219e-06
6.105,0.0,77.50021142619804,0,90,3.0,5,4.359303052273596e-06
6.11,0.0,77.5001309359467,0,90,3.0,5,2.6997102412392965e-06
6.115,0.0,77.50008025339538,0,90,3.0,5,1.6547091831267307e-06
6.12,0.0,77.5000486824436,0,90,3.0,5,1.0037617238191797e-06
6.125,0.0,77.50002922710189,0,90,3.0,5,6.026206575398581e-07
6.13,0.0,77.50001736615083,0,90,3.0,5,3.580649655356593e-07
6.135,0.0,77.5000102123529,0,90,3.0,5,2.1056397741565739e-07
6.14,0.0,77.5000059436399,0,90,3.0,5,1.2254927640373652e-07
6.145,0.0,77.50000342360457,0,90,3.0,5,7.058978490397177e-08
6.15,0.001684486749771458,77.50000195172728,0,90,3.0,5,4.024179968406109e-08
6.155,0.004172395771277602,77.500001101182,0,90,3.0,5,2.270478337299416e-08
6.16,0.009438687428818865,77.5000006148986,0,90,3.0,5,1.2678321567851602e-08
6.165,0.019500507867137046,77.50000033982265,0,90,3.0,5,7.006652541096309e-09
6.17,0.03679496976339974,77.50000018586842,0,90,3.0,5,3.832338469476678e-09
6.175,0.06340728953298436,77.50000010061513,0,90,3.0,5,2.0745386622759717e-09
6.18,0.09979255396093453,77.50000005390454,0,90,3.0,5,1.1114338773490858e-09
6.185,0.14343835518453557,77.50000002858195,0,90,3.0,5,5.893185779004665e-10
6.19,0.18829581417209276,77.50000001499902,0,90,3.0,5,3.092580853487946e-10
6.195,0.2257481735193119,77.50000000779002,0,90,3.0,5,1.6061899118868336e-10
6.2,0.24718154073554727,77.50000000400422,0,90,3.0,5,8.256125680024534e-11
6.205,0.24718154074102772,77.50000000203705,0,90,3.0,5,4.20011333845491e-11
6.21,0.22574817354072055,77.50000000102563,0,90,3.0,5,2.1146923845475444e-11
6.215,0.18829581422840957,77.50000000051108,0,90,3.0,5,1.053771503046443e-11
6.22,0.14343835532456656,77.50000000025204,0,90,3.0,5,5.196777716058201e-12
6.225,0.09979255431561854,77.50000000012302,0,90,3.0,5,2.5365643148351288e-12
6.23,0.06340729067170194,77.50000000005943,0,90,3.0,5,1.225356585958243e-12
6.235,0.03679497683410042,77.50000000002841,0,90,3.0,5,5.85721620117295e-13
6.24,0.019500578284482293,77.50000000001344,0,90,3.0,5,2.7718491877486797e-13
6.245,0.009439396781978427,77.5000000000063,0,90,3.0,5,1.298022399759688e-13
6.25,0.004178588733610924,77.50000000000291,0,90,3.0,5,6.006649931167857e-14
6.255,0.0017299316936037381,77.50000000000134,0,90,3.0,5,2.7542687489257492e-14
6.26,0.0008997325756988589,77.50000000000061,0,90,3.0,5,1.2599314489766724e-14
6.265,0.001634769674224814,77.50000000000027,0,90,3.0,5,5.567138960594599e-15
6.27,0.00614904736476635,77.50000000000011,0,90,3.0,5,2.344058509724042e-15
6.275,0.02168080359963608,77.50000000000006,0,90,3.0,5,1.172029254862021e-15
6.28,0.06433400338904088,77.50000000000003,0,90,3.0,5,5.860146274310105e-16
6.285,0.1593410769217493,77.50000000000001,0,90,3.0,5,2.9300731371550523e-16
6.29,0.3291989194808569,77.5,0,90,3.0,5,0.0
6.295,0.5672906802982638,77.5,0,90,3.0,5,0.0
6.3,0.815339152120446,77.5,0,90,3.0,5,0.0
6.305,0.9768711246313155,77.50000284141352,1,90,3.0,5,5.8585845746287324e-08
6.31,0.9726380909165361,77.50000602320215,0,90,3.0,5,1.2418973498599896e-07
6.315,0.7921091683291741,77.50001390847572,0,90,3.0,5,2.867726953040473e-07
6.32,0.49139090102639077,77.50003667560723,0,90,3.0,5,7.56198087296089e-07
6.325,0.15739335672107918,77.50011059338524,0,90,3.0,5,2.2802759844191463e-06
6.33,-0.11102342218909485,77.50036189007052,0,90,3.0,5,7.4616509385981134e-06
6.335,-0.2314207883647528,77.50120558702137,0,90,3.0,5,2.4857464358232973e-05
6.34,-0.2029124434754801,77.50391036506441,0,90,3.0,5,8.062608380234367e-05
6.345,-0.11151350554305876,77.51205286547585,0,90,3.0,5,0.0002485126902237444
6.35,-0.039430666652076896,77.5348850163741,0,90,3.0,5,0.000719278688125872
6.355,-0.006087703519843621,77.59427278888509,0,90,3.0,5,0.0019437688429915978
6.36,0.005350271385530551,77.73721226669761,0,90,3.0,5,0.004890974571084765
6.365,0.010381647827441833,78.0550086364351,0,90,3.0,5,0.011443477039899064
6.37,0.015115203303506243,78.7066248131426,0,90,3.0,5,0.024878862126651476
6.375,0.021170964062928475,79.93666476058841,0,90,3.0,5,0.05024051052759616
6.38,0.029082821134029553,82.06966753381477,0,90,3.0,5,0.09421994915081991
6.385,0.03923107061708144,85.45778358580941,0,90,3.0,5,0.16407801207854453
6.39,0.051969043308817596,90.36749712734111,0,90,3.0,5,0.26530921912043526
6.395,0.06760532616283861,96.81881381212173,0,90,3.0,5,0.39832605798189136
6.4,0.08636519236693461,104.43099035060901,0,90,3.0,5,0.5552781515589487
6.405,0.10834733138818661,112.35958137529082,0,90,3.0,5,0.7187542551606354
6.41,0.1334809643017884,119.4003706123145,0,90,3.0,5,0.8639251672642165
6.415,0.16148868344343945,124.27266369891016,0,90,3.0,5,0.9643848185342302
6.42,0.191860907532018,126.0,0,90,3.0,5,1.0
6.425,0.22384764873847726,124.23551301661355,0,90,3.0,5,0.9636188250848156
6.43,0.25647215537198226,119.38441220181832,0,90,3.0,5,0.8635961278725427
6.435,0.2885689161419028,112.46530195676898,0,90,3.0,5,0.7209340609643089
6.44,0.31884566517832524,104.77609572874769,0,90,3.0,5,0.5623937263659318
6.445,0.3459657668955683,97.51510203100418,0,90,3.0,5,0.4126825161031789
6.45,0.3686441789190902,91.50737445707495,0,90,3.0,5,0.2888118444757721
6.455,0.3857476379544367,87.11225858587437,0,90,3.0,5,0.1981908986778221
6.46,0.3963882865005728,84.29424759822729,0,90,3.0,5,0.14008757934489252
6.465,0.4,82.77940077248911,0,90,3.0,5,0.10885362417503323
6.47,0.39638828650057273,82.21366852739418,0,90,3.0,5,0.09718904180194178
6.475,0.38574763795443656,82.27174039653985,0,90,3.0,5,0.09838639992865679
6.48,0.36864417891908974,82.70539350031173,0,90,3.0,5,0.10732770103735523
6.485,0.345965766895568,83.34686082867735,0,90,3.0,5,0.12055383151912062
6.49,0.3188456651783249,84.09021653841471,0,90,3.0,5,0.13588075336937544
6.495,0.28856891614190205,84.8686223908513,0,90,3.0,5,0.1519303585742536
6.5,0.2564721553719815,85.6364398089941,0,90,3.0,5,0.16776164554627004
6.505,0.22384764873847685,86.35833960937738,0,90,3.0,5,0.1826461775129357
6.51,0.19186090753201765,87.00413060605341,0,90,3.0,5,0.19596145579491564
6.515,0.16148868344343878,87.54719230360597,0,90,3.0,5,0.2071586041980612
6.52,0.1334809643017881,87.9647580630516,0,90,3.0,5,0.2157682074856001
6.525,0.10834733138818531,88.23891533843656,0,90,3.0,5,0.22142093481312486
6.53,0.08636519236690572,88.35767975220547,0,90,3.0,5,0.22386968561248394
6.535,0.06760532616242629,88.31580122051929,0,90,3.0,5,0.2230062107323565
6.54,0.05196904332202373,88.1151308889805,0,90,3.0,5,0.21886867812330932
6.545,0.03923107185803287,87.76448070910753,0,90,3.0,5,0.21163877750737176
6.55,0.02908287038705761,87.27898053878907,0,90,3.0,5,0.20162846471730042
6.555,0.02117220077308346,86.67899535312071,0,90,3.0,5,0.1892576361468188
6.56,0.0151361834125735,85.9887098085372,0,90,3.0,5,0.17502494450592154
6.565,0.010626454858290009,85.23451691398876,0,90,3.0,5,0.15947457554615993
6.57,0.007326255555493652,84.44335977110556,0,90,3.0,5,0.14316205713619717
6.575,0.004960179211183015,83.641169909098,0,90,3.0,5,0.126622059981402
6.58,0.0032978759379303545,82.85152460724532,0,90,3.0,5,0.11034071355144998
6.585,0.002153242296767213,82.09461270593953,0,90,3.0,5,0.09473428259669124
6.59,0.001380616732225004,81.38655896338032,0,90,3.0,5,0.08013523635835719
6.595,0.0008693106590991584,80.7391165974011,0,90,3.0,5,0.06678590922476481
6.6,0.000537524815942247,80.15970133410246,0,90,3.0,5,0.054839202764999276
6.605,0.0003263951340288585,79.65171194034743,0,90,3.0,5,0.04436519464633867
6.61,0.00019463030985187395,79.2150641053718,0,90,3.0,5,0.03536214650251123
6.615,0.00011397219555062695,78.84685720699574,0,90,3.0,5,0.027770251690633733
6.62,6.55403863487943e-05,78.54209597968156,0,90,3.0,5,0.021486515044980666
6.625,3.701184389455385e-05,78.29439930474261,0,90,3.0,5,0.01637936710809509
6.63,2.0525516217290957e-05,78.09664356285721,0,90,3.0,5,0.012301929131076495
6.635,1.1178128483661116e-05,77.94150541295326,0,90,3.0,5,0.009103204390788908
6.64,5.978135409912517e-06,77.82188599005731,0,90,3.0,5,0.00663682453726414
6.645,3.1396702713238487e-06,77.7312134456517,0,90,3.0,5,0.004767287539210398
6.65,1.6192875458531019e-06,77.66363231176639,0,90,3.0,5,0.0033738620982761243
6.655,8.201353897972012e-07,77.61409589393084,0,90,3.0,5,0.0023524926583677864
6.66,4.0791415086824765e-07,77.57838192653549,0,90,3.0,5,0.001616122196607939
6.665,1.9923866938774793e-07,77.55305261813884,0,90,3.0,5,0.001093868415233718
6.67,9.556527981051257e-08,77.53537876574086,0,90,3.0,5,0.0007294590874403887
6.675,4.501406988770349e-08,77.52324467632434,0,90,3.0,5,0.0004792716767904907
6.68,0.0,77.51504697840599,0,90,3.0,5,0.00031024697744310895
6.685,0.0,77.50959665895905,0,90,3.0,5,0.0001978692568877236
6.69,0.0,77.50603025661913,0,90,3.0,5,0.00012433518802323334
6.695,0.0,77.50373333099382,0,90,3.0,5,7.697589677989236e-05
6.7,0.0,77.5022772051987,0,90,3.0,5,4.695268450917087e-05
6.705,0.0,77.50136852522381,0,90,3.0,5,2.821701492392741e-05
6.71,0.0,77.50081030480717,0,90,3.0,5,1.670731561184719e-05
6.715,0.0,77.50047270369095,0,90,3.0,5,9.74646785455183e-06
6.72,0.0,77.50027169055465,0,90,3.0,5,5.601867106287097e-06
6.725,0.0,77.50015385267672,0,90,3.0,5,3.172220138510253e-06
6.73,0.0,77.50008583818806,0,90,3.0,5,1.7698595475502367e-06
6.735,0.001684486749771458,77.50004718467801,0,90,3.0,5,9.728799589716687e-07
6.74,0.004172395771277602,77.50002555444298,0,90,3.0,5,5.268957316453339e-07
6.745,0.009438687428818865,77.50001363568033,0,90,3.0,5,2.811480480909971e-07
6.75,0.019500507867137046,77.5000071685641,0,90,3.0,5,1.478054452805155e-07
6.755,0.03679496976339974,77.50000371306459,0,90,3.0,5,7.655803271058944e-08
6.76,0.06340728953298436,77.50000189486295,0,90,3.0,5,3.906933912243328e-08
6.765,0.09979255396093453,77.50000095272611,0,90,3.0,5,1.9643837347138823e-08
6.77,0.14343835518453557,77.50000047195795,0,90,3.0,5,9.731091680449251e-09
6.775,0.18829581417209276,77.50000023034751,0,90,3.0,5,4.749433194952759e-09
6.78,0.2257481735193119,77.50000011076656,0,90,3.0,5,2.2838466787847602e-09
6.785,0.24718154073554727,77.50000005247819,0,90,3.0,5,1.082024440264147e-09
6.79,0.24718154074102772,77.50000002449593,0,90,3.0,5,5.050707710024747e-10
6.795,0.22574817354072055,77.5000000112656,0,90,3.0,5,2.322803759187119e-10
6.8,0.18829581422840957,77.50000000510457,0,90,3.0,5,1.0524881310123691e-10
6.805,0.14343835532456656,77.50000000227881,0,90,3.0,5,4.6985773805477274e-11
6.81,0.09979255431561854,77.50000000100232,0,90,3.0,5,2.0666391850982016e-11
6.815,0.06340729067170194,77.50000000043435,0,90,3.0,5,8.955768543714417e-12
6.82,0.03679497683410042,77.50000000018545,0,90,3.0,5,3.823745443987344e-12
6.825,0.019500578284482293,77.50000000007802,0,90,3.0,5,1.6086101522981237e-12
6.83,0.009439396781978427,77.50000000003233,0,90,3.0,5,6.665916387027744e-13
6.835,0.004178588733610924,77.5000000000132,0,90,3.0,5,2.7220379444170435e-13
6.84,0.0017299316936037381,77.50000000000531,0,90,3.0,5,1.0958473532959896e-13
6.845,0.0008997325756988589,77.5000000000021,0,90,3.0,5,4.336508242989477e-14
6.85,0.001634769674224814,77.50000000000082,0,90,3.0,5,1.6994424195499303e-14
6.855,0.00614904736476635,77.50000000000031,0,90,3.0,5,6.446160901741115e-15
6.86,0.02168080359963608,77.50000000000011,0,90,3.0,5,2.344058509724042e-15
6.865,0.06433400338904088,77.50000000000004,0,90,3.0,5,8.790219411465157e-16
6.87,0.1593410769217493,77.50000000000001,0,90,3.0,5,2.9300731371550523e-16
6.875,0.3291989194808569,77.5,0,90,3.0,5,0.0
6.88,0.5672906802982638,77.5,0,90,3.0,5,0.0
6.885,0.815339152120446,77.5,0,90,3.0,5,0.0
6.89,0.9768711246313155,77.50000284291268,1,90,3.0,5,5.861675625984043e-08
6.895,0.9726380909165361,77.50000522692886,0,90,3.0,5,1.0777172913539917e-07
6.9,0.7921091683291741,77.50001010593378,0,90,3.0,5,2.0836976870631373e-07
6.905,0.49139090102639077,77.50002115808796,0,90,3.0,5,4.362492363045546e-07
6.91,0.15739335672107918,77.50004873144633,0,90,3.0,5,1.0047720892187725e-06
6.915,-0.11102342218909485,77.50012204127654,0,90,3.0,5,2.5163149802182555e-06
6.92,-0.2314207883647528,77.50032158556677,0,90,3.0,5,6.630630242602117e-06
6.925,-0.2029124434754801,77.50086047282088,0,90,3.0,5,1.7741707646911384e-05
6.93,-0.11151350554305876,77.50227619849099,0,90,3.0,5,4.6931927649260726e-05
6.935,-0.039430666652076896,77.50585406698202,0,90,3.0,5,0.00012070241200050761
6.94,-0.006087703519843621,77.51449898858581,0,90,3.0,5,0.0002989482182642016
6.945,0.005350271385530551,77.53440094392403,0,90,3.0,5,0.0007092978128665301
6.95,0.010381647827441833,77.57796670837776,0,90,3.0,5,0.0016075609974795506
6.955,0.015115203303506243,77.6685259197955,0,90,3.0,5,0.0034747612328968895
6.96,0.021170964062928475,77.84710211151138,0,90,3.0,5,0.00715674456724486
6.965,0.029082821134029553,78.18086360927958,0,90,3.0,5,0.014038424933599664
6.97,0.03923107061708144,78.7715875433569,0,90,3.0,5,0.02621829986302889
6.975,0.051969043308817596,79.76067812311462,0,90,3.0,5,0.04661192006421888
6.98,0.06760532616283861,81.32552390807211,0,90,3.0,5,0.07887678160973431
6.985,0.08636519236693461,83.66132971593116,0,90,3.0,5,0.1270377261016734
6.99,0.10834733138818661,86.94435559703112,0,90,3.0,5,0.19472898138208494
6.995,0.1334809643017884,91.27765000366787,0,90,3.0,5,0.284075257807585
7.0,0.16148868344343945,96.628418341855,0,90,3.0,5,0.3944003781825772
7.005,0.191860907532018,102.77464193552817,0,90,3.0,5,0.5211266378459416
7.01,0.22384764873847726,109.2832947276284,0,90,3.0,5,0.6553256644871835
7.015,0.25647215537198226,115.5393329500605,0,90,3.0,5,0.7843161433002165
7.02,0.2885689161419028,120.83191669137463,0,90,3.0,5,0.8934415812654563
7.025,0.31884566517832524,124.48492700457163,0,90,3.0,5,0.9687613815375594
7.03,0.3459657668955683,126.0,0,90,3.0,5,1.0
7.035,0.3686441789190902,125.17073715235551,0,90,3.0,5,0.9829017969557838
7.04,0.3857476379544367,122.13222029908319,0,90,3.0,5,0.9202519649295502
7.045,0.3963882865005728,117.32968092689705,0,90,3.0,5,0.821230534575197
7.05,0.4,111.41655459304312,0,90,3.0,5,0.6993104039802704
7.055,0.39638828650057273,105.11429578624514,0,90,3.0,5,0.5693669234277348
7.06,0.38574763795443656,99.07544972812437,0,90,3.0,5,0.4448546335695746
7.065,0.36864417891908974,93.78509210187892,0,90,3.0,5,0.3357750948841014
7.07,0.345965766895568,89.51831812564839,0,90,3.0,5,0.24780037372470912
7.075,0.3188456651783249,86.35143581333647,0,90,3.0,5,0.18250383120281372
7.08,0.28856891614190205,84.20981931374517,0,90,3.0,5,0.13834678997412725
7.085,0.2564721553719815,82.92999868673395,0,90,3.0,5,0.11195873580894748
7.09,0.22384764873847685,82.31678578427645,0,90,3.0,5,0.09931517080982366
7.095,0.19186090753201765,82.18425183246814,0,90,3.0,5,0.09658251200965227
7.1,0.16148868344343878,82.37782282094385,0,90,3.0,5,0.10057366641121336
7.105,0.1334809643017881,82.78069542455634,0,90,3.0,5,0.10888031803208952
7.11,0.10834733138818531,83.31030373623537,0,90,3.0,5,0.1198000770357808
7.115,0.08636519236690572,83.91036403083501,0,90,3.0,5,0.13217245424402088
7.12,0.06760532616242629,84.54240741608544,0,90,3.0,5,0.14520427662031832
7.125,0.05196904332202373,85.17885117145109,0,90,3.0,5,0.15832682827734199
7.13,0.03923107185803287,85.79822972686465,0,90,3.0,5,0.17109752014153912
7.135,0.02908287038705761,86.38238945811577,0,90,3.0,5,0.18314205068279932
7.14,0.02117220077308346,86.91513824815956,0,90,3.0,5,0.19412656181772298
7.145,0.0151361834125735,87.38182755512767,0,90,3.0,5,0.20374902175520973
7.15,0.010626454858290009,87.76945625933718,0,90,3.0,5,0.21174136617190054
7.155,0.007326255555493652,88.06701587257524,0,90,3.0,5,0.2178766159293864
7.16,0.004960179211183015,88.26590102215914,0,90,3.0,5,0.2219773406630751
7.165,0.0032978759379303545,88.36027952866407,0,90,3.0,5,0.22392328925080549
7.17,0.002153242296767213,88.34736028951566,0,90,3.0,5,0.22365691318588996
7.175,0.001380616732225004,88.22752467406713,0,90,3.0,5,0.22118607575396138
7.18,0.0008693106590991584,88.00430591779762,0,90,3.0,5,0.216583627171085
7.185,0.000537524815942247,87.68421547101619,0,90,3.0,5,0.20998382414466366
7.19,0.0003263951340288585,87.27642730310674,0,90,3.0,5,0.20157582068261326
7.195,0.00019463030985187395,86.79234121998647,0,90,3.0,5,0.19159466432961791
7.2,0.00011397219555062695,86.24505409713203,0,90,3.0,5,0.1803103937552995
7.205,6.55403863487943e-05,85.64877318084139,0,90,3.0,5,0.16801594187301833
7.21,3.701184389455385e-05,85.0182079909067,0,90,3.0,5,0.15501459775065365
7.215,2.0525516217290957e-05,84.36797682077905,0,90,3.0,5,0.14160776950059895
7.22,1.1178128483661116e-05,83.71206058866679,0,90,3.0,5,0.12808372347766572
7.225,5.978135409912517e-06,83.06333129407486,0,90,3.0,5,0.1147078617335022
7.23,3.1396702713238487e-06,82.43317520844727,0,90,3.0,6,0.10171495275149003
7.235,1.6192875458531019e-06,81.83122290878103,0,90,3.0,6,0.08930356512950577
7.24,8.201353897972012e-07,81.2651901026225,0,90,3.0,6,0.07763278562108243
7.245,4.0791415086824765e-07,80.74082558665786,0,90,3.0,6,0.06682114611665696
7.25,1.9923866938774793e-07,80.26195620089626,0,90,3.0,6,0.0569475505339436
7.255,9.556527981051257e-08,79.8306136902024,0,90,3.0,6,0.04805389051963707
7.26,4.501406988770349e-08,79.44722517980838,0,90,3.0,6,0.04014897277955432
7.265,0.0,79.11084753982108,0,90,3.0,6,0.033213351336517115
7.27,0.0,78.81942611946013,0,90,3.0,6,0.027204662256909946
7.275,0.0,78.57005991099739,0,90,3.0,6,0.02206309094839972
7.28,0.0,78.35925780995424,0,90,3.0,6,0.017716655875345228
7.285,0.0,78.18317389066814,0,90,3.0,6,0.014086059601405024
7.29,0.0,78.03781314146194,0,90,3.0,6,0.011088930751792556
7.295,0.0,77.91920257088249,0,90,3.0,6,0.008643351976958558
7.3,0.0,77.82352574244823,0,90,3.0,6,0.006670633864911868
7.305,0.0,77.7472214363384,0,90,3.0,6,0.00509734920285375
7.31,0.0,77.68704917015539,0,90,3.0,6,0.0038566839207296957
7.315,0.0,77.64012570929647,0,90,3.0,6,0.00288918988240144
7.32,0.0,77.60393749359159,0,90,3.0,6,0.0021430411049811818
7.325,0.0,77.57633417800548,0,90,3.0,6,0.00157390057743261
7.33,0.0,77.55550833549475,0,90,3.0,6,0.0011445017627783479
7.335,0.0,77.53996591435897,0,90,3.0,6,0.0008240394713190312
7.34,0.0,77.52849139278503,0,90,3.0,6,0.00058745139762945
7.345,0.0,77.52011082950858,0,90,3.0,6,0.0004146562785274572
7.35,0.0,77.51405525295831,0,90,3.0,6,0.0002897990300683437
7.355,0.0,77.50972612229039,0,90,3.0,6,0.0002005386039255291
7.36,0.0,77.50666397199244,0,90,3.0,6,0.00013740148438016862
7.365,0.0,77.50452083834722,0,90,3.0,6,9.321316179832194e-05
7.37,0.0,77.5030366670062,0,90,3.0,6,6.261169084947264e-05
7.375,0.0,77.50201961106382,0,90,3.0,6,4.164146523330554e-05
7.38,0.0,77.50132993583813,0,90,3.0,6,2.7421357487193894e-05
7.385,0.0,77.50086713360042,0,90,3.0,6,1.787904330768404e-05
7.39,0.0,77.50055980106244,0,90,3.0,6,1.1542289947150606e-05
7.395,0.0,77.50035782757026,0,90,3.0,6,7.377888046498013e-06
7.4,0.0,77.50022646769418,0,90,3.0,6,4.669436993326505e-06
7.405,0.0,77.50014191591274,0,90,3.0,6,2.926101293508406e-06
7.41,0.0,77.50008805384176,0,90,3.0,6,1.8155431291688728e-06
7.415,0.0,77.5000540950966,0,90,3.0,6,1.1153628165207994e-06
7.42,0.0,77.50003290484658,0,90,3.0,6,6.784504448918147e-07
7.425,0.0,77.50001981774416,0,90,3.0,6,4.0861328165726834e-07
7.43,0.0,77.50001181791718,0,90,3.0,6,2.436683955365129e-07
7.435,0.0,77.50000697782454,0,90,3.0,6,1.4387267093607265e-07
7.44,0.0,77.50000407935522,0,90,3.0,6,8.411041694061985e-08
7.445,0.0,77.50000236132293,0,90,3.0,6,4.8687070668315706e-08
7.45,0.001684486749771458,77.50000135335465,0,90,3.0,6,2.79042195444097e-08
7.455,0.004172395771277602,77.50000076799826,0,90,3.0,6,1.583501564466095e-08
7.46,0.009438687428818865,77.50000043152029,0,90,3.0,6,8.897325597928036e-09
7.465,0.019500507867137046,77.50000024006818,0,90,3.0,6,4.949859280760889e-09
7.47,0.03679496976339974,77.50000013223924,0,90,3.0,6,2.7265821948454573e-09
7.475,0.06340728953298436,77.50000007212378,0,90,3.0,6,1.487088299007755e-09
7.48,0.09979255396093453,77.50000003894834,0,90,3.0,6,8.030586230365161e-10
7.485,0.14343835518453557,77.50000002082533,0,90,3.0,6,4.293881538990146e-10
7.49,0.18829581417209276,77.50000001102522,0,90,3.0,6,2.2732415720721413e-10
7.495,0.2257481735193119,77.5000000057793,0,90,3.0,6,1.191608003564491e-10
7.5,0.24718154073554727,77.50000000299954,0,90,3.0,6,6.184622573518654e-11
7.505,0.24718154074102772,77.50000000154144,0,90,3.0,6,3.1782210311407136e-11
7.51,0.22574817354072055,77.50000000078431,0,90,3.0,6,1.617136665127245e-11
7.515,0.18829581422840957,77.50000000039513,0,90,3.0,6,8.147068357859623e-12
7.52,0.14343835532456656,77.5000000001971,0,90,3.0,6,4.0640114412340575e-12
7.525,0.09979255431561854,77.50000000009734,0,90,3.0,6,2.0071000989512108e-12
7.53,0.06340729067170194,77.5000000000476,0,90,3.0,6,9.815745009469425e-13
7.535,0.03679497683410042,77.50000000002305,0,90,3.0,6,4.752578628465495e-13
7.54,0.019500578284482293,77.50000000001106,0,90,3.0,6,2.2795969007066307e-13
7.545,0.009439396781978427,77.50000000000524,0,90,3.0,6,1.0811969876102142e-13
7.55,0.004178588733610924,77.50000000000246,0,90,3.0,6,5.069026527278241e-14
7.555,0.0017299316936037381,77.50000000000115,0,90,3.0,6,2.3733592410955925e-14
7.56,0.0008997325756988589,77.50000000000053,0,90,3.0,6,1.0841270607473693e-14
7.565,0.001634769674224814,77.50000000000024,0,90,3.0,6,4.9811243331635886e-15
7.57,0.00614904736476635,77.50000000000011,0,90,3.0,6,2.344058509724042e-15
7.575,0.02168080359963608,77.50000000000004,0,90,3.0,6,8.790219411465157e-16
7.58,0.06433400338904088,77.50000000000001,0,90,3.0,6,2.9300731371550523e-16
7.585,0.1593410769217493,77.50000000000001,0,90,3.0,6,2.9300731371550523e-16
7.59,0.3291989194808569,77.5,0,90,3.0,6,0.0
7.595,0.5672906802982638,77.5,0,90,3.0,6,0.0
7.6,0.815339152120446,77.5,0,90,3.0,6,0.0
7.605,0.9768711246313155,77.5000028495992,1,90,3.0,6,5.8754622647104476e-08
7.61,0.9726380909165361,77.50000521622965,0,90,3.0,6,1.075511268589759e-07
7.615,0.7921091683291741,77.50001003184255,0,90,3.0,6,2.06842114423744e-07
7.62,0.49139090102639077,77.50002086143309,0,90,3.0,6,4.30132640946054e-07
7.625,0.15739335672107918,77.5000476593659,0,90,3.0,6,9.826673382361047e-07
7.63,-0.11102342218909485,77.5001183364054,0,90,3.0,6,2.4399258843904763e-06
7.635,-0.2314207883647528,77.50030933544511,0,90,3.0,6,6.378050414630557e-06
7.64,-0.2029124434754801,77.50082200342337,0,90,3.0,6,1.6948524193111617e-05
7.645,-0.11151350554305876,77.50216205965356,0,90,3.0,6,4.457854955787588e-05
7.65,-0.039430666652076896,77.50553489210309,0,90,3.0,6,0.0001141214866615578
7.655,-0.006087703519843621,77.51365844030069,0,90,3.0,6,0.0002816173257873785
7.66,0.005350271385530551,77.53231627301004,0,90,3.0,6,0.0006663149074234897
7.665,0.010381647827441833,77.57309621159689,0,90,3.0,6,0.001507138383441046
7.67,0.015115203303506243,77.657803469981,0,90,3.0,6,0.0032536797934227773
7.675,0.021170964062928475,77.82485509900845,0,90,3.0,6,0.006698043278524646
7.68,0.029082821134029553,78.13736293559109,0,90,3.0,6,0.01314150382662031
7.685,0.03923107061708144,78.69144684397986,0,90,3.0,6,0.024565914308863117
7.69,0.051969043308817596,79.62164981828742,0,90,3.0,6,0.0437453570780912
7.695,0.06760532616283861,81.09861679088165,0,90,3.0,6,0.07419828434807525
7.7,0.08636519236693461,83.31340846938576,0,90,3.0,6,0.11986409215228377
7.705,0.10834733138818661,86.44420204955951,0,90,3.0,6,0.18441653710431974
7.71,0.1334809643017884,90.60562721106557,0,90,3.0,6,0.2702191177539292
7.715,0.16148868344343945,95.78836983257673,0,90,3.0,6,0.3770797903624069
7.72,0.191860907532018,101.80487465023725,0,90,3.0,6,0.501131436087366
7.725,0.22384764873847726,108.26223981649645,0,90,3.0,6,0.6342729859071432
7.73,0.25647215537198226,114.58168257095079,0,90,3.0,6,0.7645707746587792
7.735,0.2885689161419028,120.0732287599271,0,90,3.0,6,0.8777985311325176
7.74,0.31884566517832524,124.05651257188923,0,90,3.0,6,0.9599280942657573
7.745,0.3459657668955683,126.0,0,90,3.0,6,1.0
7.75,0.3686441789190902,125.63979154071257,0,90,3.0,6,0.9925730214579911
7.755,0.3857476379544367,123.04159744781288,0,90,3.0,6,0.9390020092332552
7.76,0.3963882865005728,118.58602852218327,0,90,3.0,6,0.8471346087048097
7.765,0.4,112.88194313968907,0,90,3.0,6,0.7295246008183314
7.77,0.39638828650057273,106.63524700178176,0,90,3.0,6,0.6007267423047786
7.775,0.38574763795443656,100.51222268984526,0,90,3.0,6,0.4744788183473249
7.78,0.36864417891908974,95.03342954567974,0,90,3.0,6,0.3615140112511286
7.785,0.345965766895568,90.51937551821848,0,90,3.0,6,0.2684407323344017
7.79,0.3188456651783249,87.0899623785511,0,90,3.0,6,0.1977311830629094
7.795,0.28856891614190205,84.70403859301403,0,90,3.0,6,0.1485368782064749
7.8,0.2564721553719815,83.21803786777781,0,90,3.0,6,0.11789768799541875
7.805,0.22384764873847685,82.44396448813953,0,90,3.0,6,0.1019374121265882
7.81,0.19186090753201765,82.19384441375703,0,90,3.0,6,0.09678029719086668
7.815,0.16148868344343878,82.30602436330493,0,90,3.0,6,0.09909328584133872
7.82,0.1334809643017881,82.65514723512985,0,90,3.0,6,0.10629169556968754
7.825,0.10834733138818531,83.15091306925933,0,90,3.0,6,0.11651367153112024
7.83,0.08636519236690572,83.73116053721081,0,90,3.0,6,0.12847753684970747
7.835,0.06760532616242629,84.35352751412901,0,90,3.0,6,0.1413098456521446
7.84,0.05196904332202373,84.988162019471,0,90,3.0,6,0.1543950931849692
7.845,0.03923107185803287,85.61243627372812,0,90,3.0,6,0.16726672729336334
7.85,0.02908287038705761,86.20766235021242,0,90,3.0,6,0.17953942990128693
7.855,0.02117220077308346,86.75737840114627,0,90,3.0,6,0.19087378146693337
7.86,0.0151361834125735,87.24669041211017,0,90,3.0,6,0.200962688909488
7.865,0.010626454858290009,87.66223561673164,0,90,3.0,6,0.20953063127281724
7.87,0.007326255555493652,87.99245861796106,0,90,3.0,6,0.21633935294765078
7.875,0.004960179211183015,88.22800094208027,0,90,3.0,6,0.22119589571299528
7.88,0.0032978759379303545,88.36208251802232,0,90,3.0,6,0.22396046428911998
7.885,0.002153242296767213,88.3908031202982,0,90,3.0,6,0.22455264165563302
7.89,0.001380616732225004,88.313322569792,0,90,3.0,6,0.22295510453179396
7.895,0.0008693106590991584,88.13189872855499,0,90,3.0,6,0.21921440677432963
7.9,0.000537524815942247,87.85177727674194,0,90,3.0,6,0.21343870673694726
7.905,0.0003263951340288585,87.48093946488271,0,90,3.0,6,0.20579256628624143
7.91,0.00019463030985187395,87.02972432038673,0,90,3.0,6,0.1964891612450873
7.915,0.00011397219555062695,86.51035011571695,0,90,3.0,6,0.18578041475705043
7.92,6.55403863487943e-05,85.93636593813538,0,90,3.0,6,0.17394568944609035
7.925,3.701184389455385e-05,85.3220676178811,0,90,3.0,6,0.16127974469857945
7.93,2.0525516217290957e-05,84.6819129313368,0,90,3.0,6,0.148080678996635
7.935,1.1178128483661116e-05,84.02996899291153,0,90,3.0,6,0.1346385359363203
7.94,5.978135409912517e-06,83.37942041297052,0,90,3.0,6,0.1212251631540313
7.945,3.1396702713238487e-06,82.74216065154886,0,90,3.0,6,0.10808578662987335
7.95,1.6192875458531019e-06,82.1284816903293,0,90,3.0,6,0.09543261217173804
7.955,8.201353897972012e-07,81.54686938374624,0,90,3.0,6,0.08344060585043796
7.96,4.0791415086824765e-07,81.00390431750586,0,90,3.0,6,0.07224544984548158
7.965,1.9923866938774793e-07,80.50426129419272,0,90,3.0,6,0.061943531839025075
7.97,9.556527981051257e-08,80.0507951370098,0,90,3.0,6,0.05259371416515051
7.975,4.501406988770349e-08,79.64469664134593,0,90,3.0,6,0.04422054930610166
7.98,0.0,79.28570032014531,0,90,3.0,6,0.036818563301965146
7.985,0.0,78.97232502831886,0,90,3.0,6,0.03035721707873945
7.99,0.0,78.70212942204091,0,90,3.0,6,0.024786173650328078
7.995,0.0,78.47196622074313,0,90,3.0,6,0.020040540633878907
8.0,0.0,78.27822204797289,0,90,3.0,6,0.016045815422121426
8.005,0.0,78.11703287434221,0,90,3.0,6,0.012722327306025044
8.01,0.0,77.98446843779352,0,90,3.0,6,0.009989039954505645
8.015,0.0,77.87668219124409,0,90,3.0,6,0.007766643118434765
8.02,0.0,77.79002611222023,0,90,3.0,6,0.005979919839592419
8.025,0.0,77.72113196608001,0,90,3.0,6,0.0045594219810311054
8.03,0.0,77.66696228011871,0,90,3.0,6,0.003442521239561037
8.035,0.0,77.62483536066372,0,90,3.0,6,0.0025739249621386353
8.04,0.0,77.59242921979414,0,90,3.0,6,0.0019057571091575505
8.045,0.0,77.5677693573691,0,90,3.0,6,0.0013973063375072496
8.05,0.0,77.54920507081805,0,90,3.0,6,0.0010145375426401475
8.055,0.0,77.53537844729509,0,90,3.0,6,0.0007294525215482013
8.06,0.0,77.52518953144987,0,90,3.0,6,0.0005193717824715101
8.065,0.0,77.51776044419957,0,90,3.0,6,0.0003661947257642661
8.07,0.0,77.51240052211861,0,90,3.0,6,0.00025568086842496865
8.075,0.0,77.50857390234358,0,90,3.0,6,0.00017678149162030733
8.08,0.0,77.50587042450613,0,90,3.0,6,0.0001210396805387185
8.085,0.0,77.50398027332128,0,90,3.0,6,8.20674911603147e-05
8.09,0.0,77.50267244451638,0,90,3.0,6,5.510194879129766e-05
8.095,0.0,77.5017768751459,0,90,3.0,6,3.6636600946249204e-05
8.1,0.0,77.50116992370694,0,90,3.0,6,2.4122138287409434e-05
8.105,0.0,77.50076279982322,0,90,3.0,6,1.5727831406616835e-05
8.11,0.0,77.50049251111884,0,90,3.0,6,1.015486842960076e-05
8.115,0.0,77.50031490090498,0,90,3.0,6,6.492802164579301e-06
8.12,0.0,77.50019938119357,0,90,3.0,6,4.110952444694028e-06
8.125,0.0,77.50012501061386,0,90,3.0,6,2.5775384300424175e-06
8.13,0.0,77.50007761791949,0,90,3.0,6,1.6003694739636784e-06
8.135,0.0,77.50004772319603,0,90,3.0,6,9.839834233647257e-07
8.14,0.0,77.50002905691196,0,90,3.0,6,5.991115867144208e-07
8.145,0.0,77.50001751950404,0,90,3.0,6,3.6122688744895996e-07
8.15,0.0,77.50001046035855,0,90,3.0,6,2.1567749593149407e-07
8.155,0.0,77.50000618477277,0,90,3.0,6,1.275210880854483e-07
8.16,0.0,77.5000036212069,0,90,3.0,6,7.466405980539065e-08
8.165,0.0,77.5000020995941,0,90,3.0,6,4.329059997074829e-08
8.17,0.001684486749771458,77.50000120550708,0,90,3.0,6,2.4855815989625268e-08
8.175,0.004172395771277602,77.50000068541972,0,90,3.0,6,1.4132365381040462e-08
8.18,0.009438687428818865,77.50000038591871,0,90,3.0,6,7.957086810756194e-09
8.185,0.019500507867137046,77.50000021517286,0,90,3.0,6,4.436553832213754e-09
8.19,0.03679496976339974,77.50000011880414,0,90,3.0,6,2.4495698573783677e-09
8.195,0.06340728953298436,77.5000000649573,0,90,3.0,6,1.3393258827302806e-09
8.2,0.09979255396093453,77.50000003517037,0,90,3.0,6,7.251623356779353e-10
8.205,0.14343835518453557,77.50000001885725,0,90,3.0,6,3.8880927801524053e-10
8.21,0.18829581417209276,77.50000001001226,0,90,3.0,6,2.064383028782592e-10
8.215,0.2257481735193119,77.50000000526427,0,90,3.0,6,1.0854162929277176e-10
8.22,0.24718154073554727,77.50000000274092,0,90,3.0,6,5.651378563287807e-11
8.225,0.24718154074102772,77.50000000141321,0,90,3.0,6,2.913840531975213e-11
8.23,0.22574817354072055,77.50000000072156,0,90,3.0,6,1.487744635390478e-11
8.235,0.18829581422840957,77.50000000036482,0,90,3.0,6,7.52208375770445e-12
8.24,0.14343835532456656,77.50000000018267,0,90,3.0,6,3.766316010499104e-12
8.245,0.09979255431561854,77.50000000009057,0,90,3.0,6,1.8673356103089148e-12
8.25,0.06340729067170194,77.50000000004447,0,90,3.0,6,9.16819884615816e-13
8.255,0.03679497683410042,77.50000000002161,0,90,3.0,6,4.4566412416128344e-13
8.26,0.019500578284482293,77.5000000000104,0,90,3.0,6,2.1448135363974982e-13
8.265,0.009439396781978427,77.50000000000496,0,90,3.0,6,1.0225955248671133e-13
8.27,0.004178588733610924,77.50000000000234,0,90,3.0,6,4.834620676305836e-14
8.275,0.0017299316936037381,77.5000000000011,0,90,3.0,6,2.25615631560939e-14
8.28,0.0008997325756988589,77.50000000000051,0,90,3.0,6,1.0548263293758189e-14
8.285,0.001634769674224814,77.50000000000023,0,90,3.0,6,4.688117019448084e-15
8.29,0.00614904736476635,77.5000000000001,0,90,3.0,6,2.0510511960085364e-15
8.295,0.02168080359963608,77.50000000000004,0,90,3.0,6,8.790219411465157e-16
8.3,0.06433400338904088,77.50000000000001,0,90,3.0,6,2.9300731371550523e-16
8.305,0.1593410769217493,77.50000000000001,0,90,3.0,6,2.9300731371550523e-16
8.31,0.3291989194808569,77.5,0,90,3.0,6,0.0
8.315,0.5672906802982638,77.5,0,90,3.0,6,0.0
8.32,0.815339152120446,77.5,0,90,3.0,6,0.0
8.325,0.9768711246313155,77.50000285700571,1,90,3.0,6,5.890733424991792e-08
8.33,0.9726380909165361,77.5000055981037,0,90,3.0,6,1.1542481851411701e-07
8.335,0.7921091683291741,77.50001170193522,0,90,3.0,6,2.412770148805872e-07
8.34,0.49139090102639077,77.5000270882034,0,90,3.0,6,5.585196576478281e-07
8.345,0.15739335672107918,77.50007030382385,0,90,3.0,6,1.4495633782883385e-06
8.35,-0.11102342218909485,77.50019904185636,0,90,3.0,6,4.1039558012827685e-06
8.355,-0.2314207883647528,77.50058607134292,0,90,3.0,6,1.2083945214904703e-05
8.36,-0.2029124434754801,77.50172157287263,0,90,3.0,6,3.549634788918851e-05
8.365,-0.11151350554305876,77.50491227303426,0,90,3.0,6,0.00010128398008792904
8.37,-0.039430666652076896,77.51341548520728,0,90,3.0,6,0.00027660794241804996
8.375,-0.006087703519843621,77.53479767151332,0,90,3.0,6,0.0007174777631611781
8.38,0.005350271385530551,77.58538694566,0,90,3.0,6,0.001760555580618663
8.385,0.010381647827441833,77.69780421918405,0,90,3.0,6,0.004078437508949487
8.39,0.015115203303506243,77.93212374321509,0,90,3.0,6,0.008909767901341991
8.395,0.021170964062928475,78.38971621807644,0,90,3.0,6,0.018344664290235957
8.4,0.029082821134029553,79.22592550239746,0,90,3.0,6,0.035586092832937295
8.405,0.03923107061708144,80.65382694330745,0,90,3.0,6,0.06502735965582372
8.41,0.051969043308817596,82.92814688244911,0,90,3.0,6,0.1119205542773013
8.415,0.06760532616283861,86.29905479142072,0,90,3.0,6,0.1814238101323859
8.42,0.08636519236693461,90.93310591840898,0,90,3.0,6,0.27697125604966977
8.425,0.10834733138818661,96.81375736041753,0,90,3.0,6,0.3982218012457222
8.43,0.1334809643017884,103.65218979533569,0,90,3.0,6,0.5392204081512513
8.435,0.16148868344343945,110.85098906485283,0,90,3.0,7,0.6876492590691304
8.44,0.191860907532018,117.55776115670236,0,90,3.0,7,0.8259332197258218
8.445,0.22384764873847726,122.81835656489098,0,90,3.0,7,0.9343991044307418
8.45,0.25647215537198226,125.79775358536652,0,90,3.0,7,0.9958299708322994
8.455,0.2885689161419028,126.0,0,90,3.0,7,1.0
8.46,0.31884566517832524,123.40809829602208,0,90,3.0,7,0.9465587277530325
8.465,0.3459657668955683,118.49003065599916,0,90,3.0,7,0.8451552712577147
8.47,0.3686441789190902,112.06852813875727,0,90,3.0,7,0.71275315750015
8.475,0.3857476379544367,105.10477932098621,0,90,3.0,7,0.5691707076492002
8.48,0.3963882865005728,98.47443100842273,0,90,3.0,7,0.4324624950190253
8.485,0.4,92.8066072912793,0,90,3.0,7,0.3156001503356558
8.49,0.39638828650057273,88.42148372327156,0,90,3.0,7,0.2251852314076611
8.495,0.38574763795443656,85.35990241659837,0,90,3.0,7,0.16205984364120357
8.5,0.36864417891908974,83.46944358620377,0,90,3.0,7,0.12308131105574777
8.505,0.345965766895568,82.50409108932574,0,90,3.0,7,0.1031771358623864
8.51,0.3188456651783249,82.20538889595129,0,90,3.0,7,0.09701832775157294
8.515,0.28856891614190205,82.35118221387862,0,90,3.0,7,0.10002437554388899
8.52,0.2564721553719815,82.77370137387766,0,90,3.0,7,0.10873611080160117
8.525,0.22384764873847685,83.35697885227354,0,90,3.0,7,0.12076245056234107
8.53,0.19186090753201765,84.0246919330554,0,90,3.0,7,0.13452973057846174
8.535,0.16148868344343878,84.72653191551647,0,90,3.0,7,0.1490006580518861
8.54,0.1334809643017881,85.42725699479512,0,90,3.0,7,0.16344859783082713
8.545,0.10834733138818531,86.09955203844497,0,90,3.0,7,0.17731035130814368
8.55,0.08636519236690572,86.72019234262434,0,90,3.0,7,0.1901070586108112
8.555,0.06760532616242629,87.26848870696234,0,90,3.0,7,0.20141213828788337
8.56,0.05196904332202373,87.72606423286395,0,90,3.0,7,0.21084668521368966
8.565,0.03923107185803287,88.07728034294114,0,90,3.0,7,0.2180882544936317
8.57,0.02908287038705761,88.30988433026353,0,90,3.0,7,0.22288421299512431
8.575,0.02117220077308346,88.41562988670005,0,90,3.0,7,0.2250645337463927
8.58,0.0151361834125735,88.39073171494468,0,90,3.0,7,0.22455116938030265
8.585,0.010626454858290009,88.23608061227844,0,90,3.0,7,0.2213624868511019
8.59,0.007326255555493652,87.95718762032197,0,90,3.0,7,0.2156121158829273
8.595,0.004960179211183015,87.56385719193653,0,90,3.0,7,0.20750221014302134
8.6,0.0032978759379303545,87.06961485035202,0,90,3.0,7,0.19731164639901083
8.605,0.002153242296767213,86.49093547163766,0,90,3.0,7,0.18538011281727124
8.61,0.001380616732225004,85.84633343081921,0,90,3.0,7,0.17208934908905596
8.615,0.0008693106590991584,85.15538449808108,0,90,3.0,7,0.15784297934187785
8.62,0.000537524815942247,84.43775108996621,0,90,3.0,7,0.14304641422610748
8.625,0.0003263951340288585,83.71227751571944,0,90,3.0,7,0.12808819620040074
8.63,0.00019463030985187395,82.99621117057644,0,90,3.0,7,0.11332394166136998
8.635,0.00011397219555062695,82.30459074772966,0,90,3.0,7,0.09906372675731262
8.64,6.55403863487943e-05,81.64982534565863,0,90,3.0,7,0.08556340918883767
8.645,3.701184389455385e-05,81.04147079905813,0,90,3.0,7,0.0730200164754254
8.65,2.0525516217290957e-05,80.4861934573874,0,90,3.0,7,0.06157099912138971
8.655,1.1178128483661116e-05,79.98789840738041,0,90,3.0,7,0.05129687437897759
8.66,5.978135409912517e-06,79.54798972143004,0,90,3.0,7,0.04222659219443386
8.665,3.1396702713238487e-06,79.1657251050575,0,90,3.0,7,0.03434484752695885
8.67,1.6192875458531019e-06,78.83862619104653,0,90,3.0,7,0.027600540021577923
8.675,8.201353897972012e-07,78.5629081394647,0,90,3.0,7,0.021915631741540122
8.68,4.0791415086824765e-07,78.33389731528789,0,90,3.0,7,0.017193759078100723
8.685,1.9923866938774793e-07,78.14641264967727,0,90,3.0,7,0.013328095869634505
8.69,9.556527981051257e-08,77.9950938659425,0,90,3.0,7,0.010208120947267908
8.695,4.501406988770349e-08,77.87466719823882,0,90,3.0,7,0.007725096870903608
8.7,0.0,77.78014587226397,0,90,3.0,7,0.00577620355183448
8.705,0.0,77.7069680038797,0,90,3.0,7,0.004267381523292672
8.71,0.0,77.651078485453,0,90,3.0,7,0.0031150203186185305
8.715,0.0,77.6089638555516,0,90,3.0,7,0.0022466774340534693
8.72,0.0,77.57765022693218,0,90,3.0,7,0.0016010356068490341
8.725,0.0,77.55467432434818,0,90,3.0,7,0.0011273056566635917
