Time,ECG,Pressure,R_Peaks,mean_hr,hrv_scale,Phase_Bin,Normalized_Pressure
0.0,0.001684486749771458,77.5,0,90,3.0,0,0.0
0.005,0.004172395771277602,77.5,0,90,3.0,0,0.0
0.01,0.009438687428818865,77.5,0,90,3.0,0,0.0
0.015,0.019500507867137046,77.5,0,90,3.0,0,0.0
0.02,0.03679496976339974,77.5,0,90,3.0,0,0.0
0.025,0.06340728953298436,77.5,0,90,3.0,0,0.0
0.03,0.09979255396093453,77.5,0,90,3.0,0,0.0
0.035,0.14343835518453557,77.5,0,90,3.0,0,0.0
0.04,0.18829581417209276,77.5,0,90,3.0,0,0.0
0.045,0.2257481735193119,77.5,0,90,3.0,0,0.0
0.05,0.24718154073554727,77.5,0,90,3.0,0,0.0
0.055,0.24718154074102772,77.5,0,90,3.0,0,0.0
0.06,0.22574817354072055,77.5,0,90,3.0,0,0.0
0.065,0.18829581422840957,77.5,0,90,3.0,0,0.0
0.07,0.14343835532456656,77.5,0,90,3.0,0,0.0
0.075,0.09979255431561854,77.5,0,90,3.0,0,0.0
0.08,0.06340729067170194,77.5,0,90,3.0,0,0.0
0.085,0.03679497683410042,77.5,0,90,3.0,0,0.0
0.09,0.019500578284482293,77.5,0,90,3.0,0,0.0
0.095,0.009439396781978427,77.5,0,90,3.0,0,0.0
0.1,0.004178588733610924,77.5,0,90,3.0,0,0.0
0.105,0.0017299316936037381,77.5,0,90,3.0,0,0.0
0.11,0.0008997325756988589,77.5,0,90,3.0,0,0.0
0.115,0.001634769674224814,77.5,0,90,3.0,0,0.0
0.12,0.00614904736476635,77.5,0,90,3.0,0,0.0
0.125,0.02168080359963608,77.5,0,90,3.0,0,0.0
0.13,0.06433400338904088,77.5,0,90,3.0,0,0.0
0.135,0.1593410769217493,77.5,0,90,3.0,0,0.0
0.14,0.3291989194808569,77.5,0,90,3.0,0,0.0
0.145,0.5672906802982638,77.5,0,90,3.0,0,0.0
0.15,0.815339152120446,77.5,0,90,3.0,0,0.0
0.155,0.9768711246313155,77.5,0,90,3.0,0,0.0
0.16,0.9726380909165361,77.5,0,90,3.0,0,0.0
0.165,0.7921091683291741,77.5,0,90,3.0,0,0.0
0.17,0.49139090102639077,77.5,0,90,3.0,0,0.0
0.175,0.15739335672107918,77.5,0,90,3.0,0,0.0
0.18,-0.11102342218909485,77.5,0,90,3.0,0,0.0
0.185,-0.2314207883647528,77.5,0,90,3.0,0,0.0
0.19,-0.2029124434754801,77.5,0,90,3.0,0,0.0
0.195,-0.11151350554305876,77.5,0,90,3.0,0,0.0
0.2,-0.039430666652076896,77.5,0,90,3.0,0,0.0
0.205,-0.006087703519843621,77.5,0,90,3.0,0,0.0
0.21,0.005350271385530551,77.5,0,90,3.0,0,0.0
0.215,0.010381647827441833,77.5,0,90,3.0,0,0.0
0.22,0.015115203303506243,77.5,0,90,3.0,0,0.0
0.225,0.021170964062928475,77.5,0,90,3.0,0,0.0
0.23,0.029082821134029553,77.5,0,90,3.0,0,0.0
0.235,0.03923107061708144,77.5,0,90,3.0,0,0.0
0.24,0.051969043308817596,77.5,0,90,3.0,0,0.0
0.245,0.06760532616283861,77.5,0,90,3.0,0,0.0
0.25,0.08636519236693461,77.5,0,90,3.0,0,0.0
0.255,0.10834733138818661,77.5,0,90,3.0,0,0.0
0.26,0.1334809643017884,77.5,0,90,3.0,0,0.0
0.265,0.16148868344343945,77.5,0,90,3.0,0,0.0
0.27,0.191860907532018,77.5,0,90,3.0,0,0.0
0.275,0.22384764873847726,77.5,0,90,3.0,0,0.0
0.28,0.25647215537198226,77.5,0,90,3.0,0,0.0
0.285,0.2885689161419028,77.5,0,90,3.0,0,0.0
0.29,0.31884566517832524,77.5,0,90,3.0,0,0.0
0.295,0.3459657668955683,77.5,0,90,3.0,0,0.0
0.3,0.3686441789190902,77.5,0,90,3.0,0,0.0
0.305,0.3857476379544367,77.5,0,90,3.0,0,0.0
0.31,0.3963882865005728,77.5,0,90,3.0,0,0.0
0.315,0.4,77.5,0,90,3.0,0,0.0
0.32,0.39638828650057273,77.5,0,90,3.0,0,0.0
0.325,0.38574763795443656,77.5,0,90,3.0,0,0.0
0.33,0.36864417891908974,77.5,0,90,3.0,0,0.0
0.335,0.345965766895568,77.5,0,90,3.0,0,0.0
0.34,0.3188456651783249,77.5,0,90,3.0,0,0.0
0.345,0.28856891614190205,77.5,0,90,3.0,0,0.0
0.35,0.2564721553719815,77.5,0,90,3.0,0,0.0
0.355,0.22384764873847685,77.5,0,90,3.0,0,0.0
0.36,0.19186090753201765,77.5,0,90,3.0,0,0.0
0.365,0.16148868344343878,77.5,0,90,3.0,0,0.0
0.37,0.1334809643017881,77.5,0,90,3.0,0,0.0
0.375,0.10834733138818531,77.5,0,90,3.0,0,0.0
0.38,0.08636519236690572,77.5,0,90,3.0,0,0.0
0.385,0.06760532616242629,77.5,0,90,3.0,0,0.0
0.39,0.05196904332202373,77.5,0,90,3.0,0,0.0
0.395,0.03923107185803287,77.5,0,90,3.0,0,0.0
0.4,0.02908287038705761,77.5,0,90,3.0,0,0.0
0.405,0.02117220077308346,77.5,0,90,3.0,0,0.0
0.41,0.0151361834125735,77.5,0,90,3.0,0,0.0
0.415,0.010626454858290009,77.5,0,90,3.0,0,0.0
0.42,0.007326255555493652,77.5,0,90,3.0,0,0.0
0.425,0.004960179211183015,77.5,0,90,3.0,0,0.0
0.43,0.0032978759379303545,77.5,0,90,3.0,0,0.0
0.435,0.002153242296767213,77.5,0,90,3.0,0,0.0
0.44,0.001380616732225004,77.5,0,90,3.0,0,0.0
0.445,0.0008693106590991584,77.5,0,90,3.0,0,0.0
0.45,0.000537524815942247,77.5,0,90,3.0,0,0.0
0.455,0.0003263951340288585,77.5,0,90,3.0,0,0.0
0.46,0.00019463030985187395,77.5,0,90,3.0,0,0.0
0.465,0.00011397219555062695,77.5,0,90,3.0,0,0.0
0.47,6.55403863487943e-05,77.5,0,90,3.0,0,0.0
0.475,3.701184389455385e-05,77.5,0,90,3.0,0,0.0
0.48,2.0525516217290957e-05,77.5,0,90,3.0,0,0.0
0.485,1.1178128483661116e-05,77.5,0,90,3.0,0,0.0
0.49,5.978135409912517e-06,77.5,0,90,3.0,0,0.0
0.495,3.1396702713238487e-06,77.5,0,90,3.0,0,0.0
0.5,1.6192875458531019e-06,77.5,0,90,3.0,0,0.0
0.505,8.201353897972012e-07,77.5,0,90,3.0,0,0.0
0.51,4.0791415086824765e-07,77.5,0,90,3.0,0,0.0
0.515,1.9923866938774793e-07,77.5,0,90,3.0,0,0.0
0.52,9.556527981051257e-08,77.5,0,90,3.0,0,0.0
0.525,4.501406988770349e-08,77.5,0,90,3.0,0,0.0
0.53,0.0,77.5,0,90,3.0,0,0.0
0.535,0.0,77.5,0,90,3.0,0,0.0
0.54,0.0,77.5,0,90,3.0,0,0.0
0.545,0.0,77.5,0,90,3.0,0,0.0
0.55,0.0,77.5,0,90,3.0,0,0.0
0.555,0.0,77.5,0,90,3.0,0,0.0
0.56,0.0,77.5,0,90,3.0,0,0.0
0.565,0.0,77.5,0,90,3.0,0,0.0
0.57,0.0,77.5,0,90,3.0,0,0.0
0.575,0.0,77.5,0,90,3.0,0,0.0
0.58,0.0,77.5,0,90,3.0,0,0.0
0.585,0.0,77.5,0,90,3.0,0,0.0
0.59,0.0,77.5,0,90,3.0,0,0.0
0.595,0.0,77.5,0,90,3.0,0,0.0
0.6,0.0,77.5,0,90,3.0,0,0.0
0.605,0.0,77.5,0,90,3.0,0,0.0
0.61,0.0,77.5,0,90,3.0,0,0.0
0.615,0.0,77.5,0,90,3.0,0,0.0
0.62,0.0,77.5,0,90,3.0,0,0.0
0.625,0.0,77.5,0,90,3.0,0,0.0
0.63,0.0,77.5,0,90,3.0,0,0.0
0.635,0.0,77.5,0,90,3.0,0,0.0
0.64,0.0,77.5,0,90,3.0,0,0.0
0.645,0.0,77.5,0,90,3.0,0,0.0
0.65,0.0,77.5,0,90,3.0,0,0.0
0.655,0.0,77.5,0,90,3.0,0,0.0
0.66,0.0,77.5,0,90,3.0,0,0.0
0.665,0.0,77.5,0,90,3.0,0,0.0
0.67,0.0,77.5,0,90,3.0,0,0.0
0.675,0.0,77.5,0,90,3.0,0,0.0
0.68,0.0,77.5,0,90,3.0,0,0.0
0.685,0.0,77.5,0,90,3.0,0,0.0
0.69,0.001684486749771458,77.5,0,90,3.0,0,0.0
0.695,0.004172395771277602,77.5,0,90,3.0,0,0.0
0.7,0.009438687428818865,77.5,0,90,3.0,0,0.0
0.705,0.019500507867137046,77.5,0,90,3.0,0,0.0
0.71,0.03679496976339974,77.5,0,90,3.0,0,0.0
0.715,0.06340728953298436,77.5,0,90,3.0,0,0.0
0.72,0.09979255396093453,77.5,0,90,3.0,0,0.0
0.725,0.14343835518453557,77.5,0,90,3.0,0,0.0
0.73,0.18829581417209276,77.5,0,90,3.0,0,0.0
0.735,0.2257481735193119,77.5,0,90,3.0,0,0.0
0.74,0.24718154073554727,77.5,0,90,3.0,0,0.0
0.745,0.24718154074102772,77.5,0,90,3.0,0,0.0
0.75,0.22574817354072055,77.5,0,90,3.0,0,0.0
0.755,0.18829581422840957,77.5,0,90,3.0,0,0.0
0.76,0.14343835532456656,77.5,0,90,3.0,0,0.0
0.765,0.09979255431561854,77.5,0,90,3.0,0,0.0
0.77,0.06340729067170194,77.5,0,90,3.0,0,0.0
0.775,0.03679497683410042,77.5,0,90,3.0,0,0.0
0.78,0.019500578284482293,77.5,0,90,3.0,0,0.0
0.785,0.009439396781978427,77.5,0,90,3.0,0,0.0
0.79,0.004178588733610924,77.5,0,90,3.0,0,0.0
0.795,0.0017299316936037381,77.5,0,90,3.0,0,0.0
0.8,0.0008997325756988589,77.5,0,90,3.0,0,0.0
0.805,0.001634769674224814,77.5,0,90,3.0,0,0.0
0.81,0.00614904736476635,77.5,0,90,3.0,0,0.0
0.815,0.02168080359963608,77.5,0,90,3.0,0,0.0
0.82,0.06433400338904088,77.5,0,90,3.0,0,0.0
0.825,0.1593410769217493,77.5,0,90,3.0,0,0.0
0.83,0.3291989194808569,77.5,0,90,3.0,0,0.0
0.835,0.5672906802982638,77.5,0,90,3.0,0,0.0
0.84,0.815339152120446,77.5,0,90,3.0,0,0.0
0.845,0.9768711246313155,77.50000285066528,1,90,3.0,0,5.8776603762772095e-08
0.85,0.9726380909165361,77.50000533774794,0,90,3.0,0,1.1005665847620811e-07
0.855,0.7921091683291741,77.50001055134113,0,90,3.0,0,2.1755342544631426e-07
0.86,0.49139090102639077,77.50002272509559,0,90,3.0,0,4.685586719629616e-07
0.865,0.15739335672107918,77.50005414678377,0,90,3.0,0,1.1164285312949602e-06
0.87,-0.11102342218909485,77.500140505292,0,90,3.0,0,2.8970163297926024e-06
0.875,-0.2314207883647528,77.50038258369432,0,90,3.0,0,7.888323594182947e-06
0.88,-0.2029124434754801,77.5010527695429,0,90,3.0,0,2.1706588513294712e-05
0.885,-0.11151350554305876,77.50284972513398,0,90,3.0,0,5.875721925740811e-05
0.89,-0.039430666652076896,77.50746597756105,0,90,3.0,0,0.00015393768167121978
0.895,-0.006087703519843621,77.51876169890194,0,90,3.0,0,0.0003868391526173268
0.9,0.005350271385530551,77.54500396355465,0,90,3.0,0,0.000927916774322657
0.905,0.010381647827441833,77.60277510805538,0,90,3.0,0,0.0021190743928944885
0.91,0.015115203303506243,77.72313394409493,0,90,3.0,0,0.004600699878245889
0.915,0.021170964062928475,77.96019364845812,0,90,3.0,0,0.009488528834187958
0.92,0.029082821134029553,78.40119339193035,0,90,3.0,0,0.018581307050110282
0.925,0.03923107061708144,79.17526941030879,0,90,3.0,0,0.034541637325954354
0.93,0.051969043308817596,80.45579048450003,0,90,3.0,0,0.06094413370103151
0.935,0.06760532616283861,82.44931195947832,0,90,3.0,0,0.10204766926759427
0.94,0.08636519236693461,85.36455622127653,0,90,3.0,0,0.16215579837683566
0.945,0.10834733138818661,89.35900055276574,0,90,3.0,0,0.24451547531475742
0.95,0.1334809643017884,94.46913761169944,0,90,3.0,0,0.3498791260144214
0.955,0.16148868344343945,100.54136540845477,0,90,3.0,0,0.47507969914339726
0.96,0.191860907532018,107.18914743882308,0,90,3.0,0,0.612147369872641
0.965,0.22384764873847726,113.8027021799891,0,90,3.0,0,0.7485093232987443
0.97,0.25647215537198226,119.62609966806052,0,90,3.0,0,0.868579374599186
0.975,0.2885689161419028,123.89459021136328,0,90,3.0,0,0.9565894888940882
0.98,0.31884566517832524,126.0,0,90,3.0,0,1.0
0.985,0.3459657668955683,125.63555232071732,0,90,3.0,0,0.992485614860151
0.99,0.3686441789190902,122.8728829839707,0,90,3.0,0,0.9355233604942412
0.995,0.3857476379544367,118.14488894980822,0,90,3.0,0,0.8380389474187262
1.0,0.3963882865005728,112.14032116465883,0,90,3.0,0,0.7142334260754398
1.005,0.4,105.64571806451514,0,90,3.0,0,0.5803240838044358
1.01,0.39638828650057273,99.38474665898676,0,90,3.0,0,0.4512318898760156
1.015,0.38574763795443656,93.89946334087666,0,90,3.0,0,0.3381332647603436
1.02,0.36864417891908974,89.49722210145336,0,90,3.0,0,0.24736540415367753
1.025,0.345965766895568,86.26179009897115,0,90,3.0,0,0.18065546595816798
1.03,0.3188456651783249,84.10837075711324,0,90,3.0,0,0.1362550671569739
1.035,0.28856891614190205,82.85525798893129,0,90,3.0,0,0.11041769049342856
1.04,0.2564721553719815,82.28893368935184,0,90,3.0,0,0.09874090081137807
1.045,0.22384764873847685,82.20954302821511,0,90,3.0,0,0.09710397996319811
1.05,0.19186090753201765,82.45412614899202,0,90,3.0,0,0.1021469309070519
1.055,0.16148868344343878,82.9020248457851,0,90,3.0,0,0.11138195558319808
1.06,0.1334809643017881,83.46956389310165,0,90,3.0,0,0.1230837916103433
1.065,0.10834733138818531,84.1004855952502,0,90,3.0,0,0.13609248650000424
1.07,0.08636519236690572,84.75645137662403,0,90,3.0,0,0.14961755415719646
1.075,0.06760532616242629,85.40966434514888,0,90,3.0,0,0.16308586278657491
1.08,0.05196904332202373,86.0380544133898,0,90,3.0,0,0.17604235903896498
1.085,0.03923107185803287,86.62263152761466,0,90,3.0,0,0.18809549541473522
1.09,0.02908287038705761,87.14635512742458,0,90,3.0,0,0.1988939201530842
1.095,0.02117220077308346,87.59392038235315,0,90,3.0,0,0.20812206973924013
1.1,0.0151361834125735,87.95201971947535,0,90,3.0,0,0.21550556122629577
1.105,0.010626454858290009,88.20979239540345,0,90,3.0,0,0.22082046176089595
1.11,0.007326255555493652,88.35928803931012,0,90,3.0,0,0.2239028461713426
1.115,0.004960179211183015,88.3958424677883,0,90,3.0,0,0.22465654572759378
1.12,0.0032978759379303545,88.31830826653777,0,90,3.0,0,0.22305790240284062
1.125,0.002153242296767213,88.12911092076266,0,90,3.0,0,0.21915692620129187
1.13,0.001380616732225004,87.83412164429782,0,90,3.0,0,0.21307467307830563
1.135,0.0008693106590991584,87.44235443924178,0,90,3.0,0,0.20499699874725325
1.14,0.000537524815942247,86.96550861191454,0,90,3.0,0,0.19516512601885658
1.145,0.0003263951340288585,86.41738895346812,0,90,3.0,0,0.18386368976222928
1.15,0.00019463030985187395,85.81324358973214,0,90,3.0,0,0.171407084324374
1.155,0.00011397219555062695,85.16906367666229,0,90,3.0,0,0.15812502426107813
1.16,6.55403863487943e-05,84.5008894969962,0,90,3.0,0,0.14434823705146793
1.165,3.701184389455385e-05,83.82416428298873,0,90,3.0,0,0.1303951398554378
1.17,2.0525516217290957e-05,83.15317077049401,0,90,3.0,0,0.11656022207204154
1.175,1.1178128483661116e-05,82.50057687127921,0,90,3.0,0,0.10310467775833418
1.18,5.978135409912517e-06,81.8771068894783,0,90,3.0,0,0.09024962658718141
1.185,3.1396702713238487e-06,81.29134441020258,0,90,3.0,0,0.07817204969489863
1.19,1.6192875458531019e-06,80.74966329577829,0,90,3.0,0,0.06700336692326372
1.195,8.201353897972012e-07,80.25627492189922,0,90,3.0,0,0.05683041076080865
1.2,4.0791415086824765e-07,79.81337343151264,0,90,3.0,0,0.04769842126830195
1.205,1.9923866938774793e-07,79.42135668043277,0,90,3.0,1,0.03961560165840754
1.21,9.556527981051257e-08,79.07909874103451,0,90,3.0,1,0.032558736928546675
1.215,4.501406988770349e-08,78.78425013843707,0,90,3.0,1,0.026479384297671618
1.22,0.0,78.5335440627456,0,90,3.0,1,0.021310186860734128
1.225,0.0,78.32309016640502,0,90,3.0,1,0.016970931266082963
1.23,0.0,78.14864170879353,0,90,3.0,1,0.013374055851413066
1.235,0.0,78.00582625821215,0,90,3.0,1,0.010429407385817584
1.24,0.0,77.89033447553675,0,90,3.0,1,0.008048133516221589
1.245,0.0,77.79806535061086,0,90,3.0,1,0.006145677332182583
1.25,0.0,77.72522941908457,0,90,3.0,1,0.0046439055481354696
1.255,0.0,77.66841384122971,0,90,3.0,1,0.0034724503346331417
1.26,0.0,77.62461476063879,0,90,3.0,1,0.0025693765080163334
1.265,0.0,77.59124314265756,0,90,3.0,1,0.001881301910465172
1.27,0.0,77.5661104364004,0,90,3.0,1,0.0013631017814514075
1.275,0.0,77.54740005593854,0,90,3.0,1,0.0009773207410008
1.28,0.0,77.53362998903987,0,90,3.0,1,0.0006934018358735332
1.285,0.0,77.52361095963337,0,90,3.0,1,0.00048682390996646063
1.29,0.0,77.51640361595736,0,90,3.0,1,0.00033821888571872985
1.295,0.0,77.51127728584574,0,90,3.0,1,0.00023252135764404482
1.3,0.0,77.50767200055635,0,90,3.0,1,0.0001581855784815344
1.305,0.0,77.50516477853803,0,90,3.0,1,0.00010649027913466187
1.31,0.0,77.503440597138,0,90,3.0,1,7.094014717516253e-05
1.315,0.0,77.5022680623265,0,90,3.0,1,4.676417168027292e-05
1.32,0.0,77.50147950074185,0,90,3.0,1,3.0505169935078867e-05
1.325,0.0,77.50095502431975,0,90,3.0,1,1.9691223087647813e-05
1.33,0.0,77.50061003213925,0,90,3.0,1,1.2577982252566668e-05
1.335,0.0,77.50038559380044,0,90,3.0,1,7.95038763803906e-06
1.34,0.0,77.50024118284321,0,90,3.0,1,4.9728421280745995e-06
1.345,0.0,77.50014928006648,0,90,3.0,1,3.0779395150644987e-06
1.35,0.0,77.50009143158961,0,90,3.0,1,1.8851874146323622e-06
1.355,0.0,77.50005541530939,0,90,3.0,1,1.1425836987655202e-06
1.36,0.0,77.50003323550604,0,90,3.0,1,6.852681657310126e-07
1.365,0.0,77.50001972485731,0,90,3.0,1,4.06698088869403e-07
1.37,0.0,77.50001158415837,0,90,3.0,1,2.3884862622891006e-07
1.375,0.0,77.50000673215557,0,90,3.0,1,1.388073313198229e-07
1.38,0.0,77.5000038715319,0,90,3.0,1,7.982540004489884e-08
1.385,0.001684486749771458,77.50000220318306,0,90,3.0,1,4.542645480852894e-08
1.39,0.004172395771277602,77.5000012406731,0,90,3.0,1,2.5580888665065207e-08
1.395,0.009438687428818865,77.50000069135831,0,90,3.0,1,1.4254810500376349e-08
1.4,0.019500507867137046,77.50000038123086,0,90,3.0,1,7.860430144122352e-09
1.405,0.03679496976339974,77.50000020802328,0,90,3.0,1,4.289139801632287e-09
1.41,0.06340728953298436,77.5000001123246,0,90,3.0,1,2.315971121638587e-09
1.415,0.09979255396093453,77.50000006001736,0,90,3.0,1,1.237471266351124e-09
1.42,0.14343835518453557,77.50000003173349,0,90,3.0,1,6.542988098631541e-10
1.425,0.18829581417209276,77.50000001660344,0,90,3.0,1,3.4233890407458886e-10
1.43,0.2257481735193119,77.50000000859642,0,90,3.0,1,1.772456912054697e-10
1.435,0.24718154073554727,77.50000000440428,0,90,3.0,1,9.080999869596425e-11
1.44,0.24718154074102772,77.50000000223291,0,90,3.0,1,4.603936018217619e-11
1.445,0.22574817354072055,77.50000000112023,0,90,3.0,1,2.3097473532879562e-11
1.45,0.18829581422840957,77.50000000055614,0,90,3.0,1,1.1466841222256297e-11
1.455,0.14343835532456656,77.5000000002732,0,90,3.0,1,5.633065606180588e-12
1.46,0.09979255431561854,77.50000000013281,0,90,3.0,1,2.738446353985112e-12
1.465,0.06340729067170194,77.50000000006389,0,90,3.0,1,1.3173608824649115e-12
1.47,0.03679497683410042,77.50000000003041,0,90,3.0,1,6.270356513511812e-13
1.475,0.019500578284482293,77.50000000001432,0,90,3.0,1,2.953513722252293e-13
1.48,0.009439396781978427,77.50000000000668,0,90,3.0,1,1.3771343744628745e-13
1.485,0.004178588733610924,77.50000000000308,0,90,3.0,1,6.358258707626464e-14
1.49,0.0017299316936037381,77.5000000000014,0,90,3.0,1,2.9007724057835016e-14
1.495,0.0008997325756988589,77.50000000000064,0,90,3.0,1,1.3185329117197736e-14
1.5,0.001634769674224814,77.50000000000028,0,90,3.0,1,5.860146274310104e-15
1.505,0.00614904736476635,77.50000000000013,0,90,3.0,1,2.637065823439547e-15
1.51,0.02168080359963608,77.50000000000006,0,90,3.0,1,1.172029254862021e-15
1.515,0.06433400338904088,77.50000000000003,0,90,3.0,1,5.860146274310105e-16
1.52,0.1593410769217493,77.50000000000001,0,90,3.0,1,2.9300731371550523e-16
1.525,0.3291989194808569,77.5,0,90,3.0,1,0.0
1.53,0.5672906802982638,77.5,0,90,3.0,1,0.0
1.535,0.815339152120446,77.5,0,90,3.0,1,0.0
1.54,0.9768711246313155,77.50000284586159,1,90,3.0,1,5.8677558500516847e-08
1.545,0.9726380909165361,77.50000527961552,0,90,3.0,1,1.0885805199295553e-07
1.55,0.7921091683291741,77.50001031954956,0,90,3.0,1,2.1277421772716367e-07
1.555,0.49139090102639077,77.5000219076864,0,90,3.0,1,4.517048742836215e-07
1.56,0.15739335672107918,77.5000513062313,0,90,3.0,1,1.0578604391548184e-06
1.565,-0.11102342218909485,77.50013076005604,0,90,3.0,1,2.6960836296509407e-06
1.57,-0.2314207883647528,77.50035020381222,0,90,3.0,1,7.220697159130761e-06
1.575,-0.2029124434754801,77.50095018691317,0,90,3.0,1,1.9591482745824776e-05
1.58,-0.11151350554305876,77.50254252172627,0,90,3.0,1,5.242312837668747e-05
1.585,-0.039430666652076896,77.50659976740856,0,90,3.0,1,0.00013607767852699768
1.59,-0.006087703519843621,77.51646537881305,0,90,3.0,1,0.00033949234666087036
1.595,0.005350271385530551,77.53928253215116,0,90,3.0,1,0.00080994911651881
1.6,0.010381647827441833,77.58937615985101,0,90,3.0,1,0.0018428074196085336
1.605,0.015115203303506243,77.69363594416527,0,90,3.0,1,0.003992493694129186
1.61,0.021170964062928475,77.89914273187748,0,90,3.0,1,0.008229747049020112
1.615,0.029082821134029553,78.28242166935907,0,90,3.0,1,0.016132405553795196
1.62,0.03923107061708144,78.95815265228912,0,90,3.0,1,0.03006500313998176
1.625,0.051969043308817596,80.08310908029944,0,90,3.0,1,0.05325998103710179
1.63,0.06760532616283861,81.84927459141106,0,90,3.0,1,0.08967576477136206
1.635,0.08636519236693461,84.45983730743244,0,90,3.0,1,0.14350180015324612
1.64,0.10834733138818661,88.08459313200352,0,90,3.0,1,0.2182390336495571
1.645,0.1334809643017884,92.79797719482352,0,90,3.0,1,0.31542221020254674
1.65,0.16148868344343945,98.51242125918112,0,90,3.0,1,0.4332457991583737
1.655,0.191860907532018,104.92855626497301,0,90,3.0,1,0.5655372425767631
1.66,0.22384764873847726,111.52691835651606,0,90,3.0,1,0.7015859454951766
1.665,0.25647215537198226,117.61903404505797,0,90,3.0,1,0.827196578248618
1.67,0.2885689161419028,122.45858606973496,0,90,3.0,1,0.9269811560770096
1.675,0.31884566517832524,125.39083977274626,0,90,3.0,1,0.9874399953143559
1.68,0.3459657668955683,126.0,0,90,3.0,1,1.0
1.685,0.3686441789190902,124.20909158519541,0,90,3.0,1,0.9630740533029981
1.69,0.3857476379544367,120.29953639901376,0,90,3.0,1,0.8824646680209023
1.695,0.3963882865005728,114.84382327361675,0,90,3.0,1,0.7699757376003453
1.7,0.4,108.57369951396845,0,90,3.0,1,0.6406948353395556
1.705,0.39638828650057273,102.2258821880279,0,90,3.0,1,0.5098120038768639
1.71,0.38574763795443656,96.40992335364712,0,90,3.0,1,0.389895326879322
1.715,0.36864417891908974,91.52930221937348,0,90,3.0,1,0.2892639632860511
1.72,0.345965766895568,87.76478426184879,0,90,3.0,1,0.21164503632677914
1.725,0.3188456651783249,85.10862158827653,0,90,3.0,1,0.15687879563456772
1.73,0.28856891614190205,83.42656336784474,0,90,3.0,1,0.1221971828421595
1.735,0.2564721553719815,82.52378753042284,0,90,3.0,1,0.1035832480499554
1.74,0.22384764873847685,82.19783132916163,0,90,3.0,1,0.09686250163219856
1.745,0.19186090753201765,82.27134594925722,0,90,3.0,1,0.09837826699499432
1.75,0.16148868344343878,82.60568848479885,0,90,3.0,1,0.10527192752162572
1.755,0.1334809643017881,83.10088201483204,0,90,3.0,1,0.11548210339859873
1.76,0.10834733138818531,83.68840901871987,0,90,3.0,1,0.12759606224164674
1.765,0.08636519236690572,84.32197791292448,0,90,3.0,1,0.14065933841081404
1.77,0.06760532616242629,84.96931088968523,0,90,3.0,1,0.15400641009660274
1.775,0.05196904332202373,85.60616534397113,0,90,3.0,1,0.16713742977260057
1.78,0.03923107185803287,86.21263167382902,0,90,3.0,1,0.1796418901820417
1.785,0.02908287038705761,86.77121984433278,0,90,3.0,1,0.19115917204809849
1.79,0.02117220077308346,87.26614028210291,0,90,3.0,1,0.20136371715676102
1.795,0.0151361834125735,87.68327944307798,0,90,3.0,1,0.20996452459954595
1.8,0.010626454858290009,88.01051741167255,0,90,3.0,1,0.21671169920974334
1.805,0.007326255555493652,88.23816273562356,0,90,3.0,1,0.22140541722935178
1.81,0.004960179211183015,88.35936913531009,0,90,3.0,1,0.22390451825381627
1.815,0.0032978759379303545,88.3704549759066,0,90,3.0,1,0.22413309228673395
1.82,0.002153242296767213,88.27108106749418,0,90,3.0,1,0.22208414572152949
1.825,0.001380616732225004,88.06426526041847,0,90,3.0,1,0.2178199022766694
1.83,0.0008693106590991584,87.75622938752784,0,90,3.0,1,0.21146864716552244
1.835,0.000537524815942247,87.35608811985259,0,90,3.0,1,0.20321831174953786
1.84,0.0003263951340288585,86.87540102954962,0,90,3.0,1,0.1933072377226726
1.845,0.00019463030985187395,86.32761843902698,0,90,3.0,1,0.18201275132014386
1.85,0.00011397219555062695,85.72745804544682,0,90,3.0,1,0.16963831021539844
1.855,6.55403863487943e-05,85.09025249472462,0,90,3.0,1,0.1565000514376211
1.86,3.701184389455385e-05,84.43130793834682,0,90,3.0,1,0.14291356573910968
1.865,2.0525516217290957e-05,83.7653103417945,0,90,3.0,1,0.12918165653184543
1.87,1.1178128483661116e-05,83.10581041043784,0,90,3.0,1,0.11558371980284206
1.875,5.978135409912517e-06,82.46481016288601,0,90,3.0,1,0.1023672198533198
1.88,3.1396702713238487e-06,81.85246524967621,0,90,3.0,1,0.08974155153971576
1.885,1.6192875458531019e-06,81.276907956434,0,90,3.0,1,0.07787439085430932
1.89,8.201353897972012e-07,80.74418725350604,0,90,3.0,1,0.06689045883517611
1.895,4.0791415086824765e-07,80.25831492720756,0,90,3.0,1,0.056872472725929164
1.9,1.9923866938774793e-07,79.82140122596148,0,90,3.0,1,0.04786394280332949
1.905,9.556527981051257e-08,79.43385983225944,0,90,3.0,1,0.039873398603287494
1.91,4.501406988770349e-08,79.09466036456183,0,90,3.0,1,0.03287959514560479
1.915,0.0,78.80160686539986,0,90,3.0,1,0.026837254956698177
1.92,0.0,78.55162253760456,0,90,3.0,1,0.021682938919681614
1.925,0.0,78.34102394918298,0,90,3.0,1,0.017340699983154285
1.93,0.0,78.16577159895577,0,90,3.0,1,0.0137272494630056
1.935,0.0,78.02168769123986,0,90,3.0,1,0.010756447242059007
1.94,0.0,77.90463583247852,0,90,3.0,1,0.008343006855227193
1.945,0.0,77.81066083961933,0,90,3.0,1,0.006405378136481049
1.95,0.0,77.73608973677702,0,90,3.0,1,0.004867829624268409
1.955,0.0,77.67759720552577,0,90,3.0,1,0.003661798052077754
1.96,0.0,77.63224022257143,0,90,3.0,1,0.0027266025272458896
1.965,0.0,77.59746741293033,0,90,3.0,1,0.0020096373800067655
1.97,0.0,77.57110886220912,0,90,3.0,1,0.001466162107404441
1.975,0.0,77.55135189140306,0,90,3.0,1,0.0010588018845991423
1.98,0.0,77.53670773455,0,90,3.0,1,0.0007568605061856994
1.985,0.0,77.52597330075044,0,90,3.0,1,0.0005355319742358057
1.99,0.0,77.51819135838316,0,90,3.0,1,0.00037507955429202044
1.995,0.0,77.51261163923783,0,90,3.0,1,0.00026003379871818866
2.0,0.0,77.50865458747553,0,90,3.0,1,0.00017844510258831027
2.005,0.0,77.50587881276304,0,90,3.0,1,0.00012121263428955844
2.01,0.0,77.5039527678497,0,90,3.0,1,8.150036803498289e-05
2.015,0.0,77.5026307611049,0,90,3.0,1,5.424249700817218e-05
2.02,0.0,77.50173312521085,0,90,3.0,1,3.5734540429848964e-05
2.025,0.0,77.50113017810872,0,90,3.0,1,2.3302641416991072e-05
2.03,0.0,77.50072951170684,0,90,3.0,1,1.5041478491477542e-05
2.035,0.0,77.50046610747096,0,90,3.0,1,9.610463318680203e-06
2.04,0.0,77.50029478697198,0,90,3.0,1,6.078081896445378e-06
2.045,0.0,77.50018454357595,0,90,3.0,1,3.805022184636626e-06
2.05,0.0,77.5001143557486,0,90,3.0,1,2.357850486457688e-06
2.055,0.0,77.50007014318696,0,90,3.0,1,1.446251277527444e-06
2.06,0.0,77.50004258742786,0,90,3.0,1,8.780912960048095e-07
2.065,0.0,77.50002559444704,0,90,3.0,1,5.277205574886991e-07
2.07,0.0,77.50001522574371,0,90,3.0,1,3.139328599872053e-07
2.075,0.0,77.5000089656071,0,90,3.0,1,1.8485787822822944e-07
2.08,0.0,77.50000522575824,0,90,3.0,1,1.0774759265793186e-07
2.085,0.0,77.50000301500023,0,90,3.0,1,6.21649532309e-08
2.09,0.001684486749771458,77.50000172184403,0,90,3.0,1,3.5501938745040105e-08
2.095,0.004172395771277602,77.50000097334923,0,90,3.0,1,2.0069056299970978e-08
2.1,0.009438687428818865,77.50000054464309,0,90,3.0,1,1.1229754354363397e-08
2.105,0.019500507867137046,77.50000030166417,0,90,3.0,1,6.219879850570728e-09
2.11,0.03679496976339974,77.50000016538796,0,90,3.0,1,3.410061017066911e-09
2.115,0.06340728953298436,77.50000008975371,0,90,3.0,1,1.850592000373956e-09
2.12,0.09979255396093453,77.5000000482136,0,90,3.0,1,9.940947034620061e-10
2.125,0.14343835518453557,77.50000002563627,0,90,3.0,1,5.285828498842617e-10
2.13,0.18829581417209276,77.50000001349301,0,90,3.0,1,2.782063422704802e-10
2.135,0.2257481735193119,77.50000000702961,0,90,3.0,1,1.449404628390804e-10
2.14,0.24718154073554727,77.50000000362512,0,90,3.0,1,7.474470069225681e-11
2.145,0.24718154074102772,77.50000000185047,0,90,3.0,1,3.8153947355464515e-11
2.15,0.22574817354072055,77.50000000093499,0,90,3.0,1,1.927812319859795e-11
2.155,0.18829581422840957,77.50000000046764,0,90,3.0,1,9.641991672436131e-12
2.16,0.14343835532456656,77.50000000023151,0,90,3.0,1,4.773382147739296e-12
2.165,0.09979255431561854,77.50000000011345,0,90,3.0,1,2.3390773853908783e-12
2.17,0.06340729067170194,77.50000000005502,0,90,3.0,1,1.1345243187064363e-12
2.175,0.03679497683410042,77.50000000002642,0,90,3.0,1,5.447005961971242e-13
2.18,0.019500578284482293,77.50000000001256,0,90,3.0,1,2.590184653245066e-13
2.185,0.009439396781978427,77.50000000000591,0,90,3.0,1,1.2189104250565017e-13
2.19,0.004178588733610924,77.50000000000276,0,90,3.0,1,5.684341886080802e-14
2.195,0.0017299316936037381,77.50000000000126,0,90,3.0,1,2.6077650920679964e-14
2.2,0.0008997325756988589,77.50000000000058,0,90,3.0,1,1.2013299862335714e-14
2.205,0.001634769674224814,77.50000000000026,0,90,3.0,1,5.274131646879094e-15
2.21,0.00614904736476635,77.50000000000011,0,90,3.0,1,2.344058509724042e-15
2.215,0.02168080359963608,77.50000000000006,0,90,3.0,1,1.172029254862021e-15
2.22,0.06433400338904088,77.50000000000003,0,90,3.0,1,5.860146274310105e-16
2.225,0.1593410769217493,77.50000000000001,0,90,3.0,1,2.9300731371550523e-16
2.23,0.3291989194808569,77.5,0,90,3.0,1,0.0
2.235,0.5672906802982638,77.5,0,90,3.0,1,0.0
2.24,0.815339152120446,77.5,0,90,3.0,1,0.0
2.245,0.9768711246313155,77.50000284322633,1,90,3.0,1,5.862322322426144e-08
2.25,0.9726380909165361,77.50000534910116,0,90,3.0,1,1.102907455352232e-07
2.255,0.7921091683291741,77.50001063505204,0,90,3.0,1,2.1927942341171353e-07
2.26,0.49139090102639077,77.50002307583767,0,90,3.0,1,4.757904675148218e-07
2.265,0.15739335672107918,77.5000554713907,0,90,3.0,1,1.143740014331155e-06
2.27,-0.11102342218909485,77.50014526993121,0,90,3.0,1,2.9952563136014092e-06
2.275,-0.2314207883647528,77.5003988898635,0,90,3.0,1,8.224533268130659e-06
2.28,-0.2029124434754801,77.5011054659756,0,90,3.0,1,2.279311289893738e-05
2.285,-0.11151350554305876,77.50300976888175,0,90,3.0,1,6.205709034543127e-05
2.29,-0.039430666652076896,77.50792185780857,0,90,3.0,1,0.00016333727440347813
2.295,-0.006087703519843621,77.51997904089026,0,90,3.0,1,0.0004119389874281015
2.3,0.005350271385530551,77.54805187102536,0,90,3.0,1,0.000990760227327109
2.305,0.010381647827441833,77.60993273918042,0,90,3.0,1,0.0022666544160911822
2.31,0.015115203303506243,77.73890414692885,0,90,3.0,1,0.0049258586995638304
2.315,0.021170964062928475,77.99279598451152,0,90,3.0,1,0.01016074194869107
2.32,0.029082821134029553,78.46442565053172,0,90,3.0,1,0.01988506495941697
2.325,0.03923107061708144,79.29027244272471,0,90,3.0,1,0.03691283387061265
2.33,0.051969043308817596,80.65176405432197,0,90,3.0,1,0.06498482586230872
2.335,0.06760532616283861,82.76179436299392,0,90,3.0,1,0.10849060542255515
2.34,0.08636519236693461,85.82984126010565,0,90,3.0,1,0.1717493043320753
2.345,0.10834733138818661,90.00401066771741,0,90,3.0,1,0.257814652942627
2.35,0.1334809643017884,95.29777724070067,0,90,3.0,1,0.3669644791897045
2.355,0.16148868344343945,101.52070486511198,0,90,3.0,1,0.4952722652600408
2.36,0.191860907532018,108.24076061437154,0,90,3.0,1,0.633830115760238
2.365,0.22384764873847726,114.80477932285345,0,90,3.0,1,0.7691707076877
2.37,0.25647215537198226,120.42962228136281,0,90,3.0,1,0.8851468511621198
2.375,0.2885689161419028,124.35209848293255,0,90,3.0,1,0.9660226491326298
2.38,0.31884566517832524,126.0,0,90,3.0,1,1.0
2.385,0.3459657668955683,125.13199699060715,0,90,3.0,1,0.982103030734168
2.39,0.3686441789190902,121.89956504594475,0,90,3.0,1,0.9154549494009228
2.395,0.3857476379544367,116.80934959217932,0,90,3.0,1,0.8105020534469962
2.4,0.3963882865005728,110.59911497723489,0,90,3.0,1,0.6824559789120596
2.405,0.4,104.06935062625563,0,90,3.0,1,0.5478216623970232
2.41,0.39638828650057273,97.92347769263611,0,90,3.0,2,0.421102632837858
2.415,0.38574763795443656,92.65949215512845,0,90,3.0,2,0.3125668485593494
2.42,0.36864417891908974,88.53181629485155,0,90,3.0,2,0.22746012979075364
2.425,0.345965766895568,85.57626122980984,0,90,3.0,2,0.16652085009917206
2.43,0.3188456651783249,83.67383914290984,0,90,3.0,2,0.12729565243113075
2.435,0.28856891614190205,82.62499201165721,0,90,3.0,2,0.1056699383846848
2.44,0.2564721553719815,82.2123239726345,0,90,3.0,2,0.09716131902339162
2.445,0.22384764873847685,82.24122011682826,0,90,3.0,2,0.09775711581089194
2.45,0.19186090753201765,82.5580522820505,0,90,3.0,2,0.10428973777423704
2.455,0.16148868344343878,83.05182219454407,0,90,3.0,2,0.11447056071224893
2.46,0.1334809643017881,83.64676889072895,0,90,3.0,2,0.12673750290162783
2.465,0.10834733138818531,84.29215130262087,0,90,3.0,2,0.1400443567550694
2.47,0.08636519236690572,84.95297587109219,0,90,3.0,2,0.15366960558952975
2.475,0.06760532616242629,85.6032141410097,0,90,3.0,2,0.16707658022700414
2.48,0.05196904332202373,86.22161625213593,0,90,3.0,2,0.17982713921929755
2.485,0.03923107185803287,86.78956826301784,0,90,3.0,2,0.19153748995913075
2.49,0.02908287038705761,87.29030500025087,0,90,3.0,2,0.20186195876805912
2.495,0.02117220077308346,87.70890109634271,0,90,3.0,2,0.21049280611015905
2.5,0.0151361834125735,88.03263653005703,0,90,3.0,2,0.21716776350633057
2.505,0.010626454858290009,88.25148247455117,0,90,3.0,2,0.22168005102167357
2.51,0.007326255555493652,88.35855638009744,0,90,3.0,2,0.22388776041438022
2.515,0.004960179211183015,88.35045923154104,0,90,3.0,2,0.22372080889775336
2.52,0.0032978759379303545,88.22744713680183,0,90,3.0,2,0.2211844770474604
2.525,0.002153242296767213,87.99341542663203,0,90,3.0,2,0.21635908096148507
2.53,0.001380616732225004,87.65569305578572,0,90,3.0,2,0.20939573310898388
2.535,0.0008693106590991584,87.22466123620943,0,90,3.0,2,0.20050847909710162
2.54,0.000537524815942247,86.71322360224083,0,90,3.0,2,0.189963373242079
2.545,0.0003263951340288585,86.13616550482689,0,90,3.0,2,0.17806526814076065
2.55,0.00019463030985187395,85.50944672085147,0,90,3.0,2,0.1651432313577623
2.555,0.00011397219555062695,84.84947457720351,0,90,3.0,2,0.15153555829285587
2.56,6.55403863487943e-05,84.17240320268115,0,90,3.0,2,0.1375753237666217
2.565,3.701184389455385e-05,83.49349969202193,0,90,3.0,2,0.12357731323756552
2.57,2.0525516217290957e-05,82.8266100918151,0,90,3.0,2,0.10982701220237316
2.575,1.1178128483661116e-05,82.18374823881719,0,90,3.0,2,0.09657212863540593
2.58,5.978135409912517e-06,81.57481966179543,0,90,3.0,2,0.08401690024320475
2.585,3.1396702713238487e-06,81.00748205938964,0,90,3.0,2,0.07231921771937412
2.59,1.6192875458531019e-06,80.48713423047259,0,90,3.0,2,0.061590396504589515
2.595,8.201353897972012e-07,80.01701749313209,0,90,3.0,2,0.051897267899630665
2.6,4.0791415086824765e-07,79.59840805263835,0,90,3.0,2,0.04326614541522367
2.605,1.9923866938774793e-07,79.23087565482302,0,90,3.0,2,0.03568815783140255
2.61,9.556527981051257e-08,78.91258311223406,0,90,3.0,2,0.029125424994516702
2.615,4.501406988770349e-08,78.64060262096777,0,90,3.0,2,0.023517579813768435
2.62,0.0,78.41122774696173,0,90,3.0,2,0.018788200968283056
2.625,0.0,78.22026402057521,0,90,3.0,2,0.01485080454794257
2.63,0.0,78.06328569392375,0,90,3.0,2,0.0116141380190463
2.635,0.0,77.93585088962875,0,90,3.0,2,0.00898661628100522
2.64,0.0,77.83367169477451,0,90,3.0,2,0.006879828758237296
2.645,0.0,77.75273943637394,0,90,3.0,2,0.005211122399462747
2.65,0.0,77.68940824197168,0,90,3.0,2,0.0039053245767356024
2.655,0.0,77.64044198158881,0,90,3.0,2,0.0028957109605939712
2.66,0.0,77.60303083963844,0,90,3.0,2,0.00212434720903991
2.665,0.0,77.57478418147271,0,90,3.0,2,0.0015419418860352196
2.67,0.0,77.55370620498225,0,90,3.0,2,0.001107344432623672
2.675,0.0,77.53816026664151,0,90,3.0,2,0.0007868096214744733
2.68,0.0,77.5268269037557,0,90,3.0,2,0.0005531320362000976
2.685,0.0,77.51865958225872,0,90,3.0,2,0.00038473365481898506
2.69,0.0,77.51284119666562,0,90,3.0,2,0.00026476694155915014
2.695,0.0,77.50874341903805,0,90,3.0,2,0.00018027668119700757
2.7,0.0,77.505890189993,0,90,3.0,2,0.00012144721635044119
2.705,0.0,77.50392599307456,0,90,3.0,2,8.09483108156721e-05
2.71,0.0,77.50258905913398,0,90,3.0,2,5.338266255632296e-05
2.715,0.0,77.5016892993909,0,90,3.0,2,3.483091527636903e-05
2.72,0.0,77.50109054476202,0,90,3.0,2,2.2485459010757733e-05
2.725,0.0,77.50069655045753,0,90,3.0,2,1.436186510378067e-05
2.73,0.0,77.50044018362493,0,90,3.0,2,9.075951029515017e-06
2.735,0.0,77.50027522469445,0,90,3.0,2,5.674735968003793e-06
2.74,0.0,77.50017026019599,0,90,3.0,2,3.510519504872493e-06
2.745,0.0,77.50010421040284,0,90,3.0,2,2.1486680997647275e-06
2.75,0.0,77.50006310753771,0,90,3.0,2,1.3011863445954827e-06
2.755,0.0,77.5000378114743,0,90,3.0,2,7.796180268049977e-07
2.76,0.0,77.50002241497207,0,90,3.0,2,4.6216437247672616e-07
2.765,0.0,77.5000131469499,0,90,3.0,2,2.710711318914693e-07
2.77,0.0,77.50000762928833,0,90,3.0,2,1.57304914093458e-07
2.775,0.0,77.50000438041506,0,90,3.0,2,9.031783636216751e-08
2.78,0.001684486749771458,77.50000248839153,0,90,3.0,2,5.1307041859058467e-08
2.785,0.004172395771277602,77.50000139860276,0,90,3.0,2,2.8837170360667496e-08
2.79,0.009438687428818865,77.50000077775401,0,90,3.0,2,1.6036165165526644e-08
2.795,0.019500507867137046,77.50000042791977,0,90,3.0,2,8.823088092895821e-09
2.8,0.03679496976339974,77.50000023294568,0,90,3.0,2,4.803003722119365e-09
2.805,0.06340728953298436,77.50000012546401,0,90,3.0,2,2.586886855929198e-09
2.81,0.09979255396093453,77.50000006685839,0,90,3.0,2,1.3785235221371999e-09
2.815,0.14343835518453557,77.50000003525047,0,90,3.0,2,7.268137248980359e-10
2.82,0.18829581417209276,77.50000001838849,0,90,3.0,2,3.791441387650209e-10
2.825,0.2257481735193119,77.50000000949072,0,90,3.0,2,1.9568493446490017e-10
2.83,0.24718154073554727,77.50000000484647,0,90,3.0,2,9.99272142695359e-11
2.835,0.24718154074102772,77.50000000244863,0,90,3.0,2,5.048721120437756e-11
2.84,0.22574817354072055,77.50000000122404,0,90,3.0,2,2.5237891959571327e-11
2.845,0.18829581422840957,77.50000000060538,0,90,3.0,2,1.2482111564280523e-11
2.85,0.14343835532456656,77.50000000029624,0,90,3.0,2,6.108030461713422e-12
2.855,0.09979255431561854,77.50000000014343,0,90,3.0,2,2.9573228173305944e-12
2.86,0.06340729067170194,77.50000000006871,0,90,3.0,2,1.4166903618144677e-12
2.865,0.03679497683410042,77.50000000003256,0,90,3.0,2,6.712797557222225e-13
2.87,0.019500578284482293,77.50000000001526,0,90,3.0,2,3.146898549304526e-13
2.875,0.009439396781978427,77.50000000000708,0,90,3.0,2,1.4591764223032162e-13
2.88,0.004178588733610924,77.50000000000325,0,90,3.0,2,6.70986748408507e-14
2.885,0.0017299316936037381,77.50000000000148,0,90,3.0,2,3.047276062641254e-14
2.89,0.0008997325756988589,77.50000000000067,0,90,3.0,2,1.3771343744628746e-14
2.895,0.001634769674224814,77.5000000000003,0,90,3.0,2,6.15315358802561e-15
2.9,0.00614904736476635,77.50000000000013,0,90,3.0,2,2.637065823439547e-15
2.905,0.02168080359963608,77.50000000000006,0,90,3.0,2,1.172029254862021e-15
2.91,0.06433400338904088,77.50000000000003,0,90,3.0,2,5.860146274310105e-16
2.915,0.1593410769217493,77.50000000000001,0,90,3.0,2,2.9300731371550523e-16
2.92,0.3291989194808569,77.5,0,90,3.0,2,0.0
2.925,0.5672906802982638,77.5,0,90,3.0,2,0.0
2.93,0.815339152120446,77.5,0,90,3.0,2,0.0
2.935,0.9768711246313155,77.50000284586159,1,90,3.0,2,5.8677558500516847e-08
2.94,0.9726380909165361,77.50000607395938,0,90,3.0,2,1.2523627594756484e-07
2.945,0.7921091683291741,77.50001414975088,0,90,3.0,2,2.9174744086799133e-07
2.95,0.49139090102639077,77.50003774688028,0,90,3.0,2,7.782861913612353e-07
2.955,0.15739335672107918,77.500115316467,0,90,3.0,2,2.3776591134621187e-06
2.96,-0.11102342218909485,77.50038193899846,0,90,3.0,2,7.875030896051725e-06
2.965,-0.2314207883647528,77.50128513772876,0,90,3.0,2,2.6497685129020422e-05
2.97,-0.2029124434754801,77.50420106011745,0,90,3.0,2,8.661979623613342e-05
2.975,-0.11151350554305876,77.5130256934612,0,90,3.0,2,0.0002685709992000429
2.98,-0.039430666652076896,77.53786196262558,0,90,3.0,2,0.0007806590232079187
2.985,-0.006087703519843621,77.60260192062486,0,90,3.0,2,0.0021155035180384207
2.99,0.005350271385530551,77.75852362014285,0,90,3.0,2,0.005330383920471194
2.995,0.010381647827441833,78.10487622432902,0,90,3.0,2,0.01247167472843337
3.0,0.015115203303506243,78.81329977645272,0,90,3.0,2,0.027078345906241717
3.005,0.021170964062928475,80.145086141204,0,90,3.0,2,0.05453785858152586
3.01,0.029082821134029553,82.4409718211188,0,90,3.0,2,0.10187570765193389
3.015,0.03923107061708144,86.05928105043185,0,90,3.0,2,0.17648002165838864
3.02,0.051969043308817596,91.2496597082909,0,90,3.0,2,0.2834981383152764
3.025,0.06760532616283861,97.9817859100092,0,90,3.0,2,0.4223048641239009
3.03,0.08636519236693461,105.79226260767271,0,90,3.0,2,0.5833456207767569
3.035,0.10834733138818661,113.74152810943451,0,90,3.0,2,0.7472480022563817
3.04,0.1334809643017884,120.55428234773409,0,90,3.0,2,0.8877171618089502
3.045,0.16148868344343945,124.94140906395694,0,90,3.0,2,0.9781733827619987
3.05,0.191860907532018,126.0,0,90,3.0,2,1.0
3.055,0.22384764873847726,123.52338133034326,0,90,3.0,2,0.9489356975328507
3.06,0.25647215537198226,118.07639781402526,0,90,3.0,2,0.8366267590520672
3.065,0.2885689161419028,110.79940800075586,0,90,3.0,2,0.6865857319743477
3.07,0.31884566517832524,103.03487075863387,0,90,3.0,2,0.5264921805903892
3.075,0.3459657668955683,95.94429841424011,0,90,3.0,2,0.3802948126647445
3.08,0.3686441789190902,90.2626013354371,0,90,3.0,2,0.2631464192873628
3.085,0.3857476379544367,86.24702551304469,0,90,3.0,2,0.1803510415060761
3.09,0.3963882865005728,83.78185040445095,0,90,3.0,2,0.12952268875156597
3.095,0.4,82.54963637113546,0,90,3.0,2,0.1041162138378446
3.1,0.39638828650057273,82.18634243383278,0,90,3.0,2,0.0966256171924284
3.105,0.38574763795443656,82.3774367104458,0,90,3.0,2,0.10056570537001663
3.11,0.36864417891908974,82.8929218361134,0,90,3.0,2,0.111194264662132
3.115,0.345965766895568,83.58184221421544,0,90,3.0,2,0.12539880854052457
3.12,0.3188456651783249,84.3500335133804,0,90,3.0,2,0.1412378043995958
3.125,0.28856891614190205,85.13731939707576,0,90,3.0,2,0.15747050303248983
3.13,0.2564721553719815,85.90112483967476,0,90,3.0,2,0.1732190688592735
3.135,0.22384764873847685,86.60725888394899,0,90,3.0,2,0.18777853368966982
3.14,0.19186090753201765,87.22600098303674,0,90,3.0,2,0.20053610274302558
3.145,0.16148868344343878,87.73129427857432,0,90,3.0,2,0.21095452120771804
3.15,0.1334809643017881,88.10140680065318,0,90,3.0,2,0.21858570722996248
3.155,0.10834733138818531,88.32006084897934,0,90,3.0,2,0.22309403812328532
3.16,0.08636519236690572,88.37748176745886,0,90,3.0,2,0.22427797458678062
3.165,0.06760532616242629,88.27108106749418,0,90,3.0,2,0.22208414572152949
3.17,0.05196904332202373,88.00563854852327,0,90,3.0,2,0.2166111040932632
3.175,0.03923107185803287,87.59294335966689,0,90,3.0,2,0.20810192494158536
3.18,0.02908287038705761,87.05092505826738,0,90,3.0,2,0.19692628986118313
3.185,0.02117220077308346,86.40236216625274,0,90,3.0,2,0.1835538590979947
3.19,0.0151361834125735,85.67329734339388,0,90,3.0,2,0.16852159470915223
3.195,0.010626454858290009,84.89131240569297,0,90,3.0,2,0.15239819393181386
3.2,0.007326255555493652,84.08382135764072,0,90,3.0,2,0.1357488939719735
3.205,0.004960179211183015,83.2765260683795,0,90,3.0,2,0.1191036302758659
3.21,0.0032978759379303545,82.49215034587014,0,90,3.0,2,0.10293093496639472
3.215,0.002153242296767213,81.74952897269961,0,90,3.0,2,0.08761915407628057
3.22,0.001380616732225004,81.06308474959009,0,90,3.0,2,0.07346566494000184
3.225,0.0008693106590991584,80.44268468999192,0,90,3.0,2,0.06067391113385404
3.23,0.000537524815942247,79.8938312199177,0,90,3.0,2,0.049357344740571144
3.235,0.0003263951340288585,79.41811898180232,0,90,3.0,2,0.0395488449856149
3.24,0.00019463030985187395,79.01387417058143,0,90,3.0,2,0.031213900424359405
3.245,0.00011397219555062695,78.6768909812966,0,90,3.0,2,0.02426579342879576
3.25,6.55403863487943e-05,78.40118698283636,0,90,3.0,2,0.018581174903842562
3.255,3.701184389455385e-05,78.17971335755713,0,90,3.0,2,0.01401470840323987
3.26,2.0525516217290957e-05,78.00497388499059,0,90,3.0,2,0.010411832680218365
3.265,1.1178128483661116e-05,77.86952536337502,0,90,3.0,2,0.007619079657216875
3.27,5.978135409912517e-06,77.76634945109376,0,90,3.0,2,0.005491741259665147
3.275,3.1396702713238487e-06,77.6891000218534,0,90,3.0,2,0.0038989695227506396
3.28,1.6192875458531019e-06,77.63224022257143,0,90,3.0,2,0.0027266025272458896
3.285,8.201353897972012e-07,77.5910893878649,0,90,3.0,2,0.0018781317085545923
3.29,4.0791415086824765e-07,77.56180223984774,0,90,3.0,2,0.0012742729865512674
3.295,1.9923866938774793e-07,77.5413021696559,0,90,3.0,2,0.0008515911269259185
3.3,9.556527981051257e-08,77.52718777937379,0,90,3.0,2,0.0005605727705936087
3.305,4.501406988770349e-08,77.51762815365113,0,90,3.0,2,0.00036346708559033253
3.31,0.0,77.5112582823711,0,90,3.0,2,0.00023212953342478904
3.315,0.0,77.50708222412621,0,90,3.0,2,0.00014602523971562573
3.32,0.0,77.5043883313797,0,90,3.0,2,9.048105937527983e-05
3.325,0.0,77.5026783133365,0,90,3.0,2,5.522295539181287e-05
3.33,0.0,77.50161011009115,0,90,3.0,2,3.319814620927553e-05
3.335,0.0,77.50095341499808,0,90,3.0,2,1.9658041197514188e-05
3.34,0.0,77.50055608426527,0,90,3.0,2,1.1465654954018018e-05
3.345,0.0,77.50031947100895,0,90,3.0,2,6.587031112376187e-06
3.35,0.0,77.5001807817223,0,90,3.0,2,3.7274581918914056e-06
3.355,0.0,77.50010076502231,0,90,3.0,2,2.077629325982606e-06
3.36,0.001684486749771458,77.50005532192847,0,90,3.0,2,1.1406583189923789e-06
3.365,0.004172395771277602,77.50002991693071,0,90,3.0,2,6.168439322490738e-07
3.37,0.009438687428818865,77.50001593562055,0,90,3.0,2,3.285694959362745e-07
3.375,0.019500507867137046,77.50000836090221,0,90,3.0,2,1.7238973637364494e-07
3.38,0.03679496976339974,77.50000432085336,0,90,3.0,2,8.908976008232336e-08
3.385,0.06340728953298436,77.50000219947044,0,90,3.0,2,4.534990606180614e-08
3.39,0.09979255396093453,77.50000110280557,0,90,3.0,2,2.2738259165578842e-08
3.395,0.14343835518453557,77.50000054464309,0,90,3.0,2,1.1229754354363397e-08
3.4,0.18829581417209276,77.50000026494594,0,90,3.0,2,5.4628028652755864e-09
3.405,0.2257481735193119,77.5000001269506,0,90,3.0,2,2.6175380580096633e-09
3.41,0.24718154073554727,77.50000005991622,0,90,3.0,2,1.235385933299411e-09
3.415,0.24718154074102772,77.50000002785391,0,90,3.0,2,5.743075202115075e-10
3.42,0.22574817354072055,77.50000001275441,0,90,3.0,2,2.6297758014743055e-10
3.425,0.18829581422840957,77.50000000575264,0,90,3.0,2,1.186111186359188e-10
3.43,0.14343835532456656,77.50000000255568,0,90,3.0,2,5.269443529859646e-11
3.435,0.09979255431561854,77.50000000111835,0,90,3.0,2,2.3058796567469115e-11
3.44,0.06340729067170194,77.50000000048203,0,90,3.0,2,9.938808081229938e-12
3.445,0.03679497683410042,77.50000000020465,0,90,3.0,2,4.2195983248169905e-12
3.45,0.019500578284482293,77.50000000008558,0,90,3.0,2,1.7644900431947725e-12
3.455,0.009439396781978427,77.50000000003526,0,90,3.0,2,7.269511453281685e-13
3.46,0.004178588733610924,77.5000000000143,0,90,3.0,2,2.947653575977983e-13
3.465,0.0017299316936037381,77.50000000000571,0,90,3.0,2,1.1778894011363311e-13
3.47,0.0008997325756988589,77.50000000000225,0,90,3.0,2,4.6295155567049826e-14
3.475,0.001634769674224814,77.50000000000087,0,90,3.0,2,1.787344613664582e-14
3.48,0.00614904736476635,77.50000000000033,0,90,3.0,2,6.73916821545662e-15
3.485,0.02168080359963608,77.50000000000013,0,90,3.0,2,2.637065823439547e-15
3.49,0.06433400338904088,77.50000000000004,0,90,3.0,2,8.790219411465157e-16
3.495,0.1593410769217493,77.50000000000001,0,90,3.0,2,2.9300731371550523e-16
3.5,0.3291989194808569,77.5,0,90,3.0,2,0.0
3.505,0.5672906802982638,77.5,0,90,3.0,2,0.0
3.51,0.815339152120446,77.5,0,90,3.0,2,0.0
3.515,0.9768711246313155,77.50000284586159,1,90,3.0,2,5.8677558500516847e-08
3.52,0.9726380909165361,77.50000655270193,0,90,3.0,2,1.351072563517574e-07
3.525,0.7921091683291741,77.50001686478872,0,90,3.0,2,3.4772760246015265e-07
3.53,0.49139090102639077,77.5000513062313,0,90,3.0,2,1.0578604391548184e-06
3.535,0.15739335672107918,77.50018094237944,0,90,3.0,2,3.730770710187722e-06
3.54,-0.11102342218909485,77.50068156896668,0,90,3.0,2,1.4052968385230903e-05
3.545,-0.2314207883647528,77.50254252172627,0,90,3.0,2,5.242312837668747e-05
3.55,-0.2029124434754801,77.50899344295689,0,90,3.0,2,0.0001854318135441804
3.555,-0.11151350554305876,77.52955075939803,0,90,3.0,2,0.0006092940082068998
3.56,-0.039430666652076896,77.58937615985101,0,90,3.0,2,0.0018428074196085336
3.565,-0.006087703519843621,77.74780788597094,0,90,3.0,2,0.005109440947854489
3.57,0.005350271385530551,78.1286914774954,0,90,3.0,2,0.012962710876193695
3.575,0.010381647827441833,78.95815265228912,0,90,3.0,2,0.03006500313998176
3.58,0.015115203303506243,80.590443077247,0,90,3.0,2,0.06372047581952582
3.585,0.021170964062928475,83.48403470849591,0,90,3.0,2,0.12338215893806004
3.59,0.029082821134029553,88.08459313200353,0,90,3.0,2,0.21823903364955738
3.595,0.03923107061708144,94.60168410967428,0,90,3.0,2,0.3526120434984388
3.6,0.051969043308817596,102.73970129097374,0,90,3.0,2,0.5204062121850256
3.605,0.06760532616283861,111.52691835651606,0,90,3.0,2,0.7015859454951766
3.61,0.08636519236693461,119.40712793003922,0,90,3.0,2,0.8640644934028706
3.615,0.10834733138818661,124.65731887375276,0,90,3.0,3,0.9723158530670671
3.62,0.1334809643017884,126.0,0,90,3.0,3,1.0
3.625,0.16148868344343945,123.11796529270276,0,90,3.0,3,0.9405766039732528
3.63,0.191860907532018,116.79059353751886,0,90,3.0,3,0.8101153306704919
3.635,0.22384764873847726,108.57369951396842,0,90,3.0,3,0.6406948353395551
3.64,0.25647215537198226,100.20355035664099,0,90,3.0,3,0.46811444034311317
3.645,0.2885689161419028,93.0367130012589,0,90,3.0,3,0.3203445979641011
3.65,0.31884566517832524,87.76478426184877,0,90,3.0,3,0.21164503632677886
3.655,0.3459657668955683,84.44866361769577,0,90,3.0,3,0.14327141479785097
3.66,0.3686441789190902,82.75091567278193,0,90,3.0,3,0.10826630253158616
3.665,0.3857476379544367,82.19783132916162,0,90,3.0,3,0.09686250163219827
3.67,0.3963882865005728,82.35949438977629,0,90,3.0,3,0.10019576061394407
3.675,0.4,82.92272050125938,0,90,3.0,3,0.11180867012905932
3.68,0.39638828650057273,83.68840901871987,0,90,3.0,3,0.12759606224164674
3.685,0.38574763795443656,84.53754420323767,0,90,3.0,3,0.14510400419046748
3.69,0.36864417891908974,85.39633568541677,0,90,3.0,3,0.16281104506013966
3.695,0.345965766895568,86.21263167382902,0,90,3.0,3,0.1796418901820417
3.7,0.3188456651783249,86.94400111651778,0,90,3.0,3,0.19472167250552128
3.705,0.28856891614190205,87.55366922329905,0,90,3.0,3,0.2072921489340011
3.71,0.2564721553719815,88.01051741167255,0,90,3.0,3,0.21671169920974334
3.715,0.22384764873847685,88.29064071476472,0,90,3.0,3,0.22248743741782928
3.72,0.19186090753201765,88.37908590635787,0,90,3.0,3,0.22431104961562623
3.725,0.16148868344343878,88.27108106749418,0,90,3.0,3,0.22208414572152949
3.73,0.1334809643017881,87.97243895422291,0,90,3.0,3,0.2159265763757301
3.735,0.10834733138818531,87.49903352177851,0,90,3.0,3,0.20616563962429926
3.74,0.08636519236690572,86.87540102954962,0,90,3.0,3,0.1933072377226726
3.745,0.06760532616242629,86.13263393075586,0,90,3.0,3,0.17799245218053317
3.75,0.05196904332202373,85.30581830970065,0,90,3.0,3,0.16094470741650835
3.755,0.03923107185803287,84.43130793834682,0,90,3.0,3,0.14291356573910968
3.76,0.02908287038705761,83.54412713946391,0,90,3.0,3,0.1246211781332765
3.765,0.02117220077308346,82.67575405176221,0,90,3.0,3,0.10671657838684973
3.77,0.0151361834125735,81.85246524967621,0,90,3.0,3,0.08974155153971576
3.775,0.010626454858290009,81.09433569642921,0,90,3.0,3,0.07411001435936519
3.78,0.007326255555493652,80.41489960725079,0,90,3.0,3,0.06010102282991316
3.785,0.004960179211183015,79.82140122596147,0,90,3.0,3,0.0478639428033292
3.79,0.0032978759379303545,79.31550922191167,0,90,3.0,3,0.03743317983323027
3.795,0.002153242296767213,78.89433892375651,0,90,3.0,3,0.02874925615992798
3.8,0.001380616732225004,78.55162253760454,0,90,3.0,3,0.02168293891968132
3.805,0.0008693106590991584,78.2788844993105,0,90,3.0,3,0.016059474212587486
3.81,0.000537524815942247,78.06651038946566,0,90,3.0,3,0.011680626586920876
3.815,0.0003263951340288585,77.90463583247852,0,90,3.0,3,0.008343006855227193
3.82,0.00019463030985187395,77.78381963757732,0,90,3.0,3,0.005851951290254096
3.825,0.00011397219555062695,77.69549793990778,0,90,3.0,3,0.004030885358923328
3.83,6.55403863487943e-05,77.63224022257143,0,90,3.0,3,0.0027266025272458896
3.835,3.701184389455385e-05,77.58784288682581,0,90,3.0,3,0.001811193542800231
3.84,2.0525516217290957e-05,77.55730219656536,0,90,3.0,3,0.0011814885889764846
3.845,1.1178128483661116e-05,77.53670773455,0,90,3.0,3,0.0007568605061856994
3.85,5.978135409912517e-06,77.52309221205127,0,90,3.0,3,0.00047612808353128506
3.855,3.1396702713238487e-06,77.5142657672254,0,90,3.0,3,0.00029413953042053764
3.86,1.6192875458531019e-06,77.50865458747553,0,90,3.0,3,0.00017844510258831027
3.865,8.201353897972012e-07,77.50515607531464,0,90,3.0,3,0.00010631083122978725
3.87,4.0791415086824765e-07,77.50301657255218,0,90,3.0,3,6.21973722099797e-05
3.875,1.9923866938774793e-07,77.50173312521085,0,90,3.0,3,3.5734540429848964e-05
3.88,9.556527981051257e-08,77.50097783988232,0,90,3.0,3,2.016164705823424e-05
3.885,4.501406988770349e-08,77.50054178527245,0,90,3.0,3,1.117083035971762e-05
3.89,0.001684486749771458,77.50029478697198,0,90,3.0,3,6.078081896445378e-06
3.895,0.004172395771277602,77.50015751104723,0,90,3.0,3,3.247650458443158e-06
3.9,0.009438687428818865,77.50008264857955,0,90,3.0,3,1.7040944237109704e-06
3.905,0.019500507867137046,77.50004258742786,0,90,3.0,3,8.780912960048095e-07
3.91,0.03679496976339974,77.50002155008909,0,90,3.0,3,4.443317337616688e-07
3.915,0.06340728953298436,77.50001070873992,0,90,3.0,3,2.207987612676981e-07
3.92,0.09979255396093453,77.50000522575824,0,90,3.0,3,1.0774759265793186e-07
3.925,0.14343835518453557,77.50000250427432,0,90,3.0,3,5.1634522069247225e-08
3.93,0.18829581417209276,77.50000117851775,0,90,3.0,3,2.4299335034380213e-08
3.935,0.2257481735193119,77.50000054464309,0,90,3.0,3,1.1229754354363397e-08
3.94,0.24718154073554727,77.50000024717782,0,90,3.0,3,5.096449960790816e-09
3.945,0.24718154074102772,77.5000001101612,0,90,3.0,3,2.2713648602277936e-09
3.95,0.22574817354072055,77.5000000482136,0,90,3.0,3,9.940947034620061e-10
3.955,0.18829581422840957,77.50000002072201,0,90,3.0,3,4.272579907283028e-10
3.96,0.14343835532456656,77.50000000874613,0,90,3.0,3,1.8033252325546256e-10
3.965,0.09979255431561854,77.50000000362512,0,90,3.0,3,7.474470069225681e-11
3.97,0.06340729067170194,77.50000000147553,0,90,3.0,3,3.0423242390394625e-11
3.975,0.03679497683410042,77.5000000005898,0,90,3.0,3,1.2160682541134614e-11
3.98,0.019500578284482293,77.50000000023151,0,90,3.0,3,4.773382147739296e-12
3.985,0.009439396781978427,77.50000000008924,0,90,3.0,3,1.8400859301333728e-12
3.99,0.004178588733610924,77.50000000003378,0,90,3.0,3,6.96478384701756e-13
3.995,0.0017299316936037381,77.50000000001256,0,90,3.0,3,2.590184653245066e-13
4.0,0.0008997325756988589,77.50000000000459,0,90,3.0,3,9.46413623301082e-14
4.005,0.001634769674224814,77.50000000000165,0,90,3.0,3,3.3988848390998606e-14
4.01,0.00614904736476635,77.50000000000058,0,90,3.0,3,1.2013299862335714e-14
4.015,0.02168080359963608,77.5000000000002,0,90,3.0,3,4.102102392017073e-15
4.02,0.06433400338904088,77.50000000000007,0,90,3.0,3,1.465036568577526e-15
4.025,0.1593410769217493,77.50000000000003,0,90,3.0,3,5.860146274310105e-16
4.03,0.3291989194808569,77.5,0,90,3.0,3,0.0
4.035,0.5672906802982638,77.5,0,90,3.0,3,0.0
4.04,0.815339152120446,77.5,0,90,3.0,3,0.0
4.045,0.9768711246313155,77.50000284154457,1,90,3.0,3,5.8588547859734405e-08
4.05,0.9726380909165361,77.5000053717146,0,90,3.0,3,1.1075700192038508e-07
4.055,0.7921091683291741,77.50001074298208,0,90,3.0,3,2.2150478524466606e-07
4.06,0.49139090102639077,77.50002348679206,0,90,3.0,3,4.842637538073627e-07
4.065,0.15739335672107918,77.50005697009982,0,90,3.0,3,1.1746412333992601e-06
4.07,-0.11102342218909485,77.50015058918197,0,90,3.0,3,3.1049315870189172e-06
4.075,-0.2314207883647528,77.50041701098533,0,90,3.0,3,8.598164645990409e-06
4.08,-0.2029124434754801,77.50116397212096,0,90,3.0,3,2.3999425174501196e-05
4.085,-0.11151350554305876,77.50318753865302,0,90,3.0,3,6.572244645408506e-05
4.09,-0.039430666652076896,77.5084286730719,0,90,3.0,3,0.00017378707364751163
4.095,-0.006087703519843621,77.52133349932207,0,90,3.0,3,0.0004398659654034723
4.1,0.005350271385530551,77.55144481044628,0,90,3.0,3,0.001060717741160502
4.105,0.010381647827441833,77.61790113559184,0,90,3.0,3,0.002430951249316211
4.11,0.015115203303506243,77.75645242828497,0,90,3.0,3,0.005287678933710787
4.115,0.021170964062928475,78.02903573913586,0,90,3.0,3,0.010907953384244619
4.12,0.029082821134029553,78.53459389389398,0,90,3.0,3,0.02133183286379348
4.125,0.03923107061708144,79.41759052329515,0,90,3.0,3,0.03953794893392055
4.13,0.051969043308817596,80.86806634460993,0,90,3.0,3,0.0694446668991738
4.135,0.06760532616283861,83.10540651559467,0,90,3.0,3,0.11557539207411682
4.14,0.08636519236693461,86.3392095926369,0,90,3.0,3,0.18225174417808052
4.145,0.10834733138818661,90.70649228025296,0,90,3.0,3,0.27229880990212285
4.15,0.1334809643017884,96.1949399697833,0,90,3.0,3,0.3854626797893465
4.155,0.16148868344343945,102.57400864906828,0,90,3.0,3,0.5169898690529542
4.16,0.191860907532018,109.36346526476575,0,90,3.0,3,0.656978665252902
4.165,0.22384764873847726,115.86591368470812,0,90,3.0,3,0.7910497666950127
4.17,0.25647215537198226,121.27294452158014,0,90,3.0,3,0.9025349385892814
4.175,0.2885689161419028,124.82763298613727,0,90,3.0,3,0.9758274842502531
4.18,0.31884566517832524,126.0,0,90,3.0,3,1.0
4.185,0.3459657668955683,124.61989252433693,0,90,3.0,3,0.9715441757595243
4.19,0.3686441789190902,120.92169697246845,0,90,3.0,3,0.8952927210818238
4.195,0.3857476379544367,115.48501558588413,0,90,3.0,3,0.7831961976470954
4.2,0.3963882865005728,109.09225998185437,0,90,3.0,3,0.6513868037495746
4.205,0.4,102.5515725266867,0,90,3.0,3,0.5165272685914784
4.21,0.39638828650057273,96.54013006952228,0,90,3.0,3,0.392580001433449
4.215,0.38574763795443656,91.50802050032742,0,90,3.0,3,0.2888251649552045
4.22,0.36864417891908974,87.65583209467765,0,90,3.0,3,0.2093985998902608
4.225,0.345965766895568,84.9730956654149,0,90,3.0,3,0.15408444670958563
4.23,0.3188456651783249,83.30975988570115,0,90,3.0,3,0.11978886362270422
4.235,0.28856891614190205,82.45172028278404,0,90,3.0,3,0.10209732541822758
4.24,0.2564721553719815,82.18025697684484,0,90,3.0,3,0.09650014385247103
4.245,0.22384764873847685,82.30741319769757,0,90,3.0,3,0.09912192160201176
4.25,0.19186090753201765,82.68926270610598,0,90,3.0,3,0.1069951073423913
4.255,0.16148868344343878,83.2241320744651,0,90,3.0,3,0.11802334174154852
4.26,0.1334809643017881,83.8435168279006,0,90,3.0,3,0.13079416140001238
4.265,0.10834733138818531,84.50150236715587,0,90,3.0,3,0.14436087354960547
4.27,0.08636519236690572,85.16587686988788,0,90,3.0,3,0.15805931690490477
4.275,0.06760532616242629,85.81199492104422,0,90,3.0,3,0.1713813385782313
4.28,0.05196904332202373,86.41920641796344,0,90,3.0,3,0.18390116325697808
4.285,0.03923107185803287,86.96917992923366,0,90,3.0,3,0.19524082328316827
4.29,0.02908287038705761,87.44541920646472,0,90,3.0,3,0.20506018982401486
4.295,0.02117220077308346,87.83342707600346,0,90,3.0,3,0.21306035208254556
4.3,0.0151361834125735,88.1211518756908,0,90,3.0,3,0.21899282217919175
4.305,0.010626454858290009,88.29949305211028,0,90,3.0,3,0.22266995983732535
4.31,0.007326255555493652,88.36273532154763,0,90,3.0,3,0.22397392415562128
4.315,0.004960179211183015,88.30883732354,0,90,3.0,3,0.22286262522762895
4.32,0.0032978759379303545,88.13953589889951,0,90,3.0,3,0.2193718742041136
4.325,0.002153242296767213,87.86025153974062,0,90,3.0,3,0.21361343380908487
4.33,0.001380616732225004,87.47979971200948,0,90,3.0,3,0.2057690662269996
4.335,0.0008693106590991584,87.00992868416755,0,90,3.0,3,0.19608100379726903
4.34,0.000537524815942247,86.46471740998916,0,90,3.0,3,0.18483953422658067
4.345,0.0003263951340288585,85.85987641344444,0,90,3.0,3,0.17236858584421524
4.35,0.00019463030985187395,85.21199997402755,0,90,3.0,3,0.15901030874283606
4.355,0.00011397219555062695,84.53781895883367,0,90,3.0,3,0.14510966925430244
4.36,6.55403863487943e-05,83.85350054309895,0,90,3.0,3,0.1310000111979164
4.365,3.701184389455385e-05,83.17403435574212,0,90,3.0,3,0.11699039908746645
4.37,2.0525516217290957e-05,82.51273515971924,0,90,3.0,3,0.10335536411792251
4.375,1.1178128483661116e-05,81.88088111637717,0,90,3.0,3,0.09032744569849831
4.38,5.978135409912517e-06,81.28749514724962,0,90,3.0,3,0.07809268344844567
4.385,3.1396702713238487e-06,80.73926599081013,0,90,3.0,3,0.0667889895012397
4.39,1.6192875458531019e-06,80.24059617216766,0,90,3.0,3,0.05650713757046714
4.395,8.201353897972012e-07,79.79375691779815,0,90,3.0,3,0.047293957068003066
4.4,4.0791415086824765e-07,79.39912541232576,0,90,3.0,3,0.039157224996407405
4.405,1.9923866938774793e-07,79.05547776723587,0,90,3.0,3,0.032071706540945794
4.41,9.556527981051257e-08,78.76031144478318,0,90,3.0,3,0.025985802985220293
4.415,4.501406988770349e-08,78.51017324373844,0,90,3.0,3,0.02082831430388527
4.42,0.0,78.30097276926729,0,90,3.0,3,0.016514902459119376
4.425,0.0,78.12826599064017,0,90,3.0,3,0.01295393795134378
4.43,0.0,77.98749847302761,0,90,3.0,3,0.010051514907785854
4.435,0.0,77.87420266617133,0,90,3.0,3,0.007715518890130479
4.44,0.0,77.78414786970576,0,90,3.0,3,0.005858718963005411
4.445,0.0,77.71344492859065,0,90,3.0,3,0.004400926362693753
4.45,0.0,77.6586102266577,0,90,3.0,3,0.0032703139517051565
4.455,0.0,77.61659513782196,0,90,3.0,3,0.0024040234602466038
4.46,0.0,77.58478784625699,0,90,3.0,3,0.0017482030156079722
4.465,0.0,77.56099450010981,0,90,3.0,3,0.001257618558965237
4.47,0.0,77.54340618910628,0,90,3.0,3,0.000894972971263469
4.475,0.0,77.53055741054968,0,90,3.0,3,0.0006300497020551748
4.48,0.0,77.521280672553,0,90,3.0,3,0.0004387767536701931
4.485,0.0,77.51466081314214,0,90,3.0,3,0.0003022848070544963
4.49,0.0,77.50999159166291,0,90,3.0,3,0.0002060121992352594
4.495,0.0,77.5067362035906,0,90,3.0,3,0.00013889079568259346
4.5,0.0,77.50449261953548,0,90,3.0,3,9.263133062852165e-05
4.505,0.0,77.50296406680117,0,90,3.0,3,6.11147794055557e-05
4.51,0.0,77.50193455126167,0,90,3.0,3,3.988765487978404e-05
4.515,0.0,77.5012490401714,0,90,3.0,3,2.5753405595913737e-05
4.52,0.0,77.50079776775692,0,90,3.0,3,1.644881973034083e-05
4.525,0.0,77.50050405794217,0,90,3.0,3,1.0392947261154929e-05
4.53,0.0,77.50031505643443,0,90,3.0,3,6.496008957339617e-06
4.535,0.0,77.5001948050246,0,90,3.0,3,4.016598445477752e-06
4.54,0.0,77.5001191559859,0,90,3.0,3,2.456824451536301e-06
4.545,0.0,77.5000721000363,0,90,3.0,3,1.4865986867166095e-06
4.55,0.0,77.50004315777153,0,90,3.0,3,8.898509593601591e-07
4.555,0.0,77.5000255556216,0,90,3.0,3,5.269200330859189e-07
4.56,0.0,77.50001496986195,0,90,3.0,3,3.086569474418735e-07
4.565,0.0,77.50000867467178,0,90,3.0,3,1.788592118673384e-07
4.57,0.0,77.5000049726995,0,90,3.0,3,1.0252988660148421e-07
4.575,0.001684486749771458,77.50000281991028,0,90,3.0,3,5.8142479971494826e-08
4.58,0.004172395771277602,77.50000158191183,0,90,3.0,3,3.261673879895864e-08
4.585,0.009438687428818865,77.50000087787598,0,90,3.0,3,1.810053559499475e-08
4.59,0.019500507867137046,77.50000048193445,0,90,3.0,3,9.936792776926202e-09
4.595,0.03679496976339974,77.50000026172589,0,90,3.0,3,5.3964100450534765e-09
4.6,0.06340728953298436,77.50000014060777,0,90,3.0,3,2.899129220768185e-09
4.605,0.09979255396093453,77.5000000747267,0,90,3.0,3,1.540756690617142e-09
4.61,0.14343835518453557,77.50000003928676,0,90,3.0,3,8.100362992053372e-10
4.615,0.18829581417209276,77.50000002043245,0,90,3.0,3,4.212876737040357e-10
4.62,0.2257481735193119,77.50000001051232,0,90,3.0,3,2.1674893724059412e-10
4.625,0.24718154073554727,77.50000000535033,0,90,3.0,3,1.1031608158463286e-10
4.63,0.24718154074102772,77.50000000269381,0,90,3.0,3,5.5542466387911174e-11
4.635,0.22574817354072055,77.5000000013417,0,90,3.0,3,2.766399251713571e-11
4.64,0.18829581422840957,77.50000000066107,0,90,3.0,3,1.3630407226731589e-11
4.645,0.14343835532456656,77.50000000032222,0,90,3.0,3,6.643647831185366e-12
4.65,0.09979255431561854,77.50000000015537,0,90,3.0,3,3.2034489608516187e-12
4.655,0.06340729067170194,77.50000000007411,0,90,3.0,3,1.5280331410263597e-12
4.66,0.03679497683410042,77.50000000003497,0,90,3.0,3,7.210909990538583e-13
4.665,0.019500578284482293,77.50000000001633,0,90,3.0,3,3.3666540345911553e-13
4.67,0.009439396781978427,77.50000000000753,0,90,3.0,3,1.5529387626921778e-13
4.675,0.004178588733610924,77.50000000000344,0,90,3.0,3,7.090776991915227e-14
4.68,0.0017299316936037381,77.50000000000155,0,90,3.0,3,3.193779719499007e-14
4.685,0.0008997325756988589,77.5000000000007,0,90,3.0,3,1.4357358372059756e-14
4.69,0.001634769674224814,77.50000000000031,0,90,3.0,3,6.446160901741115e-15
4.695,0.00614904736476635,77.50000000000013,0,90,3.0,3,2.637065823439547e-15
4.7,0.02168080359963608,77.50000000000006,0,90,3.0,3,1.172029254862021e-15
4.705,0.06433400338904088,77.50000000000003,0,90,3.0,3,5.860146274310105e-16
4.71,0.1593410769217493,77.50000000000001,0,90,3.0,3,2.9300731371550523e-16
4.715,0.3291989194808569,77.5,0,90,3.0,3,0.0
4.72,0.5672906802982638,77.5,0,90,3.0,3,0.0
4.725,0.815339152120446,77.5,0,90,3.0,3,0.0
4.73,0.9768711246313155,77.50000285700571,1,90,3.0,3,5.890733424991792e-08
4.735,0.9726380909165361,77.5000055981037,0,90,3.0,3,1.1542481851411701e-07
4.74,0.7921091683291741,77.50001170193522,0,90,3.0,3,2.412770148805872e-07
4.745,0.49139090102639077,77.5000270882034,0,90,3.0,3,5.585196576478281e-07
4.75,0.15739335672107918,77.50007030382385,0,90,3.0,3,1.4495633782883385e-06
4.755,-0.11102342218909485,77.50019904185636,0,90,3.0,3,4.1039558012827685e-06
4.76,-0.2314207883647528,77.50058607134292,0,90,3.0,3,1.2083945214904703e-05
4.765,-0.2029124434754801,77.50172157287263,0,90,3.0,3,3.549634788918851e-05
4.77,-0.11151350554305876,77.50491227303426,0,90,3.0,3,0.00010128398008792904
4.775,-0.039430666652076896,77.51341548520728,0,90,3.0,3,0.00027660794241804996
4.78,-0.006087703519843621,77.53479767151332,0,90,3.0,3,0.0007174777631611781
4.785,0.005350271385530551,77.58538694566,0,90,3.0,3,0.001760555580618663
4.79,0.010381647827441833,77.69780421918405,0,90,3.0,3,0.004078437508949487
4.795,0.015115203303506243,77.93212374321509,0,90,3.0,3,0.008909767901341991
4.8,0.021170964062928475,78.38971621807644,0,90,3.0,3,0.018344664290235957
4.805,0.029082821134029553,79.22592550239746,0,90,3.0,3,0.035586092832937295
4.81,0.03923107061708144,80.65382694330745,0,90,3.0,3,0.06502735965582372
4.815,0.051969043308817596,82.92814688244911,0,90,3.0,3,0.1119205542773013
4.82,0.06760532616283861,86.29905479142072,0,90,3.0,4,0.1814238101323859
4.825,0.08636519236693461,90.93310591840898,0,90,3.0,4,0.27697125604966977
4.83,0.10834733138818661,96.81375736041753,0,90,3.0,4,0.3982218012457222
4.835,0.1334809643017884,103.65218979533569,0,90,3.0,4,0.5392204081512513
4.84,0.16148868344343945,110.85098906485283,0,90,3.0,4,0.6876492590691304
4.845,0.191860907532018,117.55776115670236,0,90,3.0,4,0.8259332197258218
4.85,0.22384764873847726,122.81835656489098,0,90,3.0,4,0.9343991044307418
4.855,0.25647215537198226,125.79775358536652,0,90,3.0,4,0.9958299708322994
4.86,0.2885689161419028,126.0,0,90,3.0,4,1.0
4.865,0.31884566517832524,123.40809829602208,0,90,3.0,4,0.9465587277530325
4.87,0.3459657668955683,118.49003065599916,0,90,3.0,4,0.8451552712577147
4.875,0.3686441789190902,112.06852813875727,0,90,3.0,4,0.71275315750015
4.88,0.3857476379544367,105.10477932098621,0,90,3.0,4,0.5691707076492002
4.885,0.3963882865005728,98.47443100842273,0,90,3.0,4,0.4324624950190253
4.89,0.4,92.8066072912793,0,90,3.0,4,0.3156001503356558
4.895,0.39638828650057273,88.42148372327156,0,90,3.0,4,0.2251852314076611
4.9,0.38574763795443656,85.35990241659837,0,90,3.0,4,0.16205984364120357
4.905,0.36864417891908974,83.46944358620377,0,90,3.0,4,0.12308131105574777
4.91,0.345965766895568,82.50409108932574,0,90,3.0,4,0.1031771358623864
4.915,0.3188456651783249,82.20538889595129,0,90,3.0,4,0.09701832775157294
4.92,0.28856891614190205,82.35118221387862,0,90,3.0,4,0.10002437554388899
4.925,0.2564721553719815,82.77370137387766,0,90,3.0,4,0.10873611080160117
4.93,0.22384764873847685,83.35697885227354,0,90,3.0,4,0.12076245056234107
4.935,0.19186090753201765,84.0246919330554,0,90,3.0,4,0.13452973057846174
4.94,0.16148868344343878,84.72653191551647,0,90,3.0,4,0.1490006580518861
4.945,0.1334809643017881,85.42725699479512,0,90,3.0,4,0.16344859783082713
4.95,0.10834733138818531,86.09955203844497,0,90,3.0,4,0.17731035130814368
4.955,0.08636519236690572,86.72019234262434,0,90,3.0,4,0.1901070586108112
4.96,0.06760532616242629,87.26848870696234,0,90,3.0,4,0.20141213828788337
4.965,0.05196904332202373,87.72606423286395,0,90,3.0,4,0.21084668521368966
4.97,0.03923107185803287,88.07728034294114,0,90,3.0,4,0.2180882544936317
4.975,0.02908287038705761,88.30988433026353,0,90,3.0,4,0.22288421299512431
4.98,0.02117220077308346,88.41562988670005,0,90,3.0,4,0.2250645337463927
4.985,0.0151361834125735,88.39073171494468,0,90,3.0,4,0.22455116938030265
4.99,0.010626454858290009,88.23608061227844,0,90,3.0,4,0.2213624868511019
4.995,0.007326255555493652,87.95718762032197,0,90,3.0,4,0.2156121158829273
5.0,0.004960179211183015,87.56385719193653,0,90,3.0,4,0.20750221014302134
5.005,0.0032978759379303545,87.06961485035202,0,90,3.0,4,0.19731164639901083
5.01,0.002153242296767213,86.49093547163766,0,90,3.0,4,0.18538011281727124
5.015,0.001380616732225004,85.84633343081921,0,90,3.0,4,0.17208934908905596
5.02,0.0008693106590991584,85.15538449808108,0,90,3.0,4,0.15784297934187785
5.025,0.000537524815942247,84.43775108996621,0,90,3.0,4,0.14304641422610748
5.03,0.0003263951340288585,83.71227751571944,0,90,3.0,4,0.12808819620040074
5.035,0.00019463030985187395,82.99621117057644,0,90,3.0,4,0.11332394166136998
5.04,0.00011397219555062695,82.30459074772966,0,90,3.0,4,0.09906372675731262
5.045,6.55403863487943e-05,81.64982534565863,0,90,3.0,4,0.08556340918883767
5.05,3.701184389455385e-05,81.04147079905813,0,90,3.0,4,0.0730200164754254
5.055,2.0525516217290957e-05,80.4861934573874,0,90,3.0,4,0.06157099912138971
5.06,1.1178128483661116e-05,79.98789840738041,0,90,3.0,4,0.05129687437897759
5.065,5.978135409912517e-06,79.54798972143004,0,90,3.0,4,0.04222659219443386
5.07,3.1396702713238487e-06,79.1657251050575,0,90,3.0,4,0.03434484752695885
5.075,1.6192875458531019e-06,78.83862619104653,0,90,3.0,4,0.027600540021577923
5.08,8.201353897972012e-07,78.5629081394647,0,90,3.0,4,0.021915631741540122
5.085,4.0791415086824765e-07,78.33389731528789,0,90,3.0,4,0.017193759078100723
5.09,1.9923866938774793e-07,78.14641264967727,0,90,3.0,4,0.013328095869634505
5.095,9.556527981051257e-08,77.9950938659425,0,90,3.0,4,0.010208120947267908
5.1,4.501406988770349e-08,77.87466719823882,0,90,3.0,4,0.007725096870903608
5.105,0.0,77.78014587226397,0,90,3.0,4,0.00577620355183448
5.11,0.0,77.7069680038797,0,90,3.0,4,0.004267381523292672
5.115,0.0,77.651078485453,0,90,3.0,4,0.0031150203186185305
5.12,0.0,77.6089638555516,0,90,3.0,4,0.0022466774340534693
5.125,0.0,77.57765022693218,0,90,3.0,4,0.0016010356068490341
5.13,0.0,77.55467432434818,0,90,3.0,4,0.0011273056566635917
5.135,0.0,77.53803685039938,0,90,3.0,4,0.0007842649566882334
5.14,0.0,77.52614605077103,0,90,3.0,4,0.0005390938303305668
5.145,0.0,77.5177577558228,0,90,3.0,4,0.0003661392953154532
5.15,0.0,77.51191654857978,0,90,3.0,4,0.000245702032572712
5.155,0.0,77.507901204888,0,90,3.0,4,0.0001629114409896965
5.16,0.0,77.5051762660216,0,90,3.0,4,0.00010672713446612442
5.165,0.0,77.50335058222204,0,90,3.0,4,6.908416952660915e-05
5.17,0.0,77.50214291231161,0,90,3.0,4,4.4183759002311787e-05
5.175,0.0,77.50135415677913,0,90,3.0,4,2.792075833256313e-05
5.18,0.0,77.50084550060859,0,90,3.0,4,1.7433002238989895e-05
5.185,0.0,77.50052160209725,0,90,3.0,4,1.075468241754972e-05
5.19,0.0,77.50031793999378,0,90,3.0,4,6.555463789233549e-06
5.195,0.0,77.50019148352861,0,90,3.0,4,3.948113991960669e-06
5.2,0.0,77.50011394574456,0,90,3.0,4,2.3493967950292517e-06
5.205,0.0,77.50006699543745,0,90,3.0,4,1.381349225776202e-06
5.21,0.0,77.50003891999467,0,90,3.0,4,8.024741168107361e-07
5.215,0.0,77.50002233987531,0,90,3.0,4,4.6061598587565985e-07
5.22,0.0,77.5000126697821,0,90,3.0,4,2.6123262050673147e-07
5.225,0.001684486749771458,77.50000709966693,0,90,3.0,4,1.4638488517110878e-07
5.23,0.004172395771277602,77.50000393085688,0,90,3.0,4,8.104859540891112e-08
5.235,0.009438687428818865,77.50000215038844,0,90,3.0,4,4.433790597441029e-08
5.24,0.019500507867137046,77.50000116232353,0,90,3.0,4,2.3965433568911375e-08
5.245,0.03679496976339974,77.50000062075121,0,90,3.0,4,1.2798993992939508e-08
5.25,0.06340728953298436,77.50000032755825,0,90,3.0,4,6.7537784391404165e-09
5.255,0.09979255396093453,77.50000017078115,0,90,3.0,4,3.52126080870971e-09
5.26,0.14343835518453557,77.50000008797753,0,90,3.0,4,1.8139696022472824e-09
5.265,0.18829581417209276,77.50000004478,0,90,3.0,4,9.232988623366931e-10
5.27,0.2257481735193119,77.50000002252042,0,90,3.0,4,4.6433865229362745e-10
5.275,0.24718154073554727,77.50000001119051,0,90,3.0,4,2.3073212527303918e-10
5.28,0.24718154074102772,77.50000000549419,0,90,3.0,4,1.1328219462137492e-10
5.285,0.22574817354072055,77.50000000266525,0,90,3.0,4,5.495352168734301e-11
5.29,0.18829581422840957,77.50000000127747,0,90,3.0,4,2.6339599459141628e-11
5.295,0.14343835532456656,77.50000000060498,0,90,3.0,4,1.247390735949649e-11
5.3,0.09979255431561854,77.5000000002831,0,90,3.0,4,5.83699869652658e-12
5.305,0.06340729067170194,77.50000000013088,0,90,3.0,4,2.698597359319803e-12
5.31,0.03679497683410042,77.50000000005979,0,90,3.0,4,1.2326817688011305e-12
5.315,0.019500578284482293,77.50000000002699,0,90,3.0,4,5.564208887457445e-13
5.32,0.009439396781978427,77.50000000001204,0,90,3.0,4,2.481771947170329e-13
5.325,0.004178588733610924,77.5000000000053,0,90,3.0,4,1.0929172801588345e-13
5.33,0.0017299316936037381,77.5000000000023,0,90,3.0,4,4.746718482191185e-14
5.335,0.0008997325756988589,77.500000000001,0,90,3.0,4,2.0510511960085366e-14
5.34,0.001634769674224814,77.50000000000043,0,90,3.0,4,8.790219411465157e-15
5.345,0.00614904736476635,77.50000000000017,0,90,3.0,4,3.516087764586063e-15
5.35,0.02168080359963608,77.50000000000007,0,90,3.0,4,1.465036568577526e-15
5.355,0.06433400338904088,77.50000000000003,0,90,3.0,4,5.860146274310105e-16
5.36,0.1593410769217493,77.50000000000001,0,90,3.0,4,2.9300731371550523e-16
5.365,0.3291989194808569,77.5,0,90,3.0,4,0.0
5.37,0.5672906802982638,77.5,0,90,3.0,4,0.0
5.375,0.815339152120446,77.5,0,90,3.0,4,0.0
5.38,0.9768711246313155,77.50000284164666,1,90,3.0,4,5.859065282427614e-08
5.385,0.9726380909165361,77.50000513541534,0,90,3.0,4,1.0588485228132395e-07
5.39,0.7921091683291741,77.50000972533142,0,90,3.0,4,2.0052229739665507e-07
5.395,0.49139090102639077,77.50001983204943,0,90,3.0,4,4.089082357115762e-07
5.4,0.15739335672107918,77.50004425244363,0,90,3.0,4,9.124215181337914e-07
5.405,-0.11102342218909485,77.50010715796503,0,90,3.0,4,2.2094425779981713e-06
5.41,-0.2314207883647528,77.5002735884935,0,90,3.0,4,5.640999865963562e-06
5.415,-0.2029124434754801,77.50071229869842,0,90,3.0,4,1.4686571101384692e-05
5.42,-0.11151350554305876,77.50184192436068,0,90,3.0,4,3.797782186960334e-05
5.425,-0.039430666652076896,77.50465058308532,0,90,3.0,4,9.588831103756842e-05
5.43,-0.006087703519843621,77.51135048292498,0,90,3.0,4,0.00023403057577282423
5.435,0.005350271385530551,77.52662836067672,0,90,3.0,4,0.0005490383644685481
5.44,0.010381647827441833,77.55986008283949,0,90,3.0,4,0.0012342285121544779
5.445,0.015115203303506243,77.62871615943192,0,90,3.0,4,0.002653941431585923
5.45,0.021170964062928475,77.76448507889882,0,90,3.0,4,0.005453300595851858
5.455,0.029082821134029553,78.0190308444065,0,90,3.0,4,0.010701666894979403
5.46,0.03923107061708144,78.47243990533991,0,90,3.0,4,0.020050307326596104
5.465,0.051969043308817596,79.23909047325527,0,90,3.0,4,0.03585753553103658
5.47,0.06760532616283861,80.468368163272,0,90,3.0,4,0.06120346728395884
5.475,0.08636519236693461,82.33522248926154,0,90,3.0,4,0.09969530905693896
5.48,0.10834733138818661,85.01619319399947,0,90,3.0,4,0.15497305554638083
5.485,0.1334809643017884,88.64936492577402,0,90,3.0,4,0.2298838129025572
5.49,0.16148868344343945,93.28217293658074,0,90,3.0,4,0.32540562755836566
5.495,0.191860907532018,98.81798972078323,0,90,3.0,4,0.4395461798099635
5.5,0.22384764873847726,104.97837403835521,0,90,3.0,4,0.5665644131619632
5.505,0.25647215537198226,111.29935597736814,0,90,3.0,4,0.6968939376776936
5.51,0.2885689161419028,117.17453906786568,0,90,3.0,4,0.8180317333580552
5.515,0.31884566517832524,121.94509813663508,0,90,3.0,4,0.9163937760130945
5.52,0.3459657668955683,125.02047608087008,0,90,3.0,4,0.9798036305334038
5.525,0.3686441789190902,126.0,0,90,3.0,4,1.0
5.53,0.3857476379544367,124.76110192272094,0,90,3.0,4,0.9744557097468235
5.535,0.3963882865005728,121.4875182790804,0,90,3.0,4,0.9069591397748537
5.54,0.4,116.6287058194931,0,90,3.0,4,0.8067774395771774
5.545,0.39638828650057273,110.80301806039404,0,90,3.0,4,0.6866601661936915
5.55,0.38574763795443656,104.67357444072778,0,90,3.0,4,0.5602798853758304
5.555,0.36864417891908974,98.83118480258737,0,90,3.0,4,0.43981824335231695
5.56,0.345965766895568,93.71212167075892,0,90,3.0,4,0.334270549912555
5.565,0.3188456651783249,89.56393789015415,0,90,3.0,4,0.24874098742585876
5.57,0.28856891614190205,86.45649610709219,0,90,3.0,4,0.18467002282664313
5.575,0.2564721553719815,84.3238267777099,0,90,3.0,4,0.14069745933422467
5.58,0.22384764873847685,83.01824586008357,0,90,3.0,4,0.11377826515636222
5.585,0.19186090753201765,82.3607250432506,0,90,3.0,4,0.10022113491238344
5.59,0.16148868344343878,82.17790417755486,0,90,3.0,4,0.09645163252690443
5.595,0.1334809643017881,82.32301424983154,0,90,3.0,4,0.09944359278003184
5.6,0.10834733138818531,82.68299482340544,0,90,3.0,4,0.10686587264753479
5.605,0.08636519236690572,83.17642932367355,0,90,3.0,4,0.11703977986955764
5.61,0.06760532616242629,83.747005124037,0,90,3.0,4,0.12880422936158767
5.615,0.05196904332202373,84.35601615827898,0,90,3.0,4,0.1413611579026593
5.62,0.03923107185803287,84.97590794405919,0,90,3.0,4,0.1541424318362719
5.625,0.02908287038705761,85.58561130572897,0,90,3.0,4,0.16671363516966958
5.63,0.02117220077308346,86.1676328734186,0,90,3.0,4,0.17871407986430096
5.635,0.0151361834125735,86.70652267302486,0,90,3.0,4,0.18982520975308997
5.64,0.010626454858290009,87.18827313384817,0,90,3.0,4,0.1997582089453231
5.645,0.007326255555493652,87.6002732574449,0,90,3.0,4,0.20825305685453396
5.65,0.004960179211183015,87.93154771974346,0,90,3.0,4,0.21508345813904048
5.655,0.0032978759379303545,88.17310463785162,0,90,3.0,4,0.22006401315157983
5.66,0.002153242296767213,88.31828322100691,0,90,3.0,4,0.22305738600014244
5.665,0.001380616732225004,88.36303606968106,0,90,3.0,4,0.22398012514806306
5.67,0.0008693106590991584,88.30610811938153,0,90,3.0,4,0.22280635297693885
5.675,0.000537524815942247,88.14909210780685,0,90,3.0,4,0.2195689094393165
5.68,0.0003263951340288585,87.89635352979845,0,90,3.0,4,0.2143578047381123
5.685,0.00019463030985187395,87.55482865987335,0,90,3.0,4,0.2073160548427495
5.69,0.00011397219555062695,87.13370820829557,0,90,3.0,4,0.19863315893392935
5.695,6.55403863487943e-05,86.64402658647539,0,90,3.0,4,0.18853663064897713
5.7,3.701184389455385e-05,86.09818233591776,0,90,3.0,4,0.1772821100189228
5.705,2.0525516217290957e-05,85.50941874168905,0,90,3.0,4,0.1651426544678154
5.71,1.1178128483661116e-05,84.89129484704627,0,90,3.0,4,0.15239783189786119
5.715,5.978135409912517e-06,84.25717603311269,0,90,3.0,4,0.13932321717758114
5.72,3.1396702713238487e-06,83.61977023968812,0,90,3.0,4,0.1261808296842912
5.725,1.6192875458531019e-06,82.99073116007229,0,90,3.0,4,0.11321095175406776
5.73,8.201353897972012e-07,82.38034384450859,0,90,3.0,4,0.10062564627852758
5.735,4.0791415086824765e-07,81.79730165774147,0,90,3.0,4,0.08860415789157672
5.74,1.9923866938774793e-07,81.24857702449877,0,90,3.0,4,0.07729024792780972
5.745,9.556527981051257e-08,80.73938237949095,0,90,3.0,4,0.06679138926785459
5.75,4.501406988770349e-08,80.27321263676781,0,90,3.0,4,0.05717964199521256
5.755,0.0,79.85195660178154,0,90,3.0,4,0.04849395055219666
5.76,0.0,79.47606222315747,0,90,3.0,4,0.04074355099293753
5.765,0.0,79.14473943737704,0,90,3.0,4,0.03391215334798022
5.77,0.0,78.85618449458457,0,90,3.0,4,0.027962566898650884
5.775,0.0,78.60781086922685,0,90,3.0,4,0.022841461221172223
5.78,0.0,78.39647389480362,0,90,3.0,4,0.018483997831002474
5.785,0.0,78.21867882903723,0,90,3.0,4,0.014818120186334651
5.79,0.0,78.07076486884718,0,90,3.0,4,0.011768347811282017
5.795,0.0,77.94906043727421,0,90,3.0,4,0.009258978088128096
5.8,0.0,77.85000764806028,0,90,3.0,4,0.007216652537325449
5.805,0.0,77.77025606689202,0,90,3.0,4,0.005572290039010662
5.81,0.0,77.706727640736,0,90,3.0,4,0.00426242558218568
5.815,0.0,77.65665592416397,0,90,3.0,4,0.003230019054927235
5.82,0.0,77.61760350788578,0,90,3.0,4,0.002424814595582992
5.825,0.0,77.58746190000828,0,90,3.0,4,0.0018033381445005938
5.83,0.0,77.5644380986904,0,90,3.0,4,0.001328620591554691
5.835,0.0,77.54703181144795,0,90,3.0,4,0.0009697280710917753
5.84,0.0,77.53400680827698,0,90,3.0,4,0.000701171304680096
5.845,0.0,77.52435932323314,0,90,3.0,4,0.0005022540872812794
5.85,0.0,77.51728581027695,0,90,3.0,4,0.00035640845931846006
5.855,0.0,77.51215176729428,0,90,3.0,4,0.0002505519029749352
5.86,0.0,77.5084628048222,0,90,3.0,4,0.00017449082107632
5.865,0.0,77.50583867610601,0,90,3.0,4,0.00012038507435070492
5.87,0.0,77.50399061307752,0,90,3.0,4,8.228068201070837e-05
5.875,0.0,77.50270202919619,0,90,3.0,4,5.571194218940449e-05
5.88,0.0,77.50181244831914,0,90,3.0,4,3.7370068435934955e-05
5.885,0.0,77.50120438795803,0,90,3.0,4,2.4832741402600658e-05
5.89,0.0,77.50079285241956,0,90,3.0,4,1.6347472568347174e-05
5.895,0.0,77.50051706302851,0,90,3.0,4,1.0661093371355332e-05
5.9,0.0,77.50033405639782,0,90,3.0,4,6.8877607797623064e-06
5.905,0.0,77.50021380668517,0,90,3.0,4,4.408385261177903e-06
5.91,0.0,77.50013556511455,0,90,3.0,4,2.7951570009768194e-06
5.915,0.0,77.5000851529678,0,90,3.0,4,1.7557312948198517e-06
5.92,0.0,77.50005298791253,0,90,3.0,4,1.0925342788717917e-06
5.925,0.0,77.50003266472537,0,90,3.0,4,6.73499492107759e-07
5.93,0.0,77.50001994832292,0,90,3.0,4,4.113056271195354e-07
5.935,0.0,77.50001206865707,0,90,3.0,4,2.48838290124545e-07
5.94,0.0,77.5000072333034,0,90,3.0,4,1.4914027643105337e-07
5.945,0.0,77.5000042947669,0,90,3.0,4,8.855189476074059e-08
5.95,0.0,77.50000252619976,0,90,3.0,4,5.208659309133022e-08
5.955,0.0,77.50000147204457,0,90,3.0,4,3.035143450200774e-08
5.96,0.001684486749771458,77.50000084976611,0,90,3.0,4,1.7520950720055908e-08
5.965,0.004172395771277602,77.50000048596281,0,90,3.0,4,1.001985185315245e-08
5.97,0.009438687428818865,77.50000027531625,0,90,3.0,4,5.676623780430221e-09
5.975,0.019500507867137046,77.50000015452041,0,90,3.0,4,3.1859877760053704e-09
5.98,0.03679496976339974,77.50000008591421,0,90,3.0,4,1.771426991346987e-09
5.985,0.06340728953298436,77.50000004732269,0,90,3.0,4,9.757254889505535e-10
5.99,0.09979255396093453,77.50000002582253,0,90,3.0,4,5.324232967451309e-10
5.995,0.14343835518453557,77.50000001395898,0,90,3.0,4,2.878140520872116e-10
6.0,0.18829581417209276,77.50000000747538,0,90,3.0,4,1.5413151625570837e-10
6.005,0.2257481735193119,77.50000000396587,0,90,3.0,4,8.177043006052719e-11
6.01,0.24718154073554727,77.50000000208433,0,90,3.0,4,4.2975968717280584e-11
6.015,0.24718154074102772,77.50000000108524,0,90,3.0,4,2.2376089526511988e-11
6.02,0.22574817354072055,77.50000000055977,0,90,3.0,4,1.1541558087253752e-11
6.025,0.18829581422840957,77.50000000028602,0,90,3.0,5,5.897358203151974e-12
6.03,0.14343835532456656,77.5000000001448,0,90,3.0,5,2.9854515194472828e-12
6.035,0.09979255431561854,77.5000000000726,0,90,3.0,5,1.4969743657725163e-12
6.04,0.06340729067170194,77.50000000003607,0,90,3.0,5,7.436525622099523e-13
6.045,0.03679497683410042,77.50000000001775,0,90,3.0,5,3.6596613483066605e-13
6.05,0.019500578284482293,77.50000000000865,0,90,3.0,5,1.7844145405274268e-13
6.055,0.009439396781978427,77.50000000000418,0,90,3.0,5,8.614415023235853e-14
6.06,0.004178588733610924,77.500000000002,0,90,3.0,5,4.1314031233886236e-14
6.065,0.0017299316936037381,77.50000000000095,0,90,3.0,5,1.963149001893885e-14
6.07,0.0008997325756988589,77.50000000000044,0,90,3.0,5,9.083226725180661e-15
6.075,0.001634769674224814,77.50000000000021,0,90,3.0,5,4.395109705732579e-15
6.08,0.00614904736476635,77.5000000000001,0,90,3.0,5,2.0510511960085364e-15
6.085,0.02168080359963608,77.50000000000004,0,90,3.0,5,8.790219411465157e-16
6.09,0.06433400338904088,77.50000000000001,0,90,3.0,5,2.9300731371550523e-16
6.095,0.1593410769217493,77.50000000000001,0,90,3.0,5,2.9300731371550523e-16
6.1,0.3291989194808569,77.5,0,90,3.0,5,0.0
6.105,0.5672906802982638,77.5,0,90,3.0,5,0.0
6.11,0.815339152120446,77.5,0,90,3.0,5,0.0
6.115,0.9768711246313155,77.50000284150002,1,90,3.0,5,5.858762928180591e-08
6.12,0.9726380909165361,77.5000055087254,0,90,3.0,5,1.1358196688794948e-07
6.125,0.7921091683291741,77.50001136395807,0,90,3.0,5,2.3430841373428661e-07
6.13,0.49139090102639077,77.50002585890292,0,90,3.0,5,5.331732559967612e-07
6.135,0.15739335672107918,77.50006577270929,0,90,3.0,5,1.356138335905626e-06
6.14,-0.11102342218909485,77.50018247875063,0,90,3.0,5,3.76244846661487e-06
6.145,-0.2314207883647528,77.50052776496497,0,90,3.0,5,1.0881751855078582e-05
6.15,-0.2029124434754801,77.50152756139154,0,90,3.0,5,3.1496111165786474e-05
6.155,-0.11151350554305876,77.50430755613382,0,90,3.0,5,8.88155903881271e-05
6.16,-0.039430666652076896,77.5116563600092,0,90,3.0,5,0.00024033731977727622
6.165,-0.006087703519843621,77.53002739545968,0,90,3.0,5,0.0006191215558697577
6.17,0.005350271385530551,77.57333096905042,0,90,3.0,5,0.0015119787433075698
6.175,0.010381647827441833,77.66940490223725,0,90,3.0,5,0.0034928845822112743
6.18,0.015115203303506243,77.86976747664984,0,90,3.0,5,0.007624071683501874
6.185,0.021170964062928475,78.26211431813414,0,90,3.0,5,0.01571369728111625
6.19,0.029082821134029553,78.98267513398078,0,90,3.0,5,0.03057062131919128
6.195,0.03923107061708144,80.22218766058688,0,90,3.0,5,0.05612758063065738
6.2,0.051969043308817596,82.21612057642412,0,90,3.0,5,0.09723959951389932
6.205,0.06760532616283861,85.20932922752098,0,90,3.0,5,0.15895524180455634
6.21,0.08636519236693461,89.39039798617173,0,90,3.0,5,0.24516284507570588
6.215,0.10834733138818661,94.8028006534978,0,90,3.0,5,0.35675877636077935
6.22,0.1334809643017884,101.25612781731577,0,90,3.0,5,0.48981706839826333
6.225,0.16148868344343945,108.27370857382006,0,90,3.0,5,0.6345094551303105
6.23,0.191860907532018,115.11341104223824,0,90,3.0,5,0.775534248293572
6.235,0.22384764873847726,120.88000833622657,0,90,3.0,5,0.8944331615716817
6.24,0.25647215537198226,124.71329532894552,0,90,3.0,5,0.9734700067823818
6.245,0.2885689161419028,126.0,0,90,3.0,5,1.0
6.25,0.31884566517832524,124.53834900968857,0,90,3.0,5,0.9698628661791459
6.255,0.3459657668955683,120.59493192202842,0,90,3.0,5,0.8885552973614108
6.26,0.3686441789190902,114.83222413300682,0,90,3.0,5,0.7697365800619963
6.265,0.3857476379544367,108.13422420586735,0,90,3.0,5,0.6316334887807702
6.27,0.3963882865005728,101.3936098555063,0,90,3.0,5,0.492651749598068
6.275,0.4,95.33064507931,0,90,3.0,5,0.3676421665837114
6.28,0.39638828650057273,90.39185276201252,0,90,3.0,5,0.2658113971548973
6.285,0.38574763795443656,86.73955542986523,0,90,3.0,5,0.19050629752299453
6.29,0.36864417891908974,84.31059562557269,0,90,3.0,5,0.14042465207366367
6.295,0.345965766895568,82.9065602268215,0,90,3.0,5,0.11147546859425768
6.3,0.3188456651783249,82.28033336831763,0,90,3.0,5,0.09856357460448717
6.305,0.28856891614190205,82.19778113694667,0,90,3.0,5,0.09686146674116852
6.31,0.2564721553719815,82.46927305071628,0,90,3.0,5,0.1024592381590986
6.315,0.22384764873847685,82.95682150774277,0,90,3.0,5,0.11251178366479946
6.32,0.19186090753201765,83.56687754099825,0,90,3.0,5,0.12509025857728348
6.325,0.16148868344343878,84.23787322707521,0,90,3.0,5,0.1389252211768085
6.33,0.1334809643017881,84.92832444149448,0,90,3.0,5,0.15316132869060786
6.335,0.10834733138818531,85.60801881012263,0,90,3.0,5,0.16717564556953876
6.34,0.08636519236690572,86.25260772478875,0,90,3.0,5,0.18046613865543806
6.345,0.06760532616242629,86.84089403560439,0,90,3.0,5,0.19259575331143078
6.35,0.05196904332202373,87.35388295636871,0,90,3.0,5,0.20317284446121045
6.355,0.03923107185803287,87.77481720348132,0,90,3.0,5,0.21185190110270763
6.36,0.02908287038705761,88.08966243795557,0,90,3.0,5,0.21834355542176428
6.365,0.02117220077308346,88.28771551986046,0,90,3.0,5,0.22242712412083412
6.37,0.0151361834125735,88.36214631799686,0,90,3.0,5,0.22396177975251258
6.375,0.010626454858290009,88.31036736727964,0,90,3.0,5,0.22289417252122967
6.38,0.007326255555493652,88.13417633763018,0,90,3.0,5,0.21926136778618927
6.385,0.004960179211183015,87.83965035915766,0,90,3.0,5,0.213188667199127
6.39,0.0032978759379303545,87.43679744267308,0,90,3.0,5,0.20488242149841407
6.395,0.002153242296767213,86.9389917989111,0,90,3.0,5,0.1946183876064145
6.4,0.001380616732225004,86.36223716698538,0,90,3.0,5,0.18272653952547177
6.405,0.0008693106590991584,85.72431461211428,0,90,3.0,5,0.16957349715699555
6.41,0.000537524815942247,85.04387789533241,0,90,3.0,5,0.15554387413056525
6.415,0.0003263951340288585,84.33956014461978,0,90,3.0,5,0.14102185865195427
6.42,0.00019463030985187395,83.62915046826862,0,90,3.0,5,0.1263742364591468
6.425,0.00011397219555062695,82.92888923969679,0,90,3.0,5,0.11193586061230489
6.43,6.55403863487943e-05,82.25291740154772,0,90,3.0,5,0.09799829693912823
6.435,3.701184389455385e-05,81.61289990625842,0,90,3.0,5,0.08480205992285401
6.44,2.0525516217290957e-05,81.01782800176962,0,90,3.0,5,0.07253253611896114
6.445,1.1178128483661116e-05,80.47399100328275,0,90,3.0,5,0.0613194021295412
6.45,5.978135409912517e-06,79.9850966673004,0,90,3.0,5,0.05123910654227622
6.455,3.1396702713238487e-06,79.55251108450634,0,90,3.0,5,0.04231981617538835
6.46,1.6192875458531019e-06,79.17558445710158,0,90,3.0,5,0.034548133136115024
6.465,8.201353897972012e-07,78.85202811529082,0,90,3.0,5,0.027876868356511774
6.47,4.0791415086824765e-07,78.57831019218708,0,90,3.0,5,0.022233199838908767
6.475,1.9923866938774793e-07,78.35004180586505,0,90,3.0,5,0.01752663517247519
6.48,9.556527981051257e-08,78.16233155760507,0,90,3.0,5,0.013656320775362298
6.485,4.501406988770349e-08,78.01009280593172,0,90,3.0,5,0.01051737744189113
6.49,0.0,77.88829476616297,0,90,3.0,5,0.008006077652844772
6.495,0.0,77.79215442099877,0,90,3.0,5,0.006023802494820002
6.5,0.0,77.71727110655786,0,90,3.0,5,0.004479816630058962
6.505,0.0,77.65970925268655,0,90,3.0,5,0.003292974282196985
6.51,0.0,77.61603707332719,0,90,3.0,5,0.0023925169758183882
6.515,0.0,77.58333012691409,0,90,3.0,5,0.0017181469466823053
6.52,0.0,77.55914879585012,0,90,3.0,5,0.0012195628010334112
6.525,0.0,77.54149811404007,0,90,3.0,5,0.0008556312173209687
6.53,0.0,77.52877725728622,0,90,3.0,5,0.0005933455110561316
6.535,0.0,77.51972463735181,0,90,3.0,5,0.0004066935536456509
6.54,0.0,77.51336310074132,0,90,3.0,5,0.00027552785033640716
6.545,0.0,77.50894837231351,0,90,3.0,5,0.0001845025219280774
6.55,0.0,77.50592269592266,0,90,3.0,5,0.00012211744170440163
6.555,0.0,77.50387465835057,0,90,3.0,5,7.988986289831832e-05
6.56,0.0,77.50250545138663,0,90,3.0,5,5.1658791476807595e-05
6.565,0.0,77.50160131633649,0,90,3.0,5,3.301683168021236e-05
6.57,0.0,77.50101159546982,0,90,3.0,5,2.0857638552975802e-05
6.575,0.0,77.5006316481158,0,90,3.0,5,1.3023672490711779e-05
6.58,0.0,77.50038983616128,0,90,3.0,5,8.037858995371654e-06
6.585,0.0,77.50023780863849,0,90,3.0,5,4.903270896659603e-06
6.59,0.0,77.50014338764066,0,90,3.0,5,2.9564461992214493e-06
6.595,0.0,77.50008545439401,0,90,3.0,5,1.7619462682629541e-06
6.6,0.0,77.5000503379664,0,90,3.0,5,1.0378962144255338e-06
6.605,0.0,77.50002930863025,0,90,3.0,5,6.04301654562995e-07
6.61,0.0,77.50001686684932,0,90,3.0,5,3.47770089106656e-07
6.615,0.0,77.50000959424924,0,90,3.0,5,1.9781957185729233e-07
6.62,0.001684486749771458,77.50000539419466,0,90,3.0,5,1.1122050843190777e-07
6.625,0.004172395771277602,77.50000299764929,0,90,3.0,5,6.180720184911667e-08
6.63,0.009438687428818865,77.50000164654504,0,90,3.0,5,3.394938235689233e-08
6.635,0.019500507867137046,77.50000089393305,0,90,3.0,5,1.8431609246878916e-08
6.64,0.03679496976339974,77.50000047970579,0,90,3.0,5,9.890841025930826e-09
6.645,0.06340728953298436,77.5000002544389,0,90,3.0,5,5.246162926755695e-09
6.65,0.09979255396093453,77.50000013339228,0,90,3.0,5,2.750356222265706e-09
6.655,0.14343835518453557,77.50000006912201,0,90,3.0,5,1.4251960711243151e-09
6.66,0.18829581417209276,77.50000003540305,0,90,3.0,5,7.299597444253993e-10
6.665,0.2257481735193119,77.5000000179227,0,90,3.0,5,3.695402380433678e-10
6.67,0.24718154073554727,77.5000000089682,0,90,3.0,5,1.8491134854689477e-10
6.675,0.24718154074102772,77.50000000443552,0,90,3.0,5,9.145402877151092e-11
6.68,0.22574817354072055,77.50000000216832,0,90,3.0,5,4.4707641941339216e-11
6.685,0.18829581422840957,77.50000000104771,0,90,3.0,5,2.160225721098934e-11
6.69,0.14343835532456656,77.50000000050038,0,90,3.0,5,1.0317080523236655e-11
6.695,0.09979255431561854,77.5000000002362,0,90,3.0,5,4.870074561265413e-12
6.7,0.06340729067170194,77.5000000001102,0,90,3.0,5,2.272271717863743e-12
6.705,0.03679497683410042,77.50000000005083,0,90,3.0,5,1.0480871611603622e-12
6.71,0.019500578284482293,77.50000000002316,0,90,3.0,5,4.776019213562735e-13
6.715,0.009439396781978427,77.50000000001044,0,90,3.0,5,2.1536037558089634e-13
6.72,0.004178588733610924,77.50000000000465,0,90,3.0,5,9.581339158497021e-14
6.725,0.0017299316936037381,77.50000000000205,0,90,3.0,5,4.2193053175032755e-14
6.73,0.0008997325756988589,77.5000000000009,0,90,3.0,5,1.845946076407683e-14
6.735,0.001634769674224814,77.50000000000038,0,90,3.0,5,7.911197470318642e-15
6.74,0.00614904736476635,77.50000000000016,0,90,3.0,5,3.2230804508705575e-15
6.745,0.02168080359963608,77.50000000000007,0,90,3.0,5,1.465036568577526e-15
6.75,0.06433400338904088,77.50000000000003,0,90,3.0,5,5.860146274310105e-16
6.755,0.1593410769217493,77.50000000000001,0,90,3.0,5,2.9300731371550523e-16
6.76,0.3291989194808569,77.5,0,90,3.0,5,0.0
6.765,0.5672906802982638,77.5,0,90,3.0,5,0.0
6.77,0.815339152120446,77.5,0,90,3.0,5,0.0
6.775,0.9768711246313155,77.50000284150002,1,90,3.0,5,5.858762928180591e-08
6.78,0.9726380909165361,77.5000055087254,0,90,3.0,5,1.1358196688794948e-07
6.785,0.7921091683291741,77.50001136395807,0,90,3.0,5,2.3430841373428661e-07
6.79,0.49139090102639077,77.50002585890292,0,90,3.0,5,5.331732559967612e-07
6.795,0.15739335672107918,77.50006577270929,0,90,3.0,5,1.356138335905626e-06
6.8,-0.11102342218909485,77.50018247875063,0,90,3.0,5,3.76244846661487e-06
6.805,-0.2314207883647528,77.50052776496497,0,90,3.0,5,1.0881751855078582e-05
6.81,-0.2029124434754801,77.50152756139154,0,90,3.0,5,3.1496111165786474e-05
6.815,-0.11151350554305876,77.50430755613382,0,90,3.0,5,8.88155903881271e-05
6.82,-0.039430666652076896,77.5116563600092,0,90,3.0,5,0.00024033731977727622
6.825,-0.006087703519843621,77.53002739545968,0,90,3.0,5,0.0006191215558697577
6.83,0.005350271385530551,77.57333096905042,0,90,3.0,5,0.0015119787433075698
6.835,0.010381647827441833,77.66940490223725,0,90,3.0,5,0.0034928845822112743
6.84,0.015115203303506243,77.86976747664984,0,90,3.0,5,0.007624071683501874
6.845,0.021170964062928475,78.26211431813414,0,90,3.0,5,0.01571369728111625
6.85,0.029082821134029553,78.98267513398078,0,90,3.0,5,0.03057062131919128
6.855,0.03923107061708144,80.22218766058688,0,90,3.0,5,0.05612758063065738
6.86,0.051969043308817596,82.21612057642412,0,90,3.0,5,0.09723959951389932
6.865,0.06760532616283861,85.20932922752098,0,90,3.0,5,0.15895524180455634
6.87,0.08636519236693461,89.39039798617173,0,90,3.0,5,0.24516284507570588
6.875,0.10834733138818661,94.8028006534978,0,90,3.0,5,0.35675877636077935
6.88,0.1334809643017884,101.25612781731577,0,90,3.0,5,0.48981706839826333
6.885,0.16148868344343945,108.27370857382006,0,90,3.0,5,0.6345094551303105
6.89,0.191860907532018,115.11341104223824,0,90,3.0,5,0.775534248293572
6.895,0.22384764873847726,120.88000833622657,0,90,3.0,5,0.8944331615716817
6.9,0.25647215537198226,124.71329532894552,0,90,3.0,5,0.9734700067823818
6.905,0.2885689161419028,126.0,0,90,3.0,5,1.0
6.91,0.31884566517832524,124.53834900968857,0,90,3.0,5,0.9698628661791459
6.915,0.3459657668955683,120.59493192202842,0,90,3.0,5,0.8885552973614108
6.92,0.3686441789190902,114.83222413300682,0,90,3.0,5,0.7697365800619963
6.925,0.3857476379544367,108.13422420586735,0,90,3.0,5,0.6316334887807702
6.93,0.3963882865005728,101.3936098555063,0,90,3.0,5,0.492651749598068
6.935,0.4,95.33064507931,0,90,3.0,5,0.3676421665837114
6.94,0.39638828650057273,90.39185276201252,0,90,3.0,5,0.2658113971548973
6.945,0.38574763795443656,86.73955542986523,0,90,3.0,5,0.19050629752299453
6.95,0.36864417891908974,84.31059562557269,0,90,3.0,5,0.14042465207366367
6.955,0.345965766895568,82.9065602268215,0,90,3.0,5,0.11147546859425768
6.96,0.3188456651783249,82.28033336831763,0,90,3.0,5,0.09856357460448717
6.965,0.28856891614190205,82.19778113694667,0,90,3.0,5,0.09686146674116852
6.97,0.2564721553719815,82.46927305071628,0,90,3.0,5,0.1024592381590986
6.975,0.22384764873847685,82.95682150774277,0,90,3.0,5,0.11251178366479946
6.98,0.19186090753201765,83.56687754099825,0,90,3.0,5,0.12509025857728348
6.985,0.16148868344343878,84.23787322707521,0,90,3.0,5,0.1389252211768085
6.99,0.1334809643017881,84.92832444149448,0,90,3.0,5,0.15316132869060786
6.995,0.10834733138818531,85.60801881012263,0,90,3.0,5,0.16717564556953876
7.0,0.08636519236690572,86.25260772478875,0,90,3.0,5,0.18046613865543806
7.005,0.06760532616242629,86.84089403560439,0,90,3.0,5,0.19259575331143078
7.01,0.05196904332202373,87.35388295636871,0,90,3.0,5,0.20317284446121045
7.015,0.03923107185803287,87.77481720348132,0,90,3.0,5,0.21185190110270763
7.02,0.02908287038705761,88.08966243795557,0,90,3.0,5,0.21834355542176428
7.025,0.02117220077308346,88.28771551986046,0,90,3.0,5,0.22242712412083412
7.03,0.0151361834125735,88.36214631799686,0,90,3.0,5,0.22396177975251258
7.035,0.010626454858290009,88.31036736727964,0,90,3.0,5,0.22289417252122967
7.04,0.007326255555493652,88.13417633763018,0,90,3.0,5,0.21926136778618927
7.045,0.004960179211183015,87.83965035915766,0,90,3.0,5,0.213188667199127
7.05,0.0032978759379303545,87.43679744267308,0,90,3.0,5,0.20488242149841407
7.055,0.002153242296767213,86.9389917989111,0,90,3.0,5,0.1946183876064145
7.06,0.001380616732225004,86.36223716698538,0,90,3.0,5,0.18272653952547177
7.065,0.0008693106590991584,85.72431461211428,0,90,3.0,5,0.16957349715699555
7.07,0.000537524815942247,85.04387789533241,0,90,3.0,5,0.15554387413056525
7.075,0.0003263951340288585,84.33956014461978,0,90,3.0,5,0.14102185865195427
7.08,0.00019463030985187395,83.62915046826862,0,90,3.0,5,0.1263742364591468
7.085,0.00011397219555062695,82.92888923969679,0,90,3.0,5,0.11193586061230489
7.09,6.55403863487943e-05,82.25291740154772,0,90,3.0,5,0.09799829693912823
7.095,3.701184389455385e-05,81.61289990625842,0,90,3.0,5,0.08480205992285401
7.1,2.0525516217290957e-05,81.01782800176962,0,90,3.0,5,0.07253253611896114
7.105,1.1178128483661116e-05,80.47399100328275,0,90,3.0,5,0.0613194021295412
7.11,5.978135409912517e-06,79.9850966673004,0,90,3.0,5,0.05123910654227622
7.115,3.1396702713238487e-06,79.55251108450634,0,90,3.0,5,0.04231981617538835
7.12,1.6192875458531019e-06,79.17558445710158,0,90,3.0,5,0.034548133136115024
7.125,8.201353897972012e-07,78.85202811529082,0,90,3.0,5,0.027876868356511774
7.13,4.0791415086824765e-07,78.57831019218708,0,90,3.0,5,0.022233199838908767
7.135,1.9923866938774793e-07,78.35004180586505,0,90,3.0,5,0.01752663517247519
7.14,9.556527981051257e-08,78.16233155760507,0,90,3.0,5,0.013656320775362298
7.145,4.501406988770349e-08,78.01009280593172,0,90,3.0,5,0.01051737744189113
7.15,0.0,77.88829476616297,0,90,3.0,5,0.008006077652844772
7.155,0.0,77.79215442099877,0,90,3.0,5,0.006023802494820002
7.16,0.0,77.71727110655786,0,90,3.0,5,0.004479816630058962
7.165,0.0,77.65970925268655,0,90,3.0,5,0.003292974282196985
7.17,0.0,77.61603707332719,0,90,3.0,5,0.0023925169758183882
7.175,0.0,77.58333012691409,0,90,3.0,5,0.0017181469466823053
7.18,0.0,77.55914879585012,0,90,3.0,5,0.0012195628010334112
7.185,0.0,77.54149811404007,0,90,3.0,5,0.0008556312173209687
7.19,0.0,77.52877725728622,0,90,3.0,5,0.0005933455110561316
7.195,0.0,77.51972463735181,0,90,3.0,5,0.0004066935536456509
7.2,0.0,77.51336310074132,0,90,3.0,5,0.00027552785033640716
7.205,0.0,77.50894837231351,0,90,3.0,5,0.0001845025219280774
7.21,0.0,77.50592269592266,0,90,3.0,5,0.00012211744170440163
7.215,0.0,77.50387465835057,0,90,3.0,5,7.988986289831832e-05
7.22,0.0,77.50250545138663,0,90,3.0,5,5.1658791476807595e-05
7.225,0.0,77.50160131633649,0,90,3.0,5,3.301683168021236e-05
7.23,0.0,77.50101159546982,0,90,3.0,6,2.0857638552975802e-05
7.235,0.0,77.5006316481158,0,90,3.0,6,1.3023672490711779e-05
7.24,0.0,77.50038983616128,0,90,3.0,6,8.037858995371654e-06
7.245,0.0,77.50023780863849,0,90,3.0,6,4.903270896659603e-06
7.25,0.0,77.50014338764066,0,90,3.0,6,2.9564461992214493e-06
7.255,0.0,77.50008545439401,0,90,3.0,6,1.7619462682629541e-06
7.26,0.0,77.5000503379664,0,90,3.0,6,1.0378962144255338e-06
7.265,0.0,77.50002930863025,0,90,3.0,6,6.04301654562995e-07
7.27,0.0,77.50001686684932,0,90,3.0,6,3.47770089106656e-07
7.275,0.0,77.50000959424924,0,90,3.0,6,1.9781957185729233e-07
7.28,0.001684486749771458,77.50000539419466,0,90,3.0,6,1.1122050843190777e-07
7.285,0.004172395771277602,77.50000299764929,0,90,3.0,6,6.180720184911667e-08
7.29,0.009438687428818865,77.50000164654504,0,90,3.0,6,3.394938235689233e-08
7.295,0.019500507867137046,77.50000089393305,0,90,3.0,6,1.8431609246878916e-08
7.3,0.03679496976339974,77.50000047970579,0,90,3.0,6,9.890841025930826e-09
7.305,0.06340728953298436,77.5000002544389,0,90,3.0,6,5.246162926755695e-09
7.31,0.09979255396093453,77.50000013339228,0,90,3.0,6,2.750356222265706e-09
7.315,0.14343835518453557,77.50000006912201,0,90,3.0,6,1.4251960711243151e-09
7.32,0.18829581417209276,77.50000003540305,0,90,3.0,6,7.299597444253993e-10
7.325,0.2257481735193119,77.5000000179227,0,90,3.0,6,3.695402380433678e-10
7.33,0.24718154073554727,77.5000000089682,0,90,3.0,6,1.8491134854689477e-10
7.335,0.24718154074102772,77.50000000443552,0,90,3.0,6,9.145402877151092e-11
7.34,0.22574817354072055,77.50000000216832,0,90,3.0,6,4.4707641941339216e-11
7.345,0.18829581422840957,77.50000000104771,0,90,3.0,6,2.160225721098934e-11
7.35,0.14343835532456656,77.50000000050038,0,90,3.0,6,1.0317080523236655e-11
7.355,0.09979255431561854,77.5000000002362,0,90,3.0,6,4.870074561265413e-12
7.36,0.06340729067170194,77.5000000001102,0,90,3.0,6,2.272271717863743e-12
7.365,0.03679497683410042,77.50000000005083,0,90,3.0,6,1.0480871611603622e-12
7.37,0.019500578284482293,77.50000000002316,0,90,3.0,6,4.776019213562735e-13
7.375,0.009439396781978427,77.50000000001044,0,90,3.0,6,2.1536037558089634e-13
7.38,0.004178588733610924,77.50000000000465,0,90,3.0,6,9.581339158497021e-14
7.385,0.0017299316936037381,77.50000000000205,0,90,3.0,6,4.2193053175032755e-14
7.39,0.0008997325756988589,77.5000000000009,0,90,3.0,6,1.845946076407683e-14
7.395,0.001634769674224814,77.50000000000038,0,90,3.0,6,7.911197470318642e-15
7.4,0.00614904736476635,77.50000000000016,0,90,3.0,6,3.2230804508705575e-15
7.405,0.02168080359963608,77.50000000000007,0,90,3.0,6,1.465036568577526e-15
7.41,0.06433400338904088,77.50000000000003,0,90,3.0,6,5.860146274310105e-16
7.415,0.1593410769217493,77.50000000000001,0,90,3.0,6,2.9300731371550523e-16
7.42,0.3291989194808569,77.5,0,90,3.0,6,0.0
7.425,0.5672906802982638,77.5,0,90,3.0,6,0.0
7.43,0.815339152120446,77.5,0,90,3.0,6,0.0
7.435,0.9768711246313155,77.50000284586159,1,90,3.0,6,5.8677558500516847e-08
7.44,0.9726380909165361,77.50000540621835,0,90,3.0,6,1.1146841957598394e-07
7.445,0.7921091683291741,77.5000108768639,0,90,3.0,6,2.2426523498287464e-07
7.45,0.49139090102639077,77.5000239632854,0,90,3.0,6,4.940883587719842e-07
7.455,0.15739335672107918,77.50005866103898,0,90,3.0,6,1.2095059582978926e-06
7.46,-0.11102342218909485,77.5001565274914,0,90,3.0,6,3.2273709566722866e-06
7.465,-0.2314207883647528,77.50043717338163,0,90,3.0,6,9.013884157259303e-06
7.47,-0.2029124434754801,77.50122904689188,0,90,3.0,6,2.534117302843697e-05
7.475,-0.11151350554305876,77.50338542462353,0,90,3.0,6,6.980256955733511e-05
7.48,-0.039430666652076896,77.50899344295689,0,90,3.0,6,0.0001854318135441804
7.485,-0.006087703519843621,77.52284424176906,0,90,3.0,6,0.00047101529420751363
7.49,0.005350271385530551,77.55523138800068,0,90,3.0,6,0.0011387915051686152
7.495,0.010381647827441833,77.62679470536686,0,90,3.0,6,0.002614323821997157
7.5,0.015115203303506243,77.77602863433232,0,90,3.0,6,0.005691312048089076
7.505,0.021170964062928475,78.06941882061071,0,90,3.0,6,0.011740594239396024
7.51,0.029082821134029553,78.61264705687972,0,90,3.0,6,0.022941176430509753
7.515,0.03923107061708144,79.55887006289213,0,90,3.0,6,0.04245092913179641
7.52,0.051969043308817596,81.10733409746567,0,90,3.0,6,0.07437802262815808
7.525,0.06760532616283861,83.4840347084959,0,90,3.0,6,0.12338215893805975
7.53,0.08636519236693461,86.89791075708786,0,90,3.0,6,0.19377135581624447
7.535,0.10834733138818661,91.47290531438892,0,90,3.0,6,0.28810114050286445
7.54,0.1334809643017884,97.16780461229023,0,90,3.0,6,0.40552174458330364
7.545,0.16148868344343945,103.70838557386074,0,90,3.0,6,0.5403790839971286
7.55,0.191860907532018,110.56339952140614,0,90,3.0,6,0.6817195777609514
7.555,0.22384764873847726,116.9905505634757,0,90,3.0,6,0.8142381559479525
7.56,0.25647215537198226,122.1585552525796,0,90,3.0,6,0.9207949536614352
7.565,0.2885689161419028,125.32204653102696,0,90,3.0,6,0.9860215779593187
7.57,0.31884566517832524,126.0,0,90,3.0,6,1.0
7.575,0.3459657668955683,124.09929318952061,0,90,3.0,6,0.960810168856095
7.58,0.3686441789190902,119.94001348411793,0,90,3.0,6,0.8750518244148026
7.585,0.3857476379544367,114.17337664266108,0,90,3.0,6,0.7561520957249708
7.59,0.3963882865005728,107.62152108345802,0,90,3.0,6,0.6210622903805777
7.595,0.4,101.0936464742221,0,90,3.0,6,0.4864669376128268
7.6,0.39638828650057273,95.23476363020654,0,90,3.0,6,0.3656652294887947
7.605,0.38574763795443656,90.4435854989949,0,90,3.0,6,0.2668780515256682
7.61,0.36864417891908974,86.86645009682657,0,90,3.0,6,0.19312268240879524
7.615,0.345965766895568,84.44866361769579,0,90,3.0,6,0.14327141479785124
7.62,0.3188456651783249,83.01238886958782,0,90,3.0,6,0.11365750246572832
7.625,0.28856891614190205,82.33219786893802,0,90,3.0,6,0.09963294575129947
7.63,0.2564721553719815,82.19037236159303,0,90,3.0,6,0.09670870848645433
7.635,0.22384764873847685,82.4067713597822,0,90,3.0,6,0.10117054350066387
7.64,0.19186090753201765,82.84733349045737,0,90,3.0,6,0.11025429877231697
7.645,0.16148868344343878,83.41925731830845,0,90,3.0,6,0.12204654264553512
7.65,0.1334809643017881,84.06060249564256,0,90,3.0,6,0.13527015454933106
7.655,0.10834733138818531,84.7296112585338,0,90,3.0,6,0.14906414966049059
7.66,0.08636519236690572,85.39633568541677,0,90,3.0,6,0.16281104506013966
7.665,0.06760532616242629,86.03717687645855,0,90,3.0,6,0.17602426549399064
7.67,0.05196904332202373,86.63190565549688,0,90,3.0,6,0.18828671454632742
7.675,0.03923107185803287,87.16241124326619,0,90,3.0,6,0.19922497408796272
7.68,0.02908287038705761,87.61248306715446,0,90,3.0,6,0.20850480550833933
7.685,0.02117220077308346,87.96811794886472,0,90,3.0,6,0.21583748348174672
7.69,0.0151361834125735,88.21802622801505,0,90,3.0,6,0.22099023150546493
7.695,0.010626454858290009,88.35414161770949,0,90,3.0,6,0.2237967343857626
7.7,0.007326255555493652,88.37202232834514,0,90,3.0,6,0.22416540883185854
7.705,0.004960179211183015,88.27108106749418,0,90,3.0,6,0.22208414572152949
7.71,0.0032978759379303545,88.05461363524023,0,90,3.0,6,0.21762089969567486
7.715,0.002153242296767213,87.7296191903864,0,90,3.0,6,0.21091998330693612
7.72,0.001380616732225004,87.30642415743608,0,90,3.0,6,0.20219431252445533
7.725,0.0008693106590991584,86.79813742453794,0,90,3.0,6,0.19171417370181323
7.73,0.000537524815942247,86.21997675578243,0,90,3.0,6,0.17979333517077167
7.735,0.0003263951340288585,85.58851459767371,0,90,3.0,6,0.16677349685925172
7.74,0.00019463030985187395,84.92089522273513,0,90,3.0,6,0.15300814892237374
7.745,0.00011397219555062695,84.2340743273611,0,90,3.0,6,0.13884689334765155
7.75,6.55403863487943e-05,83.54412713946391,0,90,3.0,6,0.1246211781332765
7.755,3.701184389455385e-05,82.86566255613282,0,90,3.0,6,0.11063221765222306
7.76,2.0525516217290957e-05,82.2113698868779,0,90,3.0,6,0.09714164715212173
7.765,1.1178128483661116e-05,81.59171264922182,0,90,3.0,6,0.08436520926230553
7.77,5.978135409912517e-06,81.0147717845139,0,90,3.0,6,0.07246952133018345
7.775,3.1396702713238487e-06,80.48622973646444,0,90,3.0,6,0.06157174714359665
7.78,1.6192875458531019e-06,80.00947792665202,0,90,3.0,6,0.0517418129206603
7.785,8.201353897972012e-07,79.58582382558662,0,90,3.0,6,0.04300667681621888
7.79,4.0791415086824765e-07,79.21477027933115,0,90,3.0,6,0.03535608823363192
7.795,1.9923866938774793e-07,78.89433892375651,0,90,3.0,6,0.02874925615992798
7.8,9.556527981051257e-08,78.62141105818226,0,90,3.0,6,0.02312187748829404
7.805,4.501406988770349e-08,78.39206273455854,0,90,3.0,6,0.018393046073371874
7.81,0.0,78.20187543065295,0,90,3.0,6,0.014471658363978296
7.815,0.0,78.04620888776554,0,90,3.0,6,0.01126203892300092
7.82,0.0,77.9204279351801,0,90,3.0,6,0.00866861722020826
7.825,0.0,77.82007993256983,0,90,3.0,6,0.0065995862385531045
7.83,0.0,77.74102351106553,0,90,3.0,6,0.004969556929186289
7.835,0.0,77.67951239873214,0,90,3.0,6,0.003701286571796767
7.84,0.0,77.63224022257143,0,90,3.0,6,0.0027266025272458896
7.845,0.0,77.59635333975864,0,90,3.0,6,0.0019866667991471345
7.85,0.0,77.56943909521827,0,90,3.0,6,0.0014317339220262168
7.855,0.0,77.54949660528963,0,90,3.0,6,0.0010205485626728467
7.86,0.0,77.53489641831816,0,90,3.0,6,0.000719513779755774
7.865,0.0,77.52433438497737,0,90,3.0,6,0.0005017398964405191
7.87,0.0,77.51678394216378,0,90,3.0,6,0.0003460606631707969
7.875,0.0,77.51144989895161,0,90,3.0,6,0.0002360803907548608
7.88,0.0,77.50772579914724,0,90,3.0,6,0.00015929482777810147
7.885,0.0,77.50515607531464,0,90,3.0,6,0.00010631083122978725
7.89,0.0,77.50340352677404,0,90,3.0,6,7.017580977394714e-05
7.895,0.0,77.50222214896947,0,90,3.0,6,4.581750452506846e-05
7.9,0.0,77.50143499784357,0,90,3.0,6,2.9587584403599846e-05
7.905,0.0,77.50091656528996,0,90,3.0,6,1.8898253401142864e-05
7.91,0.0,77.50057904143834,0,90,3.0,6,1.1938998728714274e-05
7.915,0.0,77.50036181782804,0,90,3.0,6,7.460161402809014e-06
7.92,0.0,77.50022361676467,0,90,3.0,6,4.610654941678749e-06
7.925,0.0,77.50013669506535,0,90,3.0,6,2.818454955680882e-06
7.93,0.0,77.50008264857955,0,90,3.0,6,1.7040944237109704e-06
7.935,0.0,77.50004942560916,0,90,3.0,6,1.0190847250055179e-06
7.94,0.0,77.50002923497637,0,90,3.0,6,6.027830178735121e-07
7.945,0.0,77.50001710360048,0,90,3.0,6,3.5265155637829334e-07
7.95,0.0,77.50000989706493,0,90,3.0,6,2.0406319438350074e-07
7.955,0.0,77.50000566447123,0,90,3.0,6,1.1679322127063117e-07
7.96,0.001684486749771458,77.50000320661198,0,90,3.0,6,6.611571089922212e-08
7.965,0.004172395771277602,77.50000179542606,0,90,3.0,6,3.7019093989544774e-08
7.97,0.009438687428818865,77.50000099431209,0,90,3.0,6,2.0501280178652132e-08
7.975,0.019500507867137046,77.50000054464309,0,90,3.0,6,1.1229754354363397e-08
7.98,0.03679496976339974,77.50000029507699,0,90,3.0,6,6.084061584429552e-09
7.985,0.06340728953298436,77.50000015812218,0,90,3.0,6,3.2602510656811926e-09
7.99,0.09979255396093453,77.50000008380778,0,90,3.0,6,1.727995396256879e-09
7.995,0.14343835518453557,77.50000004393492,0,90,3.0,6,9.058745964119732e-10
8.0,0.18829581417209276,77.50000002278082,0,90,3.0,6,4.697077183101503e-10
8.005,0.2257481735193119,77.50000001168324,0,90,3.0,6,2.408915678614969e-10
8.01,0.24718154073554727,77.5000000059264,0,90,3.0,6,1.221937190607183e-10
8.015,0.24718154074102772,77.5000000029734,0,90,3.0,6,6.130709227795003e-11
8.02,0.22574817354072055,77.50000000147553,0,90,3.0,6,3.0423242390394625e-11
8.025,0.18829581422840957,77.50000000072423,0,90,3.0,6,1.4932531728883294e-11
8.03,0.14343835532456656,77.50000000035159,0,90,3.0,6,7.249293948635315e-12
8.035,0.09979255431561854,77.50000000016882,0,90,3.0,6,3.4809268869402023e-12
8.04,0.06340729067170194,77.50000000008018,0,90,3.0,6,1.6531472639828805e-12
8.045,0.03679497683410042,77.50000000003766,0,90,3.0,6,7.764693813460888e-13
8.05,0.019500578284482293,77.5000000000175,0,90,3.0,6,3.606920031837869e-13
8.055,0.009439396781978427,77.50000000000804,0,90,3.0,6,1.6584213956297595e-13
8.06,0.004178588733610924,77.50000000000365,0,90,3.0,6,7.530287962488484e-14
8.065,0.0017299316936037381,77.50000000000165,0,90,3.0,6,3.3988848390998606e-14
8.07,0.0008997325756988589,77.50000000000072,0,90,3.0,6,1.4943372999490767e-14
8.075,0.001634769674224814,77.50000000000033,0,90,3.0,6,6.73916821545662e-15
8.08,0.00614904736476635,77.50000000000014,0,90,3.0,6,2.930073137155052e-15
8.085,0.02168080359963608,77.50000000000006,0,90,3.0,6,1.172029254862021e-15
8.09,0.06433400338904088,77.50000000000003,0,90,3.0,6,5.860146274310105e-16
8.095,0.1593410769217493,77.50000000000001,0,90,3.0,6,2.9300731371550523e-16
8.1,0.3291989194808569,77.5,0,90,3.0,6,0.0
8.105,0.5672906802982638,77.5,0,90,3.0,6,0.0
8.11,0.815339152120446,77.5,0,90,3.0,6,0.0
8.115,0.9768711246313155,77.50000285328441,1,90,3.0,6,5.883060647572643e-08
8.12,0.9726380909165361,77.50000562140409,0,90,3.0,6,1.1590523887282392e-07
8.125,0.7921091683291741,77.50001183073464,0,90,3.0,6,2.4393267289710397e-07
8.13,0.49139090102639077,77.50002762917026,0,90,3.0,6,5.696736136471992e-07
8.135,0.15739335672107918,77.50007245443882,0,90,3.0,6,1.4939059550923367e-06
8.14,-0.11102342218909485,77.50020725996767,0,90,3.0,6,4.273401395187075e-06
8.145,-0.2314207883647528,77.50061582704151,0,90,3.0,6,1.269746477348854e-05
8.15,-0.2029124434754801,77.50182248868452,0,90,3.0,6,3.757708627885804e-05
8.155,-0.11151350554305876,77.5052310715901,0,90,3.0,6,0.00010785714618768954
8.16,-0.039430666652076896,77.51435172175279,0,90,3.0,6,0.0002959117887172917
8.165,-0.006087703519843621,77.53735285072946,0,90,3.0,6,0.0007701618707105621
8.17,0.005350271385530551,77.5918691803079,0,90,3.0,6,0.0018942099032555814
8.175,0.010381647827441833,77.71309481986977,0,90,3.0,6,0.004393707626180756
8.18,0.015115203303506243,77.96566482587883,0,90,3.0,6,0.009601336616058397
8.185,0.021170964062928475,78.45812550344493,0,90,3.0,6,0.01975516501948315
8.19,0.029082821134029553,79.35558674678168,0,90,3.0,6,0.03825952055219964
8.195,0.03923107061708144,80.88198151748664,0,90,3.0,6,0.06973157768013682
8.2,0.051969043308817596,83.30025257051231,0,90,3.0,6,0.11959283650540853
8.205,0.06760532616283861,86.86014114836432,0,90,3.0,6,0.19299260099720247
8.21,0.08636519236693461,91.71228864363101,0,90,3.0,6,0.29303687925012395
8.215,0.10834733138818661,97.80423612993579,0,90,3.0,6,0.4186440439162018
8.22,0.1334809643017884,104.79307462662686,0,90,3.0,6,0.5627438067345745
8.225,0.16148868344343945,112.02004978372179,0,90,3.0,6,0.7117536037880781
8.23,0.191860907532018,118.58316466468419,0,90,3.0,6,0.8470755600965812
8.235,0.22384764873847726,123.51148828718976,0,90,3.0,6,0.9486904801482425
8.24,0.25647215537198226,126.0,0,90,3.0,6,1.0
8.245,0.2885689161419028,125.62830221298329,0,90,3.0,6,0.9923361281027482
8.25,0.31884566517832524,122.48203243932362,0,90,3.0,6,0.9274645863778066
8.255,0.3459657668955683,117.12925074937131,0,90,3.0,6,0.8170979535952847
8.26,0.3686441789190902,110.46116941721593,0,90,3.0,6,0.6796117405611531
8.265,0.3857476379544367,103.45897551850818,0,90,3.0,6,0.5352366086290347
8.27,0.3963882865005728,96.97065636772538,0,90,3.0,6,0.4014568323242347
8.275,0.4,91.56589466519785,0,90,3.0,6,0.29001844670511023
8.28,0.39638828650057273,87.49604796974954,0,90,3.0,6,0.206104081850506
8.285,0.38574763795443656,84.74329427423734,0,90,3.0,6,0.14934627369561532
8.29,0.36864417891908974,83.11746244254847,0,90,3.0,6,0.11582396788759737
8.295,0.345965766895568,82.3568848664176,0,90,3.0,6,0.10014195600861034
8.3,0.3188456651783249,82.20419486948393,0,90,3.0,6,0.09699370864915315
8.305,0.28856891614190205,82.4474226772088,0,90,3.0,6,0.102008714993996
8.31,0.2564721553719815,82.93146838815557,0,90,3.0,6,0.11198903893104258
8.315,0.22384764873847685,83.55144100802794,0,90,3.0,6,0.12477197954696775
8.32,0.19186090753201765,84.23890517799641,0,90,3.0,6,0.13894649851539
8.325,0.16148868344343878,84.94831218827366,0,90,3.0,6,0.15357344718090024
8.33,0.1334809643017881,85.64686744660881,0,90,3.0,6,0.16797664838368678
8.335,0.10834733138818531,86.30832747591782,0,90,3.0,6,0.18161499950346022
8.34,0.08636519236690572,86.90992131114385,0,90,3.0,6,0.19401899610605872
8.345,0.06760532616242629,87.43130093518502,0,90,3.0,6,0.20476909144711383
8.35,0.05196904332202373,87.85460739278714,0,90,3.0,6,0.21349705964509577
8.355,0.03923107185803287,88.16503318602679,0,90,3.0,6,0.21989759146446988
8.36,0.02908287038705761,88.35150634707973,0,90,3.0,6,0.2237423989088605
8.365,0.02117220077308346,88.40728293523891,0,90,3.0,6,0.22489243165441053
8.37,0.0151361834125735,88.33033092317498,0,90,3.0,6,0.22330579223041203
8.375,0.010626454858290009,88.12344658788109,0,90,3.0,6,0.21904013583259982
8.38,0.007326255555493652,87.79408397232552,0,90,3.0,6,0.2122491540685675
8.385,0.004960179211183015,87.35390857822988,0,90,3.0,6,0.20317337274700778
8.39,0.0032978759379303545,86.81811153597118,0,90,3.0,6,0.19212601105095226
8.395,0.002153242296767213,86.20454017631614,0,90,3.0,6,0.17947505518177614
8.4,0.001380616732225004,85.5327142396845,0,90,3.0,6,0.1656229740141133
8.405,0.0008693106590991584,84.82280306012088,0,90,3.0,6,0.15098563010558508
8.41,0.000537524815942247,84.09463776038064,0,90,3.0,6,0.13597191258516775
8.415,0.0003263951340288585,83.36682439710084,0,90,3.0,6,0.1209654514866153
8.42,0.00019463030985187395,82.65601043153745,0,90,3.0,6,0.10630949343376192
8.425,0.00011397219555062695,81.97633972309383,0,90,3.0,6,0.09229566439368721
8.43,6.55403863487943e-05,81.33911255053565,0,90,3.0,6,0.07915695980485868
8.435,3.701184389455385e-05,80.75264902476607,0,90,3.0,7,0.0670649283456922
8.44,2.0525516217290957e-05,80.22233844465784,0,90,3.0,7,0.05613068958057395
8.445,1.1178128483661116e-05,79.75084496649728,0,90,3.0,7,0.04640917456695429
8.45,5.978135409912517e-06,79.33843213578254,0,90,3.0,7,0.03790581723262969
8.455,3.1396702713238487e-06,78.9833655092204,0,90,3.0,7,0.030584855860214546
8.46,1.6192875458531019e-06,78.682353399043,0,90,3.0,7,0.02437842059882464
8.465,8.201353897972012e-07,78.43098993416538,0,90,3.0,7,0.019195668745677973
8.47,4.0791415086824765e-07,78.22417115200214,0,90,3.0,7,0.014931363958807063
8.475,1.9923866938774793e-07,78.05646263625866,0,90,3.0,7,0.011473456417704288
8.48,9.556527981051257e-08,77.92240529264143,0,90,3.0,7,0.008709387477142862
8.485,4.501406988770349e-08,77.81675337219069,0,90,3.0,7,0.006530997364756479
8.49,0.0,77.73464521201578,0,90,3.0,7,0.004838045608572738
8.495,0.0,77.6717120211314,0,90,3.0,7,0.0035404540439463563
8.5,0.0,77.62413328746686,0,90,3.0,7,0.002559449226120855
8.505,0.0,77.58864910755129,0,90,3.0,7,0.0018278166505420771
8.51,0.0,77.56254016636984,0,90,3.0,7,0.0012894879663885074
8.515,0.0,77.54358552186387,0,90,3.0,7,0.0008986705538943297
8.52,0.0,77.53000709975734,0,90,3.0,7,0.0006187030877802349
8.525,0.0,77.52040818335705,0,90,3.0,7,0.00042078728571233844
8.53,0.0,77.51371144502332,0,90,3.0,7,0.00028271020666635973
8.535,0.0,77.50910040372447,0,90,3.0,7,0.00018763719019534853
8.54,0.0,77.50596673357165,0,90,3.0,7,0.00012302543446709286
8.545,0.0,77.5038646590576,0,90,3.0,7,7.968369190923545e-05
8.55,0.0,77.50247277317126,0,90,3.0,7,5.098501384047511e-05
8.555,0.0,77.50156298902219,0,90,3.0,7,3.222657777711771e-05
8.56,0.0,77.50097594676535,0,90,3.0,7,2.0122613718576384e-05
8.565,0.0,77.50060199777202,0,90,3.0,7,1.2412325196347533e-05
8.57,0.0,77.50036682775895,0,90,3.0,7,7.563458947475906e-06
8.575,0.0,77.50022081473722,0,90,3.0,7,4.552881179766775e-06
8.58,0.0,77.50013130838836,0,90,3.0,7,2.707389450754996e-06
8.585,0.0,77.50007713570277,0,90,3.0,7,1.5904268611824797e-06
8.59,0.0,77.50004476277108,0,90,3.0,7,9.229437336633748e-07
8.595,0.0,77.5000256612047,0,90,3.0,7,5.290970041749967e-07
8.6,0.0,77.50001453234408,0,90,3.0,7,2.996359604512503e-07
8.605,0.001684486749771458,77.50000813004326,0,90,3.0,7,1.6762975784547157e-07
8.61,0.004172395771277602,77.50000449312597,0,90,3.0,7,9.264177259462213e-08
8.615,0.009438687428818865,77.50000245303015,0,90,3.0,7,5.057794121207688e-08
8.62,0.019500507867137046,77.50000132298747,0,90,3.0,7,2.7278092215731037e-08
8.625,0.03679496976339974,77.50000070486692,0,90,3.0,7,1.4533338564677289e-08
8.63,0.06340728953298436,77.50000037098563,0,90,3.0,7,7.64918827934304e-09
8.635,0.09979255396093453,77.50000019288817,0,90,3.0,7,3.97707558524004e-09
8.64,0.14343835518453557,77.5000000990724,0,90,3.0,7,2.042729788299016e-09
8.645,0.18829581417209276,77.50000005026877,0,90,3.0,7,1.0364694211715425e-09
8.65,0.2257481735193119,77.50000002519663,0,90,3.0,7,5.195180826198451e-10
8.655,0.24718154073554727,77.50000001247628,0,90,3.0,7,2.572428410033907e-10
8.66,0.24718154074102772,77.50000000610277,0,90,3.0,7,1.2583023283124142e-10
8.665,0.22574817354072055,77.50000000294894,0,90,3.0,7,6.080282669104563e-11
8.67,0.18829581422840957,77.50000000140768,0,90,3.0,7,2.90244254747168e-11
8.675,0.14343835532456656,77.5000000006638,0,90,3.0,7,1.3686664630964965e-11
8.68,0.09979255431561854,77.50000000030923,0,90,3.0,7,6.375839146449394e-12
8.685,0.06340729067170194,77.50000000014231,0,90,3.0,7,2.9341752395470693e-12
8.69,0.03679497683410042,77.50000000006469,0,90,3.0,7,1.3337692920329797e-12
8.695,0.019500578284482293,77.50000000002905,0,90,3.0,7,5.989069492344927e-13
8.7,0.009439396781978427,77.50000000001289,0,90,3.0,7,2.6575763353996326e-13
8.705,0.004178588733610924,77.50000000000564,0,90,3.0,7,1.1632390354505557e-13
