Time,ECG,Pressure,R_Peaks,mean_hr,hrv_scale,Phase_Bin,Normalized_Pressure
0.0,0.001684486749771458,77.5,0,90,3.0,0,0.0
0.005,0.004172395771277602,77.5,0,90,3.0,0,0.0
0.01,0.009438687428818865,77.5,0,90,3.0,0,0.0
0.015,0.019500507867137046,77.5,0,90,3.0,0,0.0
0.02,0.03679496976339974,77.5,0,90,3.0,0,0.0
0.025,0.06340728953298436,77.5,0,90,3.0,0,0.0
0.03,0.09979255396093453,77.5,0,90,3.0,0,0.0
0.035,0.14343835518453557,77.5,0,90,3.0,0,0.0
0.04,0.18829581417209276,77.5,0,90,3.0,0,0.0
0.045,0.2257481735193119,77.5,0,90,3.0,0,0.0
0.05,0.24718154073554727,77.5,0,90,3.0,0,0.0
0.055,0.24718154074102772,77.5,0,90,3.0,0,0.0
0.06,0.22574817354072055,77.5,0,90,3.0,0,0.0
0.065,0.18829581422840957,77.5,0,90,3.0,0,0.0
0.07,0.14343835532456656,77.5,0,90,3.0,0,0.0
0.075,0.09979255431561854,77.5,0,90,3.0,0,0.0
0.08,0.06340729067170194,77.5,0,90,3.0,0,0.0
0.085,0.03679497683410042,77.5,0,90,3.0,0,0.0
0.09,0.019500578284482293,77.5,0,90,3.0,0,0.0
0.095,0.009439396781978427,77.5,0,90,3.0,0,0.0
0.1,0.004178588733610924,77.5,0,90,3.0,0,0.0
0.105,0.0017299316936037381,77.5,0,90,3.0,0,0.0
0.11,0.0008997325756988589,77.5,0,90,3.0,0,0.0
0.115,0.001634769674224814,77.5,0,90,3.0,0,0.0
0.12,0.00614904736476635,77.5,0,90,3.0,0,0.0
0.125,0.02168080359963608,77.5,0,90,3.0,0,0.0
0.13,0.06433400338904088,77.5,0,90,3.0,0,0.0
0.135,0.1593410769217493,77.5,0,90,3.0,0,0.0
0.14,0.3291989194808569,77.5,0,90,3.0,0,0.0
0.145,0.5672906802982638,77.5,0,90,3.0,0,0.0
0.15,0.815339152120446,77.5,0,90,3.0,0,0.0
0.155,0.9768711246313155,77.5,0,90,3.0,0,0.0
0.16,0.9726380909165361,77.5,0,90,3.0,0,0.0
0.165,0.7921091683291741,77.5,0,90,3.0,0,0.0
0.17,0.49139090102639077,77.5,0,90,3.0,0,0.0
0.175,0.15739335672107918,77.5,0,90,3.0,0,0.0
0.18,-0.11102342218909485,77.5,0,90,3.0,0,0.0
0.185,-0.2314207883647528,77.5,0,90,3.0,0,0.0
0.19,-0.2029124434754801,77.5,0,90,3.0,0,0.0
0.195,-0.11151350554305876,77.5,0,90,3.0,0,0.0
0.2,-0.039430666652076896,77.5,0,90,3.0,0,0.0
0.205,-0.006087703519843621,77.5,0,90,3.0,0,0.0
0.21,0.005350271385530551,77.5,0,90,3.0,0,0.0
0.215,0.010381647827441833,77.5,0,90,3.0,0,0.0
0.22,0.015115203303506243,77.5,0,90,3.0,0,0.0
0.225,0.021170964062928475,77.5,0,90,3.0,0,0.0
0.23,0.029082821134029553,77.5,0,90,3.0,0,0.0
0.235,0.03923107061708144,77.5,0,90,3.0,0,0.0
0.24,0.051969043308817596,77.5,0,90,3.0,0,0.0
0.245,0.06760532616283861,77.5,0,90,3.0,0,0.0
0.25,0.08636519236693461,77.5,0,90,3.0,0,0.0
0.255,0.10834733138818661,77.5,0,90,3.0,0,0.0
0.26,0.1334809643017884,77.5,0,90,3.0,0,0.0
0.265,0.16148868344343945,77.5,0,90,3.0,0,0.0
0.27,0.191860907532018,77.5,0,90,3.0,0,0.0
0.275,0.22384764873847726,77.5,0,90,3.0,0,0.0
0.28,0.25647215537198226,77.5,0,90,3.0,0,0.0
0.285,0.2885689161419028,77.5,0,90,3.0,0,0.0
0.29,0.31884566517832524,77.5,0,90,3.0,0,0.0
0.295,0.3459657668955683,77.5,0,90,3.0,0,0.0
0.3,0.3686441789190902,77.5,0,90,3.0,0,0.0
0.305,0.3857476379544367,77.5,0,90,3.0,0,0.0
0.31,0.3963882865005728,77.5,0,90,3.0,0,0.0
0.315,0.4,77.5,0,90,3.0,0,0.0
0.32,0.39638828650057273,77.5,0,90,3.0,0,0.0
0.325,0.38574763795443656,77.5,0,90,3.0,0,0.0
0.33,0.36864417891908974,77.5,0,90,3.0,0,0.0
0.335,0.345965766895568,77.5,0,90,3.0,0,0.0
0.34,0.3188456651783249,77.5,0,90,3.0,0,0.0
0.345,0.28856891614190205,77.5,0,90,3.0,0,0.0
0.35,0.2564721553719815,77.5,0,90,3.0,0,0.0
0.355,0.22384764873847685,77.5,0,90,3.0,0,0.0
0.36,0.19186090753201765,77.5,0,90,3.0,0,0.0
0.365,0.16148868344343878,77.5,0,90,3.0,0,0.0
0.37,0.1334809643017881,77.5,0,90,3.0,0,0.0
0.375,0.10834733138818531,77.5,0,90,3.0,0,0.0
0.38,0.08636519236690572,77.5,0,90,3.0,0,0.0
0.385,0.06760532616242629,77.5,0,90,3.0,0,0.0
0.39,0.05196904332202373,77.5,0,90,3.0,0,0.0
0.395,0.03923107185803287,77.5,0,90,3.0,0,0.0
0.4,0.02908287038705761,77.5,0,90,3.0,0,0.0
0.405,0.02117220077308346,77.5,0,90,3.0,0,0.0
0.41,0.0151361834125735,77.5,0,90,3.0,0,0.0
0.415,0.010626454858290009,77.5,0,90,3.0,0,0.0
0.42,0.007326255555493652,77.5,0,90,3.0,0,0.0
0.425,0.004960179211183015,77.5,0,90,3.0,0,0.0
0.43,0.0032978759379303545,77.5,0,90,3.0,0,0.0
0.435,0.002153242296767213,77.5,0,90,3.0,0,0.0
0.44,0.001380616732225004,77.5,0,90,3.0,0,0.0
0.445,0.0008693106590991584,77.5,0,90,3.0,0,0.0
0.45,0.000537524815942247,77.5,0,90,3.0,0,0.0
0.455,0.0003263951340288585,77.5,0,90,3.0,0,0.0
0.46,0.00019463030985187395,77.5,0,90,3.0,0,0.0
0.465,0.00011397219555062695,77.5,0,90,3.0,0,0.0
0.47,6.55403863487943e-05,77.5,0,90,3.0,0,0.0
0.475,3.701184389455385e-05,77.5,0,90,3.0,0,0.0
0.48,2.0525516217290957e-05,77.5,0,90,3.0,0,0.0
0.485,1.1178128483661116e-05,77.5,0,90,3.0,0,0.0
0.49,5.978135409912517e-06,77.5,0,90,3.0,0,0.0
0.495,3.1396702713238487e-06,77.5,0,90,3.0,0,0.0
0.5,1.6192875458531019e-06,77.5,0,90,3.0,0,0.0
0.505,8.201353897972012e-07,77.5,0,90,3.0,0,0.0
0.51,4.0791415086824765e-07,77.5,0,90,3.0,0,0.0
0.515,1.9923866938774793e-07,77.5,0,90,3.0,0,0.0
0.52,9.556527981051257e-08,77.5,0,90,3.0,0,0.0
0.525,4.501406988770349e-08,77.5,0,90,3.0,0,0.0
0.53,0.0,77.5,0,90,3.0,0,0.0
0.535,0.0,77.5,0,90,3.0,0,0.0
0.54,0.0,77.5,0,90,3.0,0,0.0
0.545,0.0,77.5,0,90,3.0,0,0.0
0.55,0.0,77.5,0,90,3.0,0,0.0
0.555,0.0,77.5,0,90,3.0,0,0.0
0.56,0.0,77.5,0,90,3.0,0,0.0
0.565,0.0,77.5,0,90,3.0,0,0.0
0.57,0.0,77.5,0,90,3.0,0,0.0
0.575,0.0,77.5,0,90,3.0,0,0.0
0.58,0.0,77.5,0,90,3.0,0,0.0
0.585,0.0,77.5,0,90,3.0,0,0.0
0.59,0.0,77.5,0,90,3.0,0,0.0
0.595,0.0,77.5,0,90,3.0,0,0.0
0.6,0.0,77.5,0,90,3.0,0,0.0
0.605,0.0,77.5,0,90,3.0,0,0.0
0.61,0.0,77.5,0,90,3.0,0,0.0
0.615,0.0,77.5,0,90,3.0,0,0.0
0.62,0.0,77.5,0,90,3.0,0,0.0
0.625,0.0,77.5,0,90,3.0,0,0.0
0.63,0.0,77.5,0,90,3.0,0,0.0
0.635,0.0,77.5,0,90,3.0,0,0.0
0.64,0.0,77.5,0,90,3.0,0,0.0
0.645,0.0,77.5,0,90,3.0,0,0.0
0.65,0.0,77.5,0,90,3.0,0,0.0
0.655,0.0,77.5,0,90,3.0,0,0.0
0.66,0.0,77.5,0,90,3.0,0,0.0
0.665,0.0,77.5,0,90,3.0,0,0.0
0.67,0.0,77.5,0,90,3.0,0,0.0
0.675,0.0,77.5,0,90,3.0,0,0.0
0.68,0.0,77.5,0,90,3.0,0,0.0
0.685,0.0,77.5,0,90,3.0,0,0.0
0.69,0.001684486749771458,77.5,0,90,3.0,0,0.0
0.695,0.004172395771277602,77.5,0,90,3.0,0,0.0
0.7,0.009438687428818865,77.5,0,90,3.0,0,0.0
0.705,0.019500507867137046,77.5,0,90,3.0,0,0.0
0.71,0.03679496976339974,77.5,0,90,3.0,0,0.0
0.715,0.06340728953298436,77.5,0,90,3.0,0,0.0
0.72,0.09979255396093453,77.5,0,90,3.0,0,0.0
0.725,0.14343835518453557,77.5,0,90,3.0,0,0.0
0.73,0.18829581417209276,77.5,0,90,3.0,0,0.0
0.735,0.2257481735193119,77.5,0,90,3.0,0,0.0
0.74,0.24718154073554727,77.5,0,90,3.0,0,0.0
0.745,0.24718154074102772,77.5,0,90,3.0,0,0.0
0.75,0.22574817354072055,77.5,0,90,3.0,0,0.0
0.755,0.18829581422840957,77.5,0,90,3.0,0,0.0
0.76,0.14343835532456656,77.5,0,90,3.0,0,0.0
0.765,0.09979255431561854,77.5,0,90,3.0,0,0.0
0.77,0.06340729067170194,77.5,0,90,3.0,0,0.0
0.775,0.03679497683410042,77.5,0,90,3.0,0,0.0
0.78,0.019500578284482293,77.5,0,90,3.0,0,0.0
0.785,0.009439396781978427,77.5,0,90,3.0,0,0.0
0.79,0.004178588733610924,77.5,0,90,3.0,0,0.0
0.795,0.0017299316936037381,77.5,0,90,3.0,0,0.0
0.8,0.0008997325756988589,77.5,0,90,3.0,0,0.0
0.805,0.001634769674224814,77.5,0,90,3.0,0,0.0
0.81,0.00614904736476635,77.5,0,90,3.0,0,0.0
0.815,0.02168080359963608,77.5,0,90,3.0,0,0.0
0.82,0.06433400338904088,77.5,0,90,3.0,0,0.0
0.825,0.1593410769217493,77.5,0,90,3.0,0,0.0
0.83,0.3291989194808569,77.5,0,90,3.0,0,0.0
0.835,0.5672906802982638,77.5,0,90,3.0,0,0.0
0.84,0.815339152120446,77.5,0,90,3.0,0,0.0
0.845,0.9768711246313155,77.50000285552753,1,90,3.0,0,5.887685621515986e-08
0.85,0.9726380909165361,77.50000520447219,0,90,3.0,0,1.0730870491391488e-07
0.855,0.7921091683291741,77.50000995709195,0,90,3.0,0,2.053008648948252e-07
0.86,0.49139090102639077,77.50002056893659,0,90,3.0,0,4.2410178538769276e-07
0.865,0.15739335672107918,77.50004661724779,0,90,3.0,0,9.61180366803748e-07
0.87,-0.11102342218909485,77.5001147729744,0,90,3.0,0,2.366453080393859e-06
0.875,-0.2314207883647528,77.50029764967344,0,90,3.0,0,6.137106668905655e-06
0.88,-0.2029124434754801,77.500785544837,0,90,3.0,0,1.6196800762904832e-05
0.885,-0.11151350554305876,77.50205444575526,0,90,3.0,0,4.235970629408548e-05
0.89,-0.039430666652076896,77.50523518400281,0,90,3.0,0,0.00010794193820234542
0.895,-0.006087703519843621,77.5128715865154,0,90,3.0,0,0.0002653935364000433
0.9,0.005350271385530551,77.53036900776213,0,90,3.0,0,0.000626165108497579
0.905,0.010381647827441833,77.56855265968096,0,90,3.0,0,0.0014134569006383694
0.91,0.015115203303506243,77.64780523667532,0,90,3.0,0,0.003047530653099477
0.915,0.021170964062928475,77.80410206391555,0,90,3.0,0,0.006270145647743309
0.92,0.029082821134029553,78.09673098914041,0,90,3.0,0,0.012303731734853843
0.925,0.03923107061708144,78.61642614987835,0,90,3.0,0,0.02301909587378042
0.93,0.051969043308817596,79.4910919701668,0,90,3.0,0,0.04105344268385168
0.935,0.06760532616283861,80.88464026599783,0,90,3.0,0,0.06978639723706868
0.94,0.08636519236693461,82.98356379225271,0,90,3.0,0,0.11306317097428267
0.945,0.10834733138818661,85.96688820539036,0,90,3.0,0,0.17457501454413116
0.95,0.1334809643017884,89.95903925839481,0,90,3.0,0,0.2568874073895837
0.955,0.16148868344343945,94.97189481779964,0,90,3.0,0,0.36024525397525026
0.96,0.191860907532018,100.85015339549444,0,90,3.0,0,0.48144646176277206
0.965,0.22384764873847726,107.23978686486039,0,90,3.0,0,0.6131914817496988
0.97,0.25647215537198226,113.59888774071936,0,90,3.0,0,0.7443069637261724
0.975,0.2885689161419028,119.26134258801082,0,90,3.0,0,0.8610586100620787
0.98,0.31884566517832524,123.54766026960566,0,90,3.0,0,0.9494362942186734
0.985,0.3459657668955683,125.89923871534836,0,90,3.0,0,0.9979224477391414
0.99,0.3686441789190902,126.0,0,90,3.0,0,1.0
0.995,0.3857476379544367,123.84907570229969,0,90,3.0,0,0.955651045408241
1.0,0.3963882865005728,119.7616889687283,0,90,3.0,0,0.8713750302830576
1.005,0.4,114.29793734683884,0,90,3.0,0,0.7587203576667801
1.01,0.39638828650057273,108.14185634187781,0,90,3.0,0,0.6317908524098518
1.015,0.38574763795443656,101.9669055072934,0,90,3.0,0,0.5044722785008949
1.02,0.36864417891908974,96.32410807616269,0,90,3.0,0,0.3881259397146946
1.025,0.345965766895568,91.5769525838489,0,90,3.0,0,0.2902464450278122
1.03,0.3188456651783249,87.88916740062149,0,90,3.0,0,0.21420963712621627
1.035,0.28856891614190205,85.25525676975919,0,90,3.0,0,0.15990220143833372
1.04,0.2564721553719815,83.5546076577607,0,90,3.0,0,0.12483727129403502
1.045,0.22384764873847685,82.60933738960881,0,90,3.0,0,0.10534716267234662
1.05,0.19186090753201765,82.23158842901915,0,90,3.0,0,0.0975585243096733
1.055,0.16148868344343878,82.25383195221784,0,90,3.0,0,0.09801715365397602
1.06,0.1334809643017881,82.54253002609308,0,90,3.0,0,0.10396969125965104
1.065,0.10834733138818531,82.99947464006678,0,90,3.0,0,0.11339122969209854
1.07,0.08636519236690572,83.55619835507063,0,90,3.0,0,0.12487006917671412
1.075,0.06760532616242629,84.16597981518647,0,90,3.0,0,0.13744288278735
1.08,0.05196904332202373,84.79631481539536,0,90,3.0,0,0.1504394807298013
1.085,0.03923107185803287,85.42315549922839,0,90,3.0,0,0.1633640309119255
1.09,0.02908287038705761,86.02714157677354,0,90,3.0,0,0.1758173520984236
1.095,0.02117220077308346,86.59149776477696,0,90,3.0,0,0.1874535621603497
1.1,0.0151361834125735,87.10110657272229,0,90,3.0,0,0.1979609602623152
1.105,0.010626454858290009,87.54230692597022,0,90,3.0,0,0.20705787476227264
1.11,0.007326255555493652,87.90308268100586,0,90,3.0,0,0.21449655012383206
1.115,0.004960179211183015,88.17341751366388,0,90,3.0,0,0.22007046419925522
1.12,0.0032978759379303545,88.34567729336746,0,90,3.0,0,0.22362221223438059
1.125,0.002153242296767213,88.41493667849002,0,90,3.0,0,0.22505024079360872
1.13,0.001380616732225004,88.37920128564389,0,90,3.0,0,0.22431342856997705
1.135,0.0008693106590991584,88.23949893803727,0,90,3.0,0,0.22143296779458294
1.14,0.000537524815942247,87.99982916518661,0,90,3.0,0,0.21649132299353838
1.145,0.0003263951340288585,87.66697253824412,0,90,3.0,0,0.2096282997576108
1.15,0.00019463030985187395,87.25017186629793,0,90,3.0,0,0.20103447147006048
1.155,0.00011397219555062695,86.76070595231047,0,90,3.0,0,0.19094239076928812
1.16,6.55403863487943e-05,86.2113832602049,0,90,3.0,0,0.17961614969494633
1.165,3.701184389455385e-05,85.61598714496203,0,90,3.0,0,0.1673399411332378
1.17,2.0525516217290957e-05,84.98870603231623,0,90,3.0,0,0.15440630994466453
1.175,1.1178128483661116e-05,84.34358109610417,0,90,3.0,0,0.14110476486812729
1.18,5.978135409912517e-06,83.6940007858222,0,90,3.0,0,0.1277113564087051
1.185,3.1396702713238487e-06,83.05226642030458,0,90,3.0,0,0.11447972000627993
1.19,1.6192875458531019e-06,82.4292465496576,0,90,3.0,0,0.1016339494774764
1.195,8.201353897972012e-07,81.83413054256579,0,90,3.0,0,0.08936351634156264
1.2,4.0791415086824765e-07,81.2742845367467,0,90,3.0,0,0.0778202997267362
1.205,1.9923866938774793e-07,80.75520609839504,0,90,3.0,1,0.0671176515132997
1.21,9.556527981051257e-08,80.28056816437005,0,90,3.0,1,0.05733130235814541
1.215,4.501406988770349e-08,79.8523384350145,0,90,3.0,1,0.04850182340236087
1.22,0.0,79.47095752906112,0,90,3.0,1,0.0406382995682706
1.225,0.0,79.1355579274932,0,90,3.0,1,0.03372284386583908
1.23,0.0,78.84420590116895,0,90,3.0,1,0.02771558559111233
1.235,0.0,78.59415000792092,0,90,3.0,1,0.02255979397775085
1.24,0.0,78.38206205733981,0,90,3.0,1,0.01818684654308884
1.245,0.0,78.20425934252283,0,90,3.0,1,0.01452081118603777
1.25,0.0,78.05690009997573,0,90,3.0,1,0.011482476288159484
1.255,0.0,77.93614728935393,0,90,3.0,1,0.00899272761554486
1.26,0.0,77.83829864822604,0,90,3.0,1,0.006975229860330794
1.265,0.0,77.75988340609467,0,90,3.0,1,0.005358420744220059
1.27,0.0,77.69772793951074,0,90,3.0,1,0.0040768647321802395
1.275,0.0,77.6489939843806,0,90,3.0,1,0.0030720409150638275
1.28,0.0,77.61119381491554,0,90,3.0,1,0.002292655977639955
1.285,0.0,77.58218711388949,0,90,3.0,1,0.0016945796678245193
1.29,0.0,77.5601641841833,0,90,3.0,1,0.0012404986429544937
1.295,0.0,77.5436197866701,0,90,3.0,1,0.0008993770447444632
1.3,0.0,77.53132133361025,0,90,3.0,1,0.0006458006929948596
1.305,0.0,77.52227450985573,0,90,3.0,1,0.00045926824444812335
1.31,0.0,77.51568871125951,0,90,3.0,1,0.00032347858267039835
1.315,0.0,77.51094403786472,0,90,3.0,1,0.00022565026525191484
1.32,0.0,77.50756099771273,0,90,3.0,1,0.00015589686005628865
1.325,0.0,77.50517358786546,0,90,3.0,1,0.00010667191475168768
1.33,0.0,77.50350603102491,0,90,3.0,1,7.228929948272585e-05
1.335,0.0,77.50235315688904,0,90,3.0,1,4.85186987431621e-05
1.34,0.0,77.50156421776774,0,90,3.0,1,3.225191273683317e-05
1.345,0.0,77.50102980441392,0,90,3.0,1,2.1233080699332895e-05
1.35,0.0,77.50067146516402,0,90,3.0,1,1.3844642557073384e-05
1.355,0.0,77.50043361413033,0,90,3.0,1,8.940497532573796e-06
1.36,0.0,77.50027732854254,0,90,3.0,1,5.718114279127888e-06
1.365,0.0,77.50017566972248,0,90,3.0,1,3.622056133621037e-06
1.37,0.0,77.50011020732575,0,90,3.0,1,2.272315994784933e-06
1.375,0.0,77.50006847550058,0,90,3.0,1,1.4118659914130177e-06
1.38,0.0,77.50004213773335,0,90,3.0,1,8.688192442323927e-07
1.385,0.0,77.50002568137829,0,90,3.0,1,5.295129544274741e-07
1.39,0.0,77.50001550160579,0,90,3.0,1,3.1962073788554804e-07
1.395,0.0,77.50000926715127,0,90,3.0,1,1.9107528392504315e-07
1.4,0.0,77.50000548689967,0,90,3.0,1,1.1313195189818685e-07
1.405,0.0,77.5000032175032,0,90,3.0,1,6.63402722904683e-08
1.41,0.0,77.50000186862502,0,90,3.0,1,3.852835092890093e-08
1.415,0.001684486749771458,77.50000107482197,0,90,3.0,1,2.2161277660622368e-08
1.42,0.004172395771277602,77.50000061229697,0,90,3.0,1,1.2624679839907763e-08
1.425,0.009438687428818865,77.50000034546089,0,90,3.0,1,7.122904950856818e-09
1.43,0.019500507867137046,77.50000019303981,0,90,3.0,1,3.980202266284698e-09
1.435,0.03679496976339974,77.50000010683316,0,90,3.0,1,2.2027454774287593e-09
1.44,0.06340728953298436,77.50000005855668,0,90,3.0,1,1.2073542166035622e-09
1.445,0.09979255396093453,77.50000003178762,0,90,3.0,1,6.554148747210964e-10
1.45,0.14343835518453557,77.50000001709034,0,90,3.0,1,3.523782136644232e-10
1.455,0.18829581417209276,77.50000000910028,0,90,3.0,1,1.8763455852056666e-10
1.46,0.2257481735193119,77.50000000479922,0,90,3.0,1,9.895296495143185e-11
1.465,0.24718154073554727,77.50000000250667,0,90,3.0,1,5.1683853073591685e-11
1.47,0.24718154074102772,77.50000000129668,0,90,3.0,1,2.673574534728499e-11
1.475,0.22574817354072055,77.50000000066433,0,90,3.0,1,1.3697505901572438e-11
1.48,0.18829581422840957,77.50000000033708,0,90,3.0,1,6.9501334813317844e-12
1.485,0.14343835532456656,77.5000000001694,0,90,3.0,1,3.4926471794888225e-12
1.49,0.09979255431561854,77.50000000008431,0,90,3.0,1,1.7384123922740925e-12
1.495,0.06340729067170194,77.50000000004157,0,90,3.0,1,8.570463926178528e-13
1.5,0.03679497683410042,77.5000000000203,0,90,3.0,1,4.1841444398574145e-13
1.505,0.019500578284482293,77.5000000000098,0,90,3.0,1,2.021750464636986e-13
1.51,0.009439396781978427,77.5000000000047,0,90,3.0,1,9.698542083983223e-14
1.515,0.004178588733610924,77.50000000000223,0,90,3.0,1,4.600214825333432e-14
1.52,0.0017299316936037381,77.50000000000105,0,90,3.0,1,2.1682541214947386e-14
1.525,0.0008997325756988589,77.50000000000048,0,90,3.0,1,9.962248666327177e-15
1.53,0.001634769674224814,77.50000000000023,0,90,3.0,1,4.688117019448084e-15
1.535,0.00614904736476635,77.5000000000001,0,90,3.0,1,2.0510511960085364e-15
1.54,0.02168080359963608,77.50000000000004,0,90,3.0,1,8.790219411465157e-16
1.545,0.06433400338904088,77.50000000000001,0,90,3.0,1,2.9300731371550523e-16
1.55,0.1593410769217493,77.50000000000001,0,90,3.0,1,2.9300731371550523e-16
1.555,0.3291989194808569,77.5,0,90,3.0,1,0.0
1.56,0.5672906802982638,77.5,0,90,3.0,1,0.0
1.565,0.815339152120446,77.5,0,90,3.0,1,0.0
1.57,0.9768711246313155,77.50000284586159,1,90,3.0,1,5.8677558500516847e-08
1.575,0.9726380909165361,77.50000527961552,0,90,3.0,1,1.0885805199295553e-07
1.58,0.7921091683291741,77.50001031954956,0,90,3.0,1,2.1277421772716367e-07
1.585,0.49139090102639077,77.5000219076864,0,90,3.0,1,4.517048742836215e-07
1.59,0.15739335672107918,77.5000513062313,0,90,3.0,1,1.0578604391548184e-06
1.595,-0.11102342218909485,77.50013076005604,0,90,3.0,1,2.6960836296509407e-06
1.6,-0.2314207883647528,77.50035020381222,0,90,3.0,1,7.220697159130761e-06
1.605,-0.2029124434754801,77.50095018691317,0,90,3.0,1,1.9591482745824776e-05
1.61,-0.11151350554305876,77.50254252172627,0,90,3.0,1,5.242312837668747e-05
1.615,-0.039430666652076896,77.50659976740856,0,90,3.0,1,0.00013607767852699768
1.62,-0.006087703519843621,77.51646537881305,0,90,3.0,1,0.00033949234666087036
1.625,0.005350271385530551,77.53928253215116,0,90,3.0,1,0.00080994911651881
1.63,0.010381647827441833,77.58937615985101,0,90,3.0,1,0.0018428074196085336
1.635,0.015115203303506243,77.69363594416527,0,90,3.0,1,0.003992493694129186
1.64,0.021170964062928475,77.89914273187748,0,90,3.0,1,0.008229747049020112
1.645,0.029082821134029553,78.28242166935907,0,90,3.0,1,0.016132405553795196
1.65,0.03923107061708144,78.95815265228912,0,90,3.0,1,0.03006500313998176
1.655,0.051969043308817596,80.08310908029944,0,90,3.0,1,0.05325998103710179
1.66,0.06760532616283861,81.84927459141106,0,90,3.0,1,0.08967576477136206
1.665,0.08636519236693461,84.45983730743244,0,90,3.0,1,0.14350180015324612
1.67,0.10834733138818661,88.08459313200352,0,90,3.0,1,0.2182390336495571
1.675,0.1334809643017884,92.79797719482352,0,90,3.0,1,0.31542221020254674
1.68,0.16148868344343945,98.51242125918112,0,90,3.0,1,0.4332457991583737
1.685,0.191860907532018,104.92855626497301,0,90,3.0,1,0.5655372425767631
1.69,0.22384764873847726,111.52691835651606,0,90,3.0,1,0.7015859454951766
1.695,0.25647215537198226,117.61903404505797,0,90,3.0,1,0.827196578248618
1.7,0.2885689161419028,122.45858606973496,0,90,3.0,1,0.9269811560770096
1.705,0.31884566517832524,125.39083977274626,0,90,3.0,1,0.9874399953143559
1.71,0.3459657668955683,126.0,0,90,3.0,1,1.0
1.715,0.3686441789190902,124.20909158519541,0,90,3.0,1,0.9630740533029981
1.72,0.3857476379544367,120.29953639901376,0,90,3.0,1,0.8824646680209023
1.725,0.3963882865005728,114.84382327361675,0,90,3.0,1,0.7699757376003453
1.73,0.4,108.57369951396845,0,90,3.0,1,0.6406948353395556
1.735,0.39638828650057273,102.2258821880279,0,90,3.0,1,0.5098120038768639
1.74,0.38574763795443656,96.40992335364712,0,90,3.0,1,0.389895326879322
1.745,0.36864417891908974,91.52930221937348,0,90,3.0,1,0.2892639632860511
1.75,0.345965766895568,87.76478426184879,0,90,3.0,1,0.21164503632677914
1.755,0.3188456651783249,85.10862158827653,0,90,3.0,1,0.15687879563456772
1.76,0.28856891614190205,83.42656336784474,0,90,3.0,1,0.1221971828421595
1.765,0.2564721553719815,82.52378753042284,0,90,3.0,1,0.1035832480499554
1.77,0.22384764873847685,82.19783132916163,0,90,3.0,1,0.09686250163219856
1.775,0.19186090753201765,82.27134594925722,0,90,3.0,1,0.09837826699499432
1.78,0.16148868344343878,82.60568848479885,0,90,3.0,1,0.10527192752162572
1.785,0.1334809643017881,83.10088201483204,0,90,3.0,1,0.11548210339859873
1.79,0.10834733138818531,83.68840901871987,0,90,3.0,1,0.12759606224164674
1.795,0.08636519236690572,84.32197791292448,0,90,3.0,1,0.14065933841081404
1.8,0.06760532616242629,84.96931088968523,0,90,3.0,1,0.15400641009660274
1.805,0.05196904332202373,85.60616534397113,0,90,3.0,1,0.16713742977260057
1.81,0.03923107185803287,86.21263167382902,0,90,3.0,1,0.1796418901820417
1.815,0.02908287038705761,86.77121984433278,0,90,3.0,1,0.19115917204809849
1.82,0.02117220077308346,87.26614028210291,0,90,3.0,1,0.20136371715676102
1.825,0.0151361834125735,87.68327944307798,0,90,3.0,1,0.20996452459954595
1.83,0.010626454858290009,88.01051741167255,0,90,3.0,1,0.21671169920974334
1.835,0.007326255555493652,88.23816273562356,0,90,3.0,1,0.22140541722935178
1.84,0.004960179211183015,88.35936913531009,0,90,3.0,1,0.22390451825381627
1.845,0.0032978759379303545,88.3704549759066,0,90,3.0,1,0.22413309228673395
1.85,0.002153242296767213,88.27108106749418,0,90,3.0,1,0.22208414572152949
1.855,0.001380616732225004,88.06426526041847,0,90,3.0,1,0.2178199022766694
1.86,0.0008693106590991584,87.75622938752784,0,90,3.0,1,0.21146864716552244
1.865,0.000537524815942247,87.35608811985259,0,90,3.0,1,0.20321831174953786
1.87,0.0003263951340288585,86.87540102954962,0,90,3.0,1,0.1933072377226726
1.875,0.00019463030985187395,86.32761843902698,0,90,3.0,1,0.18201275132014386
1.88,0.00011397219555062695,85.72745804544682,0,90,3.0,1,0.16963831021539844
1.885,6.55403863487943e-05,85.09025249472462,0,90,3.0,1,0.1565000514376211
1.89,3.701184389455385e-05,84.43130793834682,0,90,3.0,1,0.14291356573910968
1.895,2.0525516217290957e-05,83.7653103417945,0,90,3.0,1,0.12918165653184543
1.9,1.1178128483661116e-05,83.10581041043784,0,90,3.0,1,0.11558371980284206
1.905,5.978135409912517e-06,82.46481016288601,0,90,3.0,1,0.1023672198533198
1.91,3.1396702713238487e-06,81.85246524967621,0,90,3.0,1,0.08974155153971576
1.915,1.6192875458531019e-06,81.276907956434,0,90,3.0,1,0.07787439085430932
1.92,8.201353897972012e-07,80.74418725350604,0,90,3.0,1,0.06689045883517611
1.925,4.0791415086824765e-07,80.25831492720756,0,90,3.0,1,0.056872472725929164
1.93,1.9923866938774793e-07,79.82140122596148,0,90,3.0,1,0.04786394280332949
1.935,9.556527981051257e-08,79.43385983225944,0,90,3.0,1,0.039873398603287494
1.94,4.501406988770349e-08,79.09466036456183,0,90,3.0,1,0.03287959514560479
1.945,0.0,78.80160686539986,0,90,3.0,1,0.026837254956698177
1.95,0.0,78.55162253760456,0,90,3.0,1,0.021682938919681614
1.955,0.0,78.34102394918298,0,90,3.0,1,0.017340699983154285
1.96,0.0,78.16577159895577,0,90,3.0,1,0.0137272494630056
1.965,0.0,78.02168769123986,0,90,3.0,1,0.010756447242059007
1.97,0.0,77.90463583247852,0,90,3.0,1,0.008343006855227193
1.975,0.0,77.81066083961933,0,90,3.0,1,0.006405378136481049
1.98,0.0,77.73608973677702,0,90,3.0,1,0.004867829624268409
1.985,0.0,77.67759720552577,0,90,3.0,1,0.003661798052077754
1.99,0.0,77.63224022257143,0,90,3.0,1,0.0027266025272458896
1.995,0.0,77.59746741293033,0,90,3.0,1,0.0020096373800067655
2.0,0.0,77.57110886220912,0,90,3.0,1,0.001466162107404441
2.005,0.0,77.55135189140306,0,90,3.0,1,0.0010588018845991423
2.01,0.0,77.53670773455,0,90,3.0,1,0.0007568605061856994
2.015,0.0,77.52597330075044,0,90,3.0,1,0.0005355319742358057
2.02,0.0,77.51819135838316,0,90,3.0,1,0.00037507955429202044
2.025,0.0,77.51261163923783,0,90,3.0,1,0.00026003379871818866
2.03,0.0,77.50865458747553,0,90,3.0,1,0.00017844510258831027
2.035,0.0,77.50587881276304,0,90,3.0,1,0.00012121263428955844
2.04,0.0,77.5039527678497,0,90,3.0,1,8.150036803498289e-05
2.045,0.0,77.5026307611049,0,90,3.0,1,5.424249700817218e-05
2.05,0.0,77.50173312521085,0,90,3.0,1,3.5734540429848964e-05
2.055,0.0,77.50113017810872,0,90,3.0,1,2.3302641416991072e-05
2.06,0.0,77.50072951170684,0,90,3.0,1,1.5041478491477542e-05
2.065,0.0,77.50046610747096,0,90,3.0,1,9.610463318680203e-06
2.07,0.0,77.50029478697198,0,90,3.0,1,6.078081896445378e-06
2.075,0.0,77.50018454357595,0,90,3.0,1,3.805022184636626e-06
2.08,0.0,77.5001143557486,0,90,3.0,1,2.357850486457688e-06
2.085,0.0,77.50007014318696,0,90,3.0,1,1.446251277527444e-06
2.09,0.0,77.50004258742786,0,90,3.0,1,8.780912960048095e-07
2.095,0.0,77.50002559444704,0,90,3.0,1,5.277205574886991e-07
2.1,0.0,77.50001522574371,0,90,3.0,1,3.139328599872053e-07
2.105,0.0,77.5000089656071,0,90,3.0,1,1.8485787822822944e-07
2.11,0.0,77.50000522575824,0,90,3.0,1,1.0774759265793186e-07
2.115,0.0,77.50000301500023,0,90,3.0,1,6.21649532309e-08
2.12,0.001684486749771458,77.50000172184403,0,90,3.0,1,3.5501938745040105e-08
2.125,0.004172395771277602,77.50000097334923,0,90,3.0,1,2.0069056299970978e-08
2.13,0.009438687428818865,77.50000054464309,0,90,3.0,1,1.1229754354363397e-08
2.135,0.019500507867137046,77.50000030166417,0,90,3.0,1,6.219879850570728e-09
2.14,0.03679496976339974,77.50000016538796,0,90,3.0,1,3.410061017066911e-09
2.145,0.06340728953298436,77.50000008975371,0,90,3.0,1,1.850592000373956e-09
2.15,0.09979255396093453,77.5000000482136,0,90,3.0,1,9.940947034620061e-10
2.155,0.14343835518453557,77.50000002563627,0,90,3.0,1,5.285828498842617e-10
2.16,0.18829581417209276,77.50000001349301,0,90,3.0,1,2.782063422704802e-10
2.165,0.2257481735193119,77.50000000702961,0,90,3.0,1,1.449404628390804e-10
2.17,0.24718154073554727,77.50000000362512,0,90,3.0,1,7.474470069225681e-11
2.175,0.24718154074102772,77.50000000185047,0,90,3.0,1,3.8153947355464515e-11
2.18,0.22574817354072055,77.50000000093499,0,90,3.0,1,1.927812319859795e-11
2.185,0.18829581422840957,77.50000000046764,0,90,3.0,1,9.641991672436131e-12
2.19,0.14343835532456656,77.50000000023151,0,90,3.0,1,4.773382147739296e-12
2.195,0.09979255431561854,77.50000000011345,0,90,3.0,1,2.3390773853908783e-12
2.2,0.06340729067170194,77.50000000005502,0,90,3.0,1,1.1345243187064363e-12
2.205,0.03679497683410042,77.50000000002642,0,90,3.0,1,5.447005961971242e-13
2.21,0.019500578284482293,77.50000000001256,0,90,3.0,1,2.590184653245066e-13
2.215,0.009439396781978427,77.50000000000591,0,90,3.0,1,1.2189104250565017e-13
2.22,0.004178588733610924,77.50000000000276,0,90,3.0,1,5.684341886080802e-14
2.225,0.0017299316936037381,77.50000000000126,0,90,3.0,1,2.6077650920679964e-14
2.23,0.0008997325756988589,77.50000000000058,0,90,3.0,1,1.2013299862335714e-14
2.235,0.001634769674224814,77.50000000000026,0,90,3.0,1,5.274131646879094e-15
2.24,0.00614904736476635,77.50000000000011,0,90,3.0,1,2.344058509724042e-15
2.245,0.02168080359963608,77.50000000000006,0,90,3.0,1,1.172029254862021e-15
2.25,0.06433400338904088,77.50000000000003,0,90,3.0,1,5.860146274310105e-16
2.255,0.1593410769217493,77.50000000000001,0,90,3.0,1,2.9300731371550523e-16
2.26,0.3291989194808569,77.5,0,90,3.0,1,0.0
2.265,0.5672906802982638,77.5,0,90,3.0,1,0.0
2.27,0.815339152120446,77.5,0,90,3.0,1,0.0
2.275,0.9768711246313155,77.50000284359693,1,90,3.0,1,5.8630864561995826e-08
2.28,0.9726380909165361,77.50000548419933,0,90,3.0,1,1.1307627494144193e-07
2.285,0.7921091683291741,77.50001124088986,0,90,3.0,1,2.317709249813767e-07
2.29,0.49139090102639077,77.50002536697961,0,90,3.0,1,5.230305075000024e-07
2.295,0.15739335672107918,77.50006389056809,0,90,3.0,1,1.3173313007395262e-06
2.3,-0.11102342218909485,77.50017550461766,0,90,3.0,1,3.6186519104816886e-06
2.305,-0.2314207883647528,77.50050312573545,0,90,3.0,1,1.037372650410024e-05
2.31,-0.2029124434754801,77.50144560488555,0,90,3.0,1,2.9806286299926985e-05
2.315,-0.11151350554305876,77.50405253381912,0,90,3.0,1,8.355739833237495e-05
2.32,-0.039430666652076896,77.51091584732082,0,90,3.0,1,0.0002250690169240588
2.325,-0.006087703519843621,77.52802210333864,0,90,3.0,1,0.0005777753265699489
2.33,0.005350271385530551,77.56826624200473,0,90,3.0,1,0.0014075513815407234
2.335,0.010381647827441833,77.65747108052543,0,90,3.0,1,0.003246826402586094
2.34,0.015115203303506243,77.84353029025743,0,90,3.0,1,0.007083098768194506
2.345,0.021170964062928475,78.208294728616,0,90,3.0,1,0.014604015023010236
2.35,0.029082821134029553,78.87971080766134,0,90,3.0,1,0.02844764551879051
2.355,0.03923107061708144,80.03860769687986,0,90,3.0,1,0.052342426739791025
2.36,0.051969043308817596,81.9114678020172,0,90,3.0,1,0.0909580990106639
2.365,0.06760532616283861,84.73967911802492,0,90,3.0,1,0.14927173439226646
2.37,0.08636519236693461,88.71983424376735,0,90,3.0,1,0.23133678853128561
2.375,0.10834733138818661,93.92009701837561,0,90,3.0,1,0.3385587014098065
2.38,0.1334809643017884,100.19265177353559,0,90,3.0,1,0.46788972728939354
2.385,0.16148868344343945,107.11553201194583,0,90,3.0,1,0.6106295260195017
2.39,0.191860907532018,113.99980843728613,0,90,3.0,1,0.7525733698409512
2.395,0.22384764873847726,119.98355460807562,0,90,3.0,1,0.8759495795479509
2.4,0.25647215537198226,124.2034706308707,0,90,3.0,1,0.9629581573375402
2.405,0.2885689161419028,126.0,0,90,3.0,1,1.0
2.41,0.31884566517832524,125.0896730388076,0,90,3.0,2,0.9812303719341774
2.415,0.3459657668955683,121.64309031720336,0,90,3.0,2,0.9101668106639867
2.42,0.3686441789190902,116.23941024525399,0,90,3.0,2,0.7987507267062679
2.425,0.3857476379544367,109.71438740562652,0,90,3.0,2,0.6642141733118871
2.43,0.3963882865005728,102.95711288915504,0,90,3.0,2,0.5248889255495884
2.435,0.4,96.72341910788755,0,90,3.0,2,0.39635915686366086
2.44,0.39638828650057273,91.51813811820595,0,90,3.0,2,0.28903377563311244
2.445,0.38574763795443656,87.5651096594767,0,90,3.0,2,0.2075280342160145
2.45,0.36864417891908974,84.85055753012354,0,90,3.0,2,0.15155788721904204
2.455,0.345965766895568,83.20599367449054,0,90,3.0,2,0.11764935411320707
2.46,0.3188456651783249,82.39522658019695,0,90,3.0,2,0.10093250680818448
2.465,0.28856891614190205,82.18134970860318,0,90,3.0,2,0.09652267440418925
2.47,0.2564721553719815,82.36490781207327,0,90,3.0,2,0.10030737756852103
2.475,0.22384764873847685,82.79649701173709,0,90,3.0,2,0.10920612395334202
2.48,0.19186090753201765,83.37281201706614,0,90,3.0,2,0.12108890756837398
2.485,0.16148868344343878,84.02539184144003,0,90,3.0,2,0.1345441616791758
2.49,0.1334809643017881,84.70859251846929,0,90,3.0,2,0.14863077357668636
2.495,0.10834733138818531,85.39005201648826,0,90,3.0,2,0.1626814848760465
2.5,0.08636519236690572,86.044472758779,0,90,3.0,2,0.17617469605729885
2.505,0.06760532616242629,86.65025529584166,0,90,3.0,2,0.1886650576462198
2.51,0.05196904332202373,87.18810890053072,0,90,3.0,2,0.19975482269135508
2.515,0.03923107185803287,87.64083038423249,0,90,3.0,2,0.2090892862728348
2.52,0.02908287038705761,87.99366494888493,0,90,3.0,2,0.21636422575020467
2.525,0.02117220077308346,88.23487689607546,0,90,3.0,2,0.2213376679603188
2.53,0.0151361834125735,88.35631072246048,0,90,3.0,2,0.2238414581950614
2.535,0.010626454858290009,88.35381801207184,0,90,3.0,2,0.22379006210457403
2.54,0.007326255555493652,88.22748246937488,0,90,3.0,2,0.22118520555412116
2.545,0.004960179211183015,87.98161207029037,0,90,3.0,2,0.21611571278949213
2.55,0.0032978759379303545,87.62449423525337,0,90,3.0,2,0.20875245845883228
2.555,0.002153242296767213,87.1679318019965,0,90,3.0,2,0.199338800041165
2.56,0.001380616732225004,86.62659553682514,0,90,3.0,2,0.18817722756340485
2.565,0.0008693106590991584,86.01724256371354,0,90,3.0,2,0.1756132487363616
2.57,0.000537524815942247,85.35785865287932,0,90,3.0,2,0.16201770418307868
2.575,0.0003263951340288585,84.66678530372789,0,90,3.0,2,0.1477687691490287
2.58,0.00019463030985187395,83.96189001381458,0,90,3.0,2,0.1332348456456615
2.585,0.00011397219555062695,83.25983064690726,0,90,3.0,2,0.11875939478159302
2.59,6.55403863487943e-05,82.57545348721757,0,90,3.0,2,0.10464852550964067
2.595,3.701184389455385e-05,81.92135081114074,0,90,3.0,2,0.09116187239465445
2.6,2.0525516217290957e-05,81.30758917718623,0,90,3.0,2,0.07850699334404598
2.605,1.1178128483661116e-05,80.74160562584288,0,90,3.0,2,0.06683722939882226
2.61,5.978135409912517e-06,80.22825686325584,0,90,3.0,2,0.05625271883001725
2.615,3.1396702713238487e-06,79.76999719568829,0,90,3.0,2,0.046804065890480216
2.62,1.6192875458531019e-06,79.36715499256925,0,90,3.0,2,0.03849804108390215
2.625,8.201353897972012e-07,79.01827487455601,0,90,3.0,2,0.03130463658878378
2.63,4.0791415086824765e-07,78.72049337182925,0,90,3.0,2,0.0251648117902938
2.635,1.9923866938774793e-07,78.46991891897598,0,90,3.0,2,0.01999832822630882
2.64,9.556527981051257e-08,78.26199201676988,0,90,3.0,2,0.015711175603502697
2.645,4.501406988770349e-08,78.09180740822781,0,90,3.0,2,0.01220221460263522
2.65,0.0,77.95438643595452,0,90,3.0,2,0.009368792493907593
2.655,0.0,77.8448937347729,0,90,3.0,2,0.007111211026245273
2.66,0.0,77.75879759554243,0,90,3.0,2,0.005336032897782116
2.665,0.0,77.69197742146481,0,90,3.0,2,0.003958297349789957
2.67,0.0,77.640784569316,0,90,3.0,2,0.0029027746250721038
2.675,0.0,77.60206455450907,0,90,3.0,2,0.0021044238043107246
2.68,0.0,77.5731492398329,0,90,3.0,2,0.0015082317491319794
2.685,0.0,77.55182743021956,0,90,3.0,2,0.0010686068086507364
2.69,0.0,77.53630149568863,0,90,3.0,2,0.0007484844471883127
2.695,0.0,77.52513647346169,0,90,3.0,2,0.0005182778033337254
2.7,0.0,77.51720676241366,0,90,3.0,2,0.0003547786064673088
2.705,0.0,77.511644181374,0,90,3.0,2,0.00024008621389681167
2.71,0.0,77.50778993342809,0,90,3.0,2,0.00016061718408424248
2.715,0.0,77.50515197226336,0,90,3.0,2,0.00010622623223428528
2.72,0.0,77.50336843577756,0,90,3.0,2,6.945228407339903e-05
2.725,0.0,77.50217719842811,0,90,3.0,2,4.489068923947381e-05
2.73,0.0,77.50139117811788,0,90,3.0,2,2.868408490484136e-05
2.735,0.0,77.50087878462313,0,90,3.0,2,1.8119270579912145e-05
2.74,0.0,77.50054877857231,0,90,3.0,2,1.1315022109465176e-05
2.745,0.0,77.50033878707026,0,90,3.0,2,6.985300417782878e-06
2.75,0.0,77.50020676236647,0,90,3.0,2,4.263141576790151e-06
2.755,0.0,77.50012474729766,0,90,3.0,2,2.5721092301349007e-06
2.76,0.0,77.50007440562757,0,90,3.0,2,1.5341366509712372e-06
2.765,0.0,77.5000438728055,0,90,3.0,2,9.045939279563829e-07
2.77,0.0,77.50002557407974,0,90,3.0,2,5.273006132535284e-07
2.775,0.0,77.50001473735715,0,90,3.0,2,3.038630339786548e-07
2.78,0.0,77.50000839564733,0,90,3.0,2,1.7310613046545994e-07
2.785,0.001684486749771458,77.50000472828614,0,90,3.0,2,9.74904359394451e-08
2.79,0.004172395771277602,77.50000263249952,0,90,3.0,2,5.4278340539238665e-08
2.795,0.009438687428818865,77.50000144893144,0,90,3.0,2,2.987487510067366e-08
2.8,0.019500507867137046,77.50000078839227,0,90,3.0,2,1.6255510733581387e-08
2.805,0.03679496976339974,77.50000042408398,0,90,3.0,2,8.743999558777732e-09
2.81,0.06340728953298436,77.50000022551548,0,90,3.0,2,4.649803676113958e-09
2.815,0.09979255396093453,77.5000001185539,0,90,3.0,2,2.4444102915911515e-09
2.82,0.14343835518453557,77.50000006161271,0,90,3.0,2,1.270365146410768e-09
2.825,0.18829581417209276,77.5000000316548,0,90,3.0,2,6.526764283671113e-10
2.83,0.2257481735193119,77.5000000160777,0,90,3.0,2,3.3149909850368374e-10
2.835,0.24718154073554727,77.50000000807279,0,90,3.0,2,1.664492507169945e-10
2.84,0.24718154074102772,77.50000000400718,0,90,3.0,2,8.262220232149817e-11
2.845,0.22574817354072055,77.50000000196638,0,90,3.0,2,4.054400801344189e-11
2.85,0.18829581422840957,77.50000000095392,0,90,3.0,2,1.9668408940467004e-11
2.855,0.14343835532456656,77.50000000045748,0,90,3.0,2,9.432491443129545e-12
2.86,0.09979255431561854,77.50000000021689,0,90,3.0,2,4.471877621926041e-12
2.865,0.06340729067170194,77.50000000010165,0,90,3.0,2,2.095881315007009e-12
2.87,0.03679497683410042,77.5000000000471,0,90,3.0,2,9.710262376531843e-13
2.875,0.019500578284482293,77.50000000002157,0,90,3.0,2,4.4478510222013693e-13
2.88,0.009439396781978427,77.50000000000976,0,90,3.0,2,2.0129602452255209e-13
2.885,0.004178588733610924,77.50000000000438,0,90,3.0,2,9.02462526243756e-14
2.89,0.0017299316936037381,77.50000000000193,0,90,3.0,2,3.984899466530871e-14
2.895,0.0008997325756988589,77.50000000000085,0,90,3.0,2,1.7580438822930315e-14
2.9,0.001634769674224814,77.50000000000037,0,90,3.0,2,7.618190156603136e-15
2.905,0.00614904736476635,77.50000000000016,0,90,3.0,2,3.2230804508705575e-15
2.91,0.02168080359963608,77.50000000000007,0,90,3.0,2,1.465036568577526e-15
2.915,0.06433400338904088,77.50000000000003,0,90,3.0,2,5.860146274310105e-16
2.92,0.1593410769217493,77.50000000000001,0,90,3.0,2,2.9300731371550523e-16
2.925,0.3291989194808569,77.5,0,90,3.0,2,0.0
2.93,0.5672906802982638,77.5,0,90,3.0,2,0.0
2.935,0.815339152120446,77.5,0,90,3.0,2,0.0
2.94,0.9768711246313155,77.50000284150002,1,90,3.0,2,5.858762928180591e-08
2.945,0.9726380909165361,77.5000055087254,0,90,3.0,2,1.1358196688794948e-07
2.95,0.7921091683291741,77.50001136395807,0,90,3.0,2,2.3430841373428661e-07
2.955,0.49139090102639077,77.50002585890292,0,90,3.0,2,5.331732559967612e-07
2.96,0.15739335672107918,77.50006577270929,0,90,3.0,2,1.356138335905626e-06
2.965,-0.11102342218909485,77.50018247875063,0,90,3.0,2,3.76244846661487e-06
2.97,-0.2314207883647528,77.50052776496497,0,90,3.0,2,1.0881751855078582e-05
2.975,-0.2029124434754801,77.50152756139154,0,90,3.0,2,3.1496111165786474e-05
2.98,-0.11151350554305876,77.50430755613382,0,90,3.0,2,8.88155903881271e-05
2.985,-0.039430666652076896,77.5116563600092,0,90,3.0,2,0.00024033731977727622
2.99,-0.006087703519843621,77.53002739545968,0,90,3.0,2,0.0006191215558697577
2.995,0.005350271385530551,77.57333096905042,0,90,3.0,2,0.0015119787433075698
3.0,0.010381647827441833,77.66940490223725,0,90,3.0,2,0.0034928845822112743
3.005,0.015115203303506243,77.86976747664984,0,90,3.0,2,0.007624071683501874
3.01,0.021170964062928475,78.26211431813414,0,90,3.0,2,0.01571369728111625
3.015,0.029082821134029553,78.98267513398078,0,90,3.0,2,0.03057062131919128
3.02,0.03923107061708144,80.22218766058688,0,90,3.0,2,0.05612758063065738
3.025,0.051969043308817596,82.21612057642412,0,90,3.0,2,0.09723959951389932
3.03,0.06760532616283861,85.20932922752098,0,90,3.0,2,0.15895524180455634
3.035,0.08636519236693461,89.39039798617173,0,90,3.0,2,0.24516284507570588
3.04,0.10834733138818661,94.8028006534978,0,90,3.0,2,0.35675877636077935
3.045,0.1334809643017884,101.25612781731577,0,90,3.0,2,0.48981706839826333
3.05,0.16148868344343945,108.27370857382006,0,90,3.0,2,0.6345094551303105
3.055,0.191860907532018,115.11341104223824,0,90,3.0,2,0.775534248293572
3.06,0.22384764873847726,120.88000833622657,0,90,3.0,2,0.8944331615716817
3.065,0.25647215537198226,124.71329532894552,0,90,3.0,2,0.9734700067823818
3.07,0.2885689161419028,126.0,0,90,3.0,2,1.0
3.075,0.31884566517832524,124.53834900968857,0,90,3.0,2,0.9698628661791459
3.08,0.3459657668955683,120.59493192202842,0,90,3.0,2,0.8885552973614108
3.085,0.3686441789190902,114.83222413300682,0,90,3.0,2,0.7697365800619963
3.09,0.3857476379544367,108.13422420586735,0,90,3.0,2,0.6316334887807702
3.095,0.3963882865005728,101.3936098555063,0,90,3.0,2,0.492651749598068
3.1,0.4,95.33064507931,0,90,3.0,2,0.3676421665837114
3.105,0.39638828650057273,90.39185276201252,0,90,3.0,2,0.2658113971548973
3.11,0.38574763795443656,86.73955542986523,0,90,3.0,2,0.19050629752299453
3.115,0.36864417891908974,84.31059562557269,0,90,3.0,2,0.14042465207366367
3.12,0.345965766895568,82.9065602268215,0,90,3.0,2,0.11147546859425768
3.125,0.3188456651783249,82.28033336831763,0,90,3.0,2,0.09856357460448717
3.13,0.28856891614190205,82.19778113694667,0,90,3.0,2,0.09686146674116852
3.135,0.2564721553719815,82.46927305071628,0,90,3.0,2,0.1024592381590986
3.14,0.22384764873847685,82.95682150774277,0,90,3.0,2,0.11251178366479946
3.145,0.19186090753201765,83.56687754099825,0,90,3.0,2,0.12509025857728348
3.15,0.16148868344343878,84.23787322707521,0,90,3.0,2,0.1389252211768085
3.155,0.1334809643017881,84.92832444149448,0,90,3.0,2,0.15316132869060786
3.16,0.10834733138818531,85.60801881012263,0,90,3.0,2,0.16717564556953876
3.165,0.08636519236690572,86.25260772478875,0,90,3.0,2,0.18046613865543806
3.17,0.06760532616242629,86.84089403560439,0,90,3.0,2,0.19259575331143078
3.175,0.05196904332202373,87.35388295636871,0,90,3.0,2,0.20317284446121045
3.18,0.03923107185803287,87.77481720348132,0,90,3.0,2,0.21185190110270763
3.185,0.02908287038705761,88.08966243795557,0,90,3.0,2,0.21834355542176428
3.19,0.02117220077308346,88.28771551986046,0,90,3.0,2,0.22242712412083412
3.195,0.0151361834125735,88.36214631799686,0,90,3.0,2,0.22396177975251258
3.2,0.010626454858290009,88.31036736727964,0,90,3.0,2,0.22289417252122967
3.205,0.007326255555493652,88.13417633763018,0,90,3.0,2,0.21926136778618927
3.21,0.004960179211183015,87.83965035915766,0,90,3.0,2,0.213188667199127
3.215,0.0032978759379303545,87.43679744267308,0,90,3.0,2,0.20488242149841407
3.22,0.002153242296767213,86.9389917989111,0,90,3.0,2,0.1946183876064145
3.225,0.001380616732225004,86.36223716698538,0,90,3.0,2,0.18272653952547177
3.23,0.0008693106590991584,85.72431461211428,0,90,3.0,2,0.16957349715699555
3.235,0.000537524815942247,85.04387789533241,0,90,3.0,2,0.15554387413056525
3.24,0.0003263951340288585,84.33956014461978,0,90,3.0,2,0.14102185865195427
3.245,0.00019463030985187395,83.62915046826862,0,90,3.0,2,0.1263742364591468
3.25,0.00011397219555062695,82.92888923969679,0,90,3.0,2,0.11193586061230489
3.255,6.55403863487943e-05,82.25291740154772,0,90,3.0,2,0.09799829693912823
3.26,3.701184389455385e-05,81.61289990625842,0,90,3.0,2,0.08480205992285401
3.265,2.0525516217290957e-05,81.01782800176962,0,90,3.0,2,0.07253253611896114
3.27,1.1178128483661116e-05,80.47399100328275,0,90,3.0,2,0.0613194021295412
3.275,5.978135409912517e-06,79.9850966673004,0,90,3.0,2,0.05123910654227622
3.28,3.1396702713238487e-06,79.55251108450634,0,90,3.0,2,0.04231981617538835
3.285,1.6192875458531019e-06,79.17558445710158,0,90,3.0,2,0.034548133136115024
3.29,8.201353897972012e-07,78.85202811529082,0,90,3.0,2,0.027876868356511774
3.295,4.0791415086824765e-07,78.57831019218708,0,90,3.0,2,0.022233199838908767
3.3,1.9923866938774793e-07,78.35004180586505,0,90,3.0,2,0.01752663517247519
3.305,9.556527981051257e-08,78.16233155760507,0,90,3.0,2,0.013656320775362298
3.31,4.501406988770349e-08,78.01009280593172,0,90,3.0,2,0.01051737744189113
3.315,0.0,77.88829476616297,0,90,3.0,2,0.008006077652844772
3.32,0.0,77.79215442099877,0,90,3.0,2,0.006023802494820002
3.325,0.0,77.71727110655786,0,90,3.0,2,0.004479816630058962
3.33,0.0,77.65970925268655,0,90,3.0,2,0.003292974282196985
3.335,0.0,77.61603707332719,0,90,3.0,2,0.0023925169758183882
3.34,0.0,77.58333012691409,0,90,3.0,2,0.0017181469466823053
3.345,0.0,77.55914879585012,0,90,3.0,2,0.0012195628010334112
3.35,0.0,77.54149811404007,0,90,3.0,2,0.0008556312173209687
3.355,0.0,77.52877725728622,0,90,3.0,2,0.0005933455110561316
3.36,0.0,77.51972463735181,0,90,3.0,2,0.0004066935536456509
3.365,0.0,77.51336310074132,0,90,3.0,2,0.00027552785033640716
3.37,0.0,77.50894837231351,0,90,3.0,2,0.0001845025219280774
3.375,0.0,77.50592269592266,0,90,3.0,2,0.00012211744170440163
3.38,0.0,77.50387465835057,0,90,3.0,2,7.988986289831832e-05
3.385,0.0,77.50250545138663,0,90,3.0,2,5.1658791476807595e-05
3.39,0.0,77.50160131633649,0,90,3.0,2,3.301683168021236e-05
3.395,0.0,77.50101159546982,0,90,3.0,2,2.0857638552975802e-05
3.4,0.0,77.5006316481158,0,90,3.0,2,1.3023672490711779e-05
3.405,0.0,77.50038983616128,0,90,3.0,2,8.037858995371654e-06
3.41,0.0,77.50023780863849,0,90,3.0,2,4.903270896659603e-06
3.415,0.0,77.50014338764066,0,90,3.0,2,2.9564461992214493e-06
3.42,0.0,77.50008545439401,0,90,3.0,2,1.7619462682629541e-06
3.425,0.0,77.5000503379664,0,90,3.0,2,1.0378962144255338e-06
3.43,0.0,77.50002930863025,0,90,3.0,2,6.04301654562995e-07
3.435,0.0,77.50001686684932,0,90,3.0,2,3.47770089106656e-07
3.44,0.0,77.50000959424924,0,90,3.0,2,1.9781957185729233e-07
3.445,0.001684486749771458,77.50000539419466,0,90,3.0,2,1.1122050843190777e-07
3.45,0.004172395771277602,77.50000299764929,0,90,3.0,2,6.180720184911667e-08
3.455,0.009438687428818865,77.50000164654504,0,90,3.0,2,3.394938235689233e-08
3.46,0.019500507867137046,77.50000089393305,0,90,3.0,2,1.8431609246878916e-08
3.465,0.03679496976339974,77.50000047970579,0,90,3.0,2,9.890841025930826e-09
3.47,0.06340728953298436,77.5000002544389,0,90,3.0,2,5.246162926755695e-09
3.475,0.09979255396093453,77.50000013339228,0,90,3.0,2,2.750356222265706e-09
3.48,0.14343835518453557,77.50000006912201,0,90,3.0,2,1.4251960711243151e-09
3.485,0.18829581417209276,77.50000003540305,0,90,3.0,2,7.299597444253993e-10
3.49,0.2257481735193119,77.5000000179227,0,90,3.0,2,3.695402380433678e-10
3.495,0.24718154073554727,77.5000000089682,0,90,3.0,2,1.8491134854689477e-10
3.5,0.24718154074102772,77.50000000443552,0,90,3.0,2,9.145402877151092e-11
3.505,0.22574817354072055,77.50000000216832,0,90,3.0,2,4.4707641941339216e-11
3.51,0.18829581422840957,77.50000000104771,0,90,3.0,2,2.160225721098934e-11
3.515,0.14343835532456656,77.50000000050038,0,90,3.0,2,1.0317080523236655e-11
3.52,0.09979255431561854,77.5000000002362,0,90,3.0,2,4.870074561265413e-12
3.525,0.06340729067170194,77.5000000001102,0,90,3.0,2,2.272271717863743e-12
3.53,0.03679497683410042,77.50000000005083,0,90,3.0,2,1.0480871611603622e-12
3.535,0.019500578284482293,77.50000000002316,0,90,3.0,2,4.776019213562735e-13
3.54,0.009439396781978427,77.50000000001044,0,90,3.0,2,2.1536037558089634e-13
3.545,0.004178588733610924,77.50000000000465,0,90,3.0,2,9.581339158497021e-14
3.55,0.0017299316936037381,77.50000000000205,0,90,3.0,2,4.2193053175032755e-14
3.555,0.0008997325756988589,77.5000000000009,0,90,3.0,2,1.845946076407683e-14
3.56,0.001634769674224814,77.50000000000038,0,90,3.0,2,7.911197470318642e-15
3.565,0.00614904736476635,77.50000000000016,0,90,3.0,2,3.2230804508705575e-15
3.57,0.02168080359963608,77.50000000000007,0,90,3.0,2,1.465036568577526e-15
3.575,0.06433400338904088,77.50000000000003,0,90,3.0,2,5.860146274310105e-16
3.58,0.1593410769217493,77.50000000000001,0,90,3.0,2,2.9300731371550523e-16
3.585,0.3291989194808569,77.5,0,90,3.0,2,0.0
3.59,0.5672906802982638,77.5,0,90,3.0,2,0.0
3.595,0.815339152120446,77.5,0,90,3.0,2,0.0
3.6,0.9768711246313155,77.50000284586159,1,90,3.0,2,5.8677558500516847e-08
3.605,0.9726380909165361,77.50000554640805,0,90,3.0,2,1.1435892881458993e-07
3.61,0.7921091683291741,77.50001151682932,0,90,3.0,2,2.374603983045426e-07
3.615,0.49139090102639077,77.50002643002445,0,90,3.0,3,5.449489576934416e-07
3.62,0.15739335672107918,77.50006790101995,0,90,3.0,3,1.4000210298195504e-06
3.625,-0.11102342218909485,77.50019028911501,0,90,3.0,3,3.923486907442379e-06
3.63,-0.2314207883647528,77.50055528372543,0,90,3.0,3,1.1449148977995606e-05
3.635,-0.2029124434754801,77.5016191003873,0,90,3.0,3,3.338351314024416e-05
3.64,-0.11151350554305876,77.50459268016454,0,90,3.0,3,9.469443638216635e-05
3.645,-0.039430666652076896,77.51248521717368,0,90,3.0,3,0.00025742715822012853
3.65,-0.006087703519843621,77.53227388620262,0,90,3.0,3,0.0006654409526312796
3.655,0.005350271385530551,77.57900721106344,0,90,3.0,3,0.0016290146611018807
3.66,0.010381647827441833,77.68277725789753,0,90,3.0,3,0.003768603255619115
3.665,0.015115203303506243,77.89914273187748,0,90,3.0,3,0.008229747049020112
3.67,0.021170964062928475,78.32227751227126,0,90,3.0,3,0.01695417551074755
3.675,0.029082821134029553,79.09751100293126,0,90,3.0,3,0.03293837119445889
3.68,0.03923107061708144,80.42630442384339,0,90,3.0,3,0.06033617368749259
3.685,0.051969043308817596,82.55354337917821,0,90,3.0,3,0.10419677070470533
3.69,0.06760532616283861,85.72706210298368,0,90,3.0,3,0.16963014645327176
3.695,0.08636519236693461,90.12554414875623,0,90,3.0,3,0.26032049791249967
3.7,0.10834733138818661,95.76438236317041,0,90,3.0,3,0.3765852033643384
3.705,0.1334809643017884,102.40631247838554,0,90,3.0,3,0.5135322160491865
3.71,0.16148868344343945,109.51624731799802,0,90,3.0,3,0.6601288106803715
3.715,0.191860907532018,116.29749655462248,0,90,3.0,3,0.7999483825695357
3.72,0.22384764873847726,121.82388594751711,0,90,3.0,3,0.9138945556189095
3.725,0.25647215537198226,125.24436869130892,0,90,3.0,3,0.9844199730166788
3.73,0.2885689161419028,126.0,0,90,3.0,3,1.0
3.735,0.31884566517832524,123.97778706854874,0,90,3.0,3,0.9583048880113142
3.74,0.3459657668955683,119.54358950815404,0,90,3.0,3,0.8668781341887432
3.745,0.3686441789190902,113.44132554854066,0,90,3.0,3,0.7410582587327972
3.75,0.3857476379544367,106.59703250521925,0,90,3.0,3,0.599938814540603
3.755,0.3963882865005728,99.89899699454637,0,90,3.0,3,0.46183498957827557
3.76,0.4,94.02516929242782,0,90,3.0,3,0.3407251400500581
3.765,0.39638828650057273,89.3603322958374,0,90,3.0,3,0.24454293393479165
3.77,0.38574763795443656,86.00561321118767,0,90,3.0,3,0.1753734682719106
3.775,0.36864417891908974,83.85152120488316,0,90,3.0,3,0.13095920010068363
3.78,0.345965766895568,82.67378992307566,0,90,3.0,3,0.10667608088815793
3.785,0.3188456651783249,82.21795644486333,0,90,3.0,3,0.09727745247140893
3.79,0.28856891614190205,82.25491311032039,0,90,3.0,3,0.09803944557361624
3.795,0.2564721553719815,82.60568848479885,0,90,3.0,3,0.10527192752162572
3.8,0.22384764873847685,83.14350119463039,0,90,3.0,3,0.11636084937382245
3.805,0.19186090753201765,83.78381880877807,0,90,3.0,3,0.12956327440779516
3.81,0.16148868344343878,84.47111934410529,0,90,3.0,3,0.14373441946608845
3.815,0.1334809643017881,85.16736816282359,0,90,3.0,3,0.15809006521285757
3.82,0.10834733138818531,85.84401473859923,0,90,3.0,3,0.17204154100204594
3.825,0.08636519236690572,86.47738375513784,0,90,3.0,3,0.18510069598222342
3.83,0.06760532616242629,87.04656798666497,0,90,3.0,3,0.1968364533332983
3.835,0.05196904332202373,87.53286735530213,0,90,3.0,3,0.2068632444392192
3.84,0.03923107185803287,87.92003875076709,0,90,3.0,3,0.21484615980963073
3.845,0.02908287038705761,88.1948762403954,0,90,3.0,3,0.22051291217310107
3.85,0.02117220077308346,88.34783554716185,0,90,3.0,3,0.22366671231261545
3.855,0.0151361834125735,88.37354028569607,0,90,3.0,3,0.22419670692156837
3.86,0.010626454858290009,88.27108106749418,0,90,3.0,3,0.22208414572152949
3.865,0.007326255555493652,88.04406438191086,0,90,3.0,3,0.21740338931774963
3.87,0.004960179211183015,87.70040053904515,0,90,3.0,3,0.21031753688752883
3.875,0.0032978759379303545,87.25184573884796,0,90,3.0,3,0.20106898430614353
3.88,0.002153242296767213,86.71333452777212,0,90,3.0,3,0.18996566036643545
3.885,0.001380616732225004,86.10215528685912,0,90,3.0,3,0.17736402653317765
3.89,0.0008693106590991584,85.43703209507676,0,90,3.0,3,0.16365014629024247
3.895,0.000537524815942247,84.73718067857484,0,90,3.0,3,0.14922022017680092
3.9,0.0003263951340288585,84.02140412721407,0,90,3.0,3,0.1344619407673004
3.905,0.00019463030985187395,83.30728624532938,0,90,3.0,3,0.11973786072844081
3.91,0.00011397219555062695,82.61052800894745,0,90,3.0,3,0.10537171152468978
3.915,6.55403863487943e-05,81.94445724555983,0,90,3.0,3,0.09163829372288314
3.92,3.701184389455385e-05,81.31972513974611,0,90,3.0,3,0.07875721937620848
3.925,2.0525516217290957e-05,80.74418725350604,0,90,3.0,3,0.06689045883517611
3.93,1.1178128483661116e-05,80.22295293316265,0,90,3.0,3,0.056143359446652476
3.935,5.978135409912517e-06,79.75857634759942,0,90,3.0,3,0.046568584486585886
3.94,3.1396702713238487e-06,79.35135557138227,0,90,3.0,3,0.038172279822314865
3.945,1.6192875458531019e-06,78.9997032039245,0,90,3.0,3,0.030921715544834992
3.95,8.201353897972012e-07,78.70055267993662,0,90,3.0,3,0.02475366350384785
3.955,4.0791415086824765e-07,78.44976802421002,0,90,3.0,3,0.01958284586000033
3.96,1.9923866938774793e-07,78.24253048240675,0,90,3.0,3,0.015309906853747415
3.965,9.556527981051257e-08,78.07368229950097,0,90,3.0,3,0.011828501020638621
3.97,4.501406988770349e-08,77.93801505095327,0,90,3.0,3,0.009031238163984913
3.975,0.0,77.8304966317818,0,90,3.0,3,0.006814363541892754
3.98,0.0,77.74643674394598,0,90,3.0,3,0.005081169978267584
3.985,0.0,77.68159517563214,0,90,3.0,3,0.0037442304254049416
3.99,0.0,77.63224022257143,0,90,3.0,3,0.0027266025272458896
3.995,0.0,77.59516631581924,0,90,3.0,3,0.0019621920787472524
4.0,0.0,77.56768046943643,0,90,3.0,3,0.0013954735966273202
4.005,0.0,77.54756679479637,0,90,3.0,3,0.0009807586555951992
4.01,0.0,77.53303732186714,0,90,3.0,3,0.0006811818941678587
4.015,0.0,77.52267598708985,0,90,3.0,3,0.00046754612556401535
4.02,0.0,77.51538112097494,0,90,3.0,3,0.0003171365149471419
4.025,0.0,77.51031027372,0,90,3.0,3,0.00021258296329886004
4.03,0.0,77.50682987606086,0,90,3.0,3,0.00014082218682191167
4.035,0.0,77.50447111531227,0,90,3.0,3,9.218794458289717e-05
4.04,0.0,77.50289253977044,0,90,3.0,3,5.963999526685941e-05
4.045,0.0,77.50184928236199,0,90,3.0,3,3.812953323686604e-05
4.05,0.0,77.50116838920664,0,90,3.0,3,2.4090499105981152e-05
4.055,0.0,77.50072951170684,0,90,3.0,3,1.5041478491477542e-05
4.06,0.0,77.50045012943687,0,90,3.0,3,9.281019316924508e-06
4.065,0.0,77.50027447512092,0,90,3.0,3,5.659280843666547e-06
4.07,0.0,77.50016539751311,0,90,3.0,3,3.4102580023678343e-06
4.075,0.0,77.50009849527245,0,90,3.0,3,2.03083035986901e-06
4.08,0.0,77.50005796451639,0,90,3.0,3,1.1951446677676826e-06
4.085,0.0,77.50003371083174,0,90,3.0,3,6.950686957497027e-07
4.09,0.0,77.50001937479605,0,90,3.0,3,3.9948033100493557e-07
4.095,0.0,77.50001100437119,0,90,3.0,3,2.2689425130939178e-07
4.1,0.001684486749771458,77.50000617666068,0,90,3.0,3,1.2735382837650157e-07
4.105,0.004172395771277602,77.50000342612084,0,90,3.0,3,7.064166682998944e-08
4.11,0.009438687428818865,77.5000018780711,0,90,3.0,3,3.872311552739345e-08
4.115,0.019500507867137046,77.50000101737673,0,90,3.0,3,2.097683983903181e-08
4.12,0.03679496976339974,77.50000054464309,0,90,3.0,3,1.1229754354363397e-08
4.125,0.06340728953298436,77.50000028813938,0,90,3.0,3,5.941018050939466e-09
4.13,0.09979255396093453,77.50000015064462,0,90,3.0,3,3.106074719306486e-09
4.135,0.14343835518453557,77.50000007783323,0,90,3.0,3,1.6048089684172924e-09
4.14,0.18829581417209276,77.50000003974084,0,90,3.0,3,8.193987619004887e-10
4.145,0.2257481735193119,77.50000002005254,0,90,3.0,3,4.134544161791654e-10
4.15,0.24718154073554727,77.50000000999913,0,90,3.0,3,2.061675641203861e-10
4.155,0.24718154074102772,77.50000000492737,0,90,3.0,3,1.0159530490651828e-10
4.16,0.22574817354072055,77.50000000239955,0,90,3.0,3,4.94751639428042e-11
4.165,0.18829581422840957,77.50000000115479,0,90,3.0,3,2.381006731983567e-11
4.17,0.14343835532456656,77.5000000005492,0,90,3.0,3,1.132385365316313e-11
4.175,0.09979255431561854,77.50000000025813,0,90,3.0,3,5.322184846328437e-12
4.18,0.06340729067170194,77.5000000001199,0,90,3.0,3,2.4721027058177174e-12
4.185,0.03679497683410042,77.50000000005502,0,90,3.0,3,1.1345243187064363e-12
4.19,0.019500578284482293,77.50000000002495,0,90,3.0,3,5.145208428844272e-13
4.195,0.009439396781978427,77.50000000001118,0,90,3.0,3,2.305967558941026e-13
4.2,0.004178588733610924,77.50000000000496,0,90,3.0,3,1.0225955248671133e-13
4.205,0.0017299316936037381,77.50000000000217,0,90,3.0,3,4.48301189984723e-14
4.21,0.0008997325756988589,77.50000000000094,0,90,3.0,3,1.9338482705223346e-14
4.215,0.001634769674224814,77.5000000000004,0,90,3.0,3,8.204204784034146e-15
4.22,0.00614904736476635,77.50000000000017,0,90,3.0,3,3.516087764586063e-15
4.225,0.02168080359963608,77.50000000000007,0,90,3.0,3,1.465036568577526e-15
4.23,0.06433400338904088,77.50000000000003,0,90,3.0,3,5.860146274310105e-16
4.235,0.1593410769217493,77.50000000000001,0,90,3.0,3,2.9300731371550523e-16
4.24,0.3291989194808569,77.5,0,90,3.0,3,0.0
4.245,0.5672906802982638,77.5,0,90,3.0,3,0.0
4.25,0.815339152120446,77.5,0,90,3.0,3,0.0
4.255,0.9768711246313155,77.50000285188469,1,90,3.0,3,5.88017461343474e-08
4.26,0.9726380909165361,77.500005472104,0,90,3.0,3,1.1282688645449e-07
4.265,0.7921091683291741,77.50001114553572,0,90,3.0,3,2.2980486026370402e-07
4.27,0.49139090102639077,77.50002494746741,0,90,3.0,3,5.143807713241201e-07
4.275,0.15739335672107918,77.50006223014493,0,90,3.0,3,1.283095771835169e-06
4.28,-0.11102342218909485,77.5001692753466,0,90,3.0,3,3.4902133318178834e-06
4.285,-0.2314207883647528,77.50048103204684,0,90,3.0,3,9.918186532683284e-06
4.29,-0.2029124434754801,77.50137207546508,0,90,3.0,3,2.8290215774943847e-05
4.295,-0.11151350554305876,77.50382388761822,0,90,3.0,3,7.884304367473877e-05
4.3,-0.039430666652076896,77.51025255192553,0,90,3.0,3,0.00021139282320685189
4.305,-0.006087703519843621,77.52622730260188,0,90,3.0,3,0.0005407691258119953
4.31,0.005350271385530551,77.56373480349473,0,90,3.0,3,0.0013141196596850547
4.315,0.010381647827441833,77.64679192528084,0,90,3.0,3,0.0030266376346564368
4.32,0.015115203303506243,77.82003264790949,0,90,3.0,3,0.006598611297102794
4.325,0.021170964062928475,78.16002289075324,0,90,3.0,3,0.013608719396974014
4.33,0.029082821134029553,78.78715565839514,0,90,3.0,3,0.026539291925672906
4.335,0.03923107061708144,79.87309703665223,0,90,3.0,3,0.04892983580726239
4.34,0.051969043308817596,81.6357728352696,0,90,3.0,3,0.08527366670658981
4.345,0.06760532616283861,84.31274116702575,0,90,3.0,3,0.14046889004176802
4.35,0.08636519236693461,88.10699478553131,0,90,3.0,3,0.21870092341301678
4.355,0.10834733138818661,93.10840244452054,0,90,3.0,3,0.3218227308148564
4.36,0.1334809643017884,99.20787973600085,0,90,3.0,3,0.44758514919589376
4.365,0.16148868344343945,106.03465479272373,0,90,3.0,3,0.5883433977881181
4.37,0.191860907532018,112.95149073900936,0,90,3.0,3,0.7309585719383372
4.375,0.22384764873847726,119.13158563547512,0,90,3.0,3,0.8583832089788684
4.38,0.25647215537198226,123.71388588995438,0,90,3.0,3,0.9528636265969976
4.385,0.2885689161419028,126.0,0,90,3.0,3,1.0
4.39,0.31884566517832524,125.63168033832994,0,90,3.0,3,0.9924057801717514
4.395,0.3459657668955683,122.68717513676035,0,90,3.0,3,0.9316943327167081
4.4,0.3686441789190902,117.66114684156429,0,90,3.0,3,0.8280648833312224
4.405,0.3857476379544367,111.33557350136091,0,90,3.0,3,0.6976406907497096
4.41,0.3963882865005728,104.5882963007817,0,90,3.0,3,0.5585215732119939
4.415,0.4,98.20380090084146,0,90,3.0,3,0.4268824928008548
4.42,0.39638828650057273,92.74127363349305,0,90,3.0,3,0.31425306460810415
4.425,0.38574763795443656,88.48579720411917,0,90,3.0,3,0.22651128255915806
4.43,0.36864417891908974,85.47562070635212,0,90,3.0,3,0.16444578775983748
4.435,0.345965766895568,83.57616312899322,0,90,3.0,3,0.1252817139998601
4.44,0.3188456651783249,82.5659171942369,0,90,3.0,3,0.10445190091210109
4.445,0.28856891614190205,82.2077740060747,0,90,3.0,3,0.09706750527989073
4.45,0.2564721553719815,82.29359471173308,0,90,3.0,3,0.09883700436563048
4.455,0.22384764873847685,82.66255827345258,0,90,3.0,3,0.10644450048355825
4.46,0.19186090753201765,83.20095515387028,0,90,3.0,3,0.11754546709010891
4.465,0.16148868344343878,83.83258540626372,0,90,3.0,3,0.13056877126316943
4.47,0.1334809643017881,84.50688720883298,0,90,3.0,3,0.1444719012130511
4.475,0.10834733138818531,85.18879930614817,0,90,3.0,3,0.1585319444566633
4.48,0.08636519236690572,85.85174343024126,0,90,3.0,3,0.1722008954688919
4.485,0.06760532616242629,86.47356190947447,0,90,3.0,3,0.1850218950407107
4.49,0.05196904332202373,87.0346351717773,0,90,3.0,3,0.19659041591293394
4.495,0.03923107185803287,87.51735949791845,0,90,3.0,3,0.20654349480244225
4.5,0.02908287038705761,87.90635065364523,0,90,3.0,3,0.2145639310029945
4.505,0.02117220077308346,88.1889541011337,0,90,3.0,3,0.22039080620894233
4.51,0.0151361834125735,88.35580849564253,0,90,3.0,3,0.22383110300293885
4.515,0.010626454858290009,88.4013164549309,0,90,3.0,3,0.22476941144187437
4.52,0.007326255555493652,88.32394120303454,0,90,3.0,3,0.2231740454233925
4.525,0.004960179211183015,88.12628788072502,0,90,3.0,3,0.21909871919020651
4.53,0.0032978759379303545,87.8149564468404,0,90,3.0,3,0.21267951436784327
4.535,0.002153242296767213,87.40017534035806,0,90,3.0,3,0.20412732660532085
4.54,0.001380616732225004,86.89524350085946,0,90,3.0,3,0.1937163608424632
4.545,0.0008693106590991584,86.31582296936395,0,90,3.0,3,0.18176954576008145
4.55,0.000537524815942247,85.67913444059066,0,90,3.0,3,0.16864194722867337
4.555,0.0003263951340288585,85.00311320618148,0,90,3.0,3,0.15470336507590685
4.56,0.00019463030985187395,84.3055827268295,0,90,3.0,3,0.1403212933366907
4.565,0.00011397219555062695,83.60349793607864,0,90,3.0,3,0.12584531826966266
4.57,6.55403863487943e-05,82.91230113964602,0,90,3.0,3,0.11159383793084575
4.575,3.701184389455385e-05,82.24542123587032,0,90,3.0,3,0.09784373682206855
4.58,2.0525516217290957e-05,81.613933357956,0,90,3.0,3,0.08482336820527836
4.585,1.1178128483661116e-05,81.0263823663777,0,90,3.0,3,0.07270891477067429
4.59,5.978135409912517e-06,80.48876119719017,0,90,3.0,3,0.06162394221010664
4.595,3.1396702713238487e-06,80.00462491990231,0,90,3.0,3,0.05164175092582087
4.6,1.6192875458531019e-06,79.57531413717051,0,90,3.0,3,0.042789982209701205
4.605,8.201353897972012e-07,79.20025733794617,0,90,3.0,3,0.035056852328787
4.61,4.0791415086824765e-07,78.8773208986497,0,90,3.0,3,0.028398369044323704
4.615,1.9923866938774793e-07,78.60317721354771,0,90,3.0,3,0.02274592192881876
4.62,9.556527981051257e-08,78.37366531514834,0,90,3.0,3,0.01801371783811018
4.625,4.501406988770349e-08,78.18412359953327,0,90,3.0,3,0.014105641227490006
4.63,0.0,78.02968017202754,0,90,3.0,3,0.010921240660361643
4.635,0.0,77.90549221983429,0,90,3.0,3,0.008360664326480135
4.64,0.0,77.80693117491525,0,90,3.0,3,0.0063284778333041036
4.645,0.0,77.72971488846713,0,90,3.0,3,0.00473638945293049
4.65,0.0,77.66999140059843,0,90,3.0,3,0.003504977331926474
4.655,0.0,77.624381109498,0,90,3.0,3,0.002564558958721715
4.66,0.0,77.58998529958369,0,90,3.0,3,0.001855367001725527
4.665,0.0,77.56436923879633,0,90,3.0,3,0.001327200799924356
4.67,0.0,77.54552760933194,0,90,3.0,3,0.0009387135944730149
4.675,0.0,77.53183911478689,0,90,3.0,3,0.0006564765935441408
4.68,0.0,77.52201591751752,0,90,3.0,3,0.0004539364436602307
4.685,0.0,77.51505227902882,0,90,3.0,3,0.00031035626863550747
4.69,0.0,77.51017553839584,0,90,3.0,3,0.00020980491537818461
4.695,0.0,77.50680146081736,0,90,3.0,3,0.0001402363055125154
4.7,0.0,77.5044950721781,0,90,3.0,3,9.268190057942428e-05
4.705,0.0,77.50293738454126,0,90,3.0,3,6.056462971659852e-05
4.71,0.0,77.5018979055961,0,90,3.0,3,3.9132074146298636e-05
4.715,0.0,77.50121248974423,0,90,3.0,3,2.499978854089444e-05
4.72,0.0,77.50076589847964,0,90,3.0,3,1.5791721229734977e-05
4.725,0.0,77.50047835906365,0,90,3.0,3,9.863073477303842e-06
4.73,0.0,77.50029541087085,0,90,3.0,3,6.090945790679284e-06
4.735,0.0,77.50018038009229,0,90,3.0,3,3.7191771605897154e-06
4.74,0.0,77.50010890314022,0,90,3.0,3,2.2454255714627526e-06
4.745,0.0,77.5000650102546,0,90,3.0,3,1.3404176206560017e-06
4.75,0.0,77.50003837187288,0,90,3.0,3,7.911726366100336e-07
4.755,0.0,77.50002239410928,0,90,3.0,3,4.617342119555482e-07
4.76,0.0,77.500012922432,0,90,3.0,3,2.6644189703577083e-07
4.765,0.0,77.50000737300255,0,90,3.0,3,1.520206710571899e-07
4.77,0.001684486749771458,77.50000415943343,0,90,3.0,3,8.576151403242865e-08
4.775,0.004172395771277602,77.50000232013706,0,90,3.0,3,4.783787745772006e-08
4.78,0.009438687428818865,77.50000127962515,0,90,3.0,3,2.6384023763010605e-08
4.785,0.019500507867137046,77.50000069781701,0,90,3.0,3,1.4387979687394222e-08
4.79,0.03679496976339974,77.50000037626171,0,90,3.0,3,7.75797339771351e-09
4.795,0.06340728953298436,77.5000002005987,0,90,3.0,3,4.136055786523112e-09
4.8,0.09979255396093453,77.50000010574405,0,90,3.0,3,2.1802896899129167e-09
4.805,0.14343835518453557,77.50000005511545,0,90,3.0,3,1.1364010305507842e-09
4.81,0.18829581417209276,77.50000002840406,0,90,3.0,3,5.856507123473758e-10
4.815,0.2257481735193119,77.50000001447363,0,90,3.0,3,2.984253119534186e-10
4.82,0.24718154073554727,77.50000000729229,0,90,3.0,4,1.503564100257978e-10
4.825,0.24718154074102772,77.50000000363279,0,90,3.0,4,7.490292464166318e-11
4.83,0.22574817354072055,77.50000000178939,0,90,3.0,4,3.689460192111527e-11
4.835,0.18829581422840957,77.50000000087148,0,90,3.0,4,1.7968673513603357e-11
4.84,0.14343835532456656,77.50000000041966,0,90,3.0,4,8.652798981332584e-12
4.845,0.09979255431561854,77.50000000019982,0,90,3.0,4,4.119975838153719e-12
4.85,0.06340729067170194,77.50000000009408,0,90,3.0,4,1.9397084167966446e-12
4.855,0.03679497683410042,77.50000000004378,0,90,3.0,4,9.027555335574716e-13
4.86,0.019500578284482293,77.50000000002015,0,90,3.0,4,4.154843708485864e-13
4.865,0.009439396781978427,77.50000000000917,0,90,3.0,4,1.8898971734650088e-13
4.87,0.004178588733610924,77.50000000000412,0,90,3.0,4,8.497212097749652e-14
4.875,0.0017299316936037381,77.50000000000183,0,90,3.0,4,3.779794346930017e-14
4.88,0.0008997325756988589,77.50000000000081,0,90,3.0,4,1.67014168817838e-14
4.885,0.001634769674224814,77.50000000000036,0,90,3.0,4,7.32518284288763e-15
4.89,0.00614904736476635,77.50000000000016,0,90,3.0,4,3.2230804508705575e-15
4.895,0.02168080359963608,77.50000000000006,0,90,3.0,4,1.172029254862021e-15
4.9,0.06433400338904088,77.50000000000003,0,90,3.0,4,5.860146274310105e-16
4.905,0.1593410769217493,77.50000000000001,0,90,3.0,4,2.9300731371550523e-16
4.91,0.3291989194808569,77.5,0,90,3.0,4,0.0
4.915,0.5672906802982638,77.5,0,90,3.0,4,0.0
4.92,0.815339152120446,77.5,0,90,3.0,4,0.0
4.925,0.9768711246313155,77.50000284170193,1,90,3.0,4,5.859179232971918e-08
4.93,0.9726380909165361,77.50000503285692,0,90,3.0,4,1.0377024574791932e-07
4.935,0.7921091683291741,77.50000930409628,0,90,3.0,4,1.9183703672105056e-07
4.94,0.49139090102639077,77.50001840464809,0,90,3.0,4,3.7947728016951796e-07
4.945,0.15739335672107918,77.50003958615409,0,90,3.0,4,8.162093626403297e-07
4.95,-0.11102342218909485,77.5000921414233,0,90,3.0,4,1.8998231607182197e-06
4.955,-0.2314207883647528,77.50022652678895,0,90,3.0,4,4.6706554422650425e-06
4.96,-0.2029124434754801,77.50057050667888,0,90,3.0,4,1.1763024306875786e-05
4.965,-0.11151350554305876,77.5014346633525,0,90,3.0,4,2.958068768037068e-05
4.97,-0.039430666652076896,77.5035402483488,0,90,3.0,4,7.299481131543328e-05
4.975,-0.006087703519843621,77.5084824168074,0,90,3.0,4,0.00017489519190508197
4.98,0.005350271385530551,77.51961353181807,0,90,3.0,4,0.00040440271789827993
4.985,0.010381647827441833,77.54361522582357,0,90,3.0,4,0.0008992830066715927
4.99,0.015115203303506243,77.59309207295647,0,90,3.0,4,0.0019194241846694053
4.995,0.021170964062928475,77.69049761660041,0,90,3.0,4,0.003927785909286813
5.0,0.029082821134029553,77.8734934172902,0,90,3.0,4,0.0077008952018599135
5.005,0.03923107061708144,78.20133133287578,0,90,3.0,4,0.014460439853108902
5.01,0.051969043308817596,78.76097869260391,0,90,3.0,4,0.02599956067224564
5.015,0.06760532616283861,79.67056732260144,0,90,3.0,4,0.044753965414462735
5.02,0.08636519236693461,81.07668200469112,0,90,3.0,4,0.07374602071528087
5.025,0.10834733138818661,83.14162477864075,0,90,3.0,4,0.1163221603843453
5.03,0.1334809643017884,86.01784071349742,0,90,3.0,4,0.1756255817215963
5.035,0.16148868344343945,89.80969422797408,0,90,3.0,4,0.25380812841183664
5.04,0.191860907532018,94.52758547167707,0,90,3.0,4,0.35108423652942417
5.045,0.22384764873847726,100.04479939843002,0,90,3.0,4,0.46484122470989725
5.05,0.25647215537198226,106.07132404484602,0,90,3.0,4,0.589099464842186
5.055,0.2885689161419028,112.15872126191934,0,90,3.0,4,0.7146128095241101
5.06,0.31884566517832524,117.74445800121651,0,90,3.0,4,0.8297826392003405
5.065,0.3459657668955683,122.23346230346327,0,90,3.0,4,0.922339428937387
5.07,0.3686441789190902,125.10210180274234,0,90,3.0,4,0.9814866351080894
5.075,0.3857476379544367,126.0,0,90,3.0,4,1.0
5.08,0.3963882865005728,124.82253010733184,0,90,3.0,4,0.9757222702542648
5.085,0.4,121.73341154269684,0,90,3.0,4,0.9120291039731308
5.09,0.39638828650057273,117.13081994280068,0,90,3.0,4,0.8171303080989832
5.095,0.38574763795443656,111.56683901662487,0,90,3.0,4,0.7024090518891726
5.1,0.36864417891908974,105.64288097089806,0,90,3.0,4,0.580265587028826
5.105,0.345965766895568,99.90843683080504,0,90,3.0,4,0.4620296253774236
5.11,0.3188456651783249,94.78620717559241,0,90,3.0,4,0.3564166427957198
5.115,0.28856891614190205,90.53591316349355,0,90,3.0,4,0.26878171471120715
5.12,0.2564721553719815,87.25656497713105,0,90,3.0,4,0.20116628818826904
5.125,0.22384764873847685,84.91716751525064,0,90,3.0,4,0.15293128897424
5.13,0.19186090753201765,83.40133290066056,0,90,3.0,4,0.12167696702392913
5.135,0.16148868344343878,82.55210677419915,0,90,3.0,4,0.10416714998348754
5.14,0.1334809643017881,82.20768344907756,0,90,3.0,4,0.09706563812531059
5.145,0.10834733138818531,82.22411640343044,0,90,3.0,4,0.0974044619264009
5.15,0.08636519236690572,82.48562548468695,0,90,3.0,4,0.10279640174612266
5.155,0.06760532616242629,82.90569019111014,0,90,3.0,4,0.11145752971361111
5.16,0.05196904332202373,83.42281838807591,0,90,3.0,4,0.12211996676445176
5.165,0.03923107185803287,83.99429823516142,0,90,3.0,4,0.1339030563950809
5.17,0.02908287038705761,84.59011548964331,0,90,3.0,4,0.14618794824006826
5.175,0.02117220077308346,85.18811147604099,0,90,3.0,4,0.15851776239259768
5.18,0.0151361834125735,85.77065412755941,0,90,3.0,4,0.1705289510836992
5.185,0.010626454858290009,86.32264810961959,0,90,3.0,4,0.1819102703014349
5.19,0.007326255555493652,86.830542901149,0,90,3.0,4,0.19238232785874232
5.195,0.004960179211183015,87.28199626292012,0,90,3.0,4,0.20169064459629107
5.2,0.0032978759379303545,87.66591973310685,0,90,3.0,4,0.20960659243519272
5.205,0.002153242296767213,87.97271414579524,0,90,3.0,4,0.21593225042876776
5.21,0.001380616732225004,88.19457042241281,0,90,3.0,4,0.2205066066476868
5.215,0.0008693106590991584,88.32575807551892,0,90,3.0,4,0.2232115067117303
5.22,0.000537524815942247,88.36285431258266,0,90,3.0,4,0.22397637757902383
5.225,0.0003263951340288585,88.30488598470359,0,90,3.0,4,0.22278115432378534
5.23,0.00019463030985187395,88.15336966408535,0,90,3.0,4,0.21965710647598652
5.235,0.00011397219555062695,87.91224489901583,0,90,3.0,4,0.21468546183537798
5.24,6.55403863487943e-05,87.58770372647423,0,90,3.0,4,0.20799389126750992
5.245,3.701184389455385e-05,87.18792637142545,0,90,3.0,4,0.19975105920464842
5.25,2.0525516217290957e-05,86.72273875212919,0,90,3.0,4,0.1901595618995709
5.255,1.1178128483661116e-05,86.20321175685625,0,90,3.0,4,0.17944766508981955
5.26,5.978135409912517e-06,85.64122505394732,0,90,3.0,4,0.16786031039066646
5.265,3.1396702713238487e-06,85.04901931930311,0,90,3.0,4,0.15564988287222914
5.27,1.6192875458531019e-06,84.4387602126974,0,90,3.0,4,0.14306722088035884
5.275,8.201353897972012e-07,83.82213533947811,0,90,3.0,4,0.1303533059686208
5.28,4.0791415086824765e-07,83.2100020492971,0,90,3.0,4,0.1177320010164351
5.285,1.9923866938774793e-07,82.61209959132367,0,90,3.0,4,0.10540411528502412
5.29,9.556527981051257e-08,82.03683426260197,0,90,3.0,4,0.09354297448663858
5.295,4.501406988770349e-08,81.49114116317358,0,90,3.0,4,0.08229157037471299
5.3,0.0,80.98042139400573,0,90,3.0,4,0.07176126585578826
5.305,0.0,80.50854933008819,0,90,3.0,4,0.06203194495027189
5.31,0.0,80.07794121862382,0,90,3.0,4,0.05315342718812001
5.315,0.0,79.68967394383145,0,90,3.0,4,0.04514791636765879
5.32,0.0,79.343641421038,0,90,3.0,4,0.038013225176041256
5.325,0.0,79.03873569877285,0,90,3.0,4,0.031726509253048533
5.33,0.0,78.7730403484588,0,90,3.0,4,0.026248254607398075
5.335,0.0,78.54402494176766,0,90,3.0,4,0.021526287459127005
5.34,0.0,78.34873115785241,0,90,3.0,4,0.017499611502111604
5.345,0.0,78.18394311820627,0,90,3.0,4,0.014101919963015928
5.35,0.0,78.04633671698512,0,90,3.0,4,0.011264674577012863
5.355,0.0,77.9326048255094,0,90,3.0,4,0.008919687123905172
5.36,0.0,77.83955716327065,0,90,3.0,4,0.007001178624137214
5.365,0.0,77.76419524710677,0,90,3.0,4,0.005447324682613807
5.37,0.0,77.70376409986814,0,90,3.0,4,0.004201321646765737
5.375,0.0,77.6557833026171,0,90,3.0,4,0.003212026858084441
5.38,0.0,77.61806052479223,0,90,3.0,4,0.002434237624582006
5.385,0.0,77.58869090336411,0,90,3.0,4,0.0018286784198785638
5.39,0.0,77.56604561884642,0,90,3.0,4,0.0013617653370395194
5.395,0.0,77.54875279463894,0,90,3.0,4,0.001005212260596772
5.4,0.0,77.53567348873486,0,90,3.0,4,0.0007355358502032573
5.405,0.0,77.52587511080905,0,90,3.0,4,0.0005335074393619296
5.41,0.0,77.51860413229706,0,90,3.0,4,0.0003835903566403445
5.415,0.0,77.51325950118392,0,90,3.0,4,0.0002733917769881293
5.42,0.0,77.50936775491698,0,90,3.0,4,0.00019314958591710763
5.425,0.0,77.50656046193507,0,90,3.0,4,0.00013526725639312456
5.43,0.0,77.50455432360889,0,90,3.0,4,9.390357956466144e-05
5.435,0.0,77.50313403555388,0,90,3.0,4,6.461928977081388e-05
5.44,0.0,77.50213783664955,0,90,3.0,4,4.4079106176341905e-05
5.445,0.0,77.50144555853898,0,90,3.0,4,2.98053307005244e-05
5.45,0.0,77.50096891887269,0,90,3.0,4,1.99777087151894e-05
5.455,0.0,77.50064376848633,0,90,3.0,4,1.3273577037674016e-05
5.46,0.0,77.50042399679897,0,90,3.0,4,8.742202040657129e-06
5.465,0.0,77.50027681269826,0,90,3.0,4,5.7074783146430326e-06
5.47,0.0,77.50017914306727,0,90,3.0,4,3.6936714901251614e-06
5.475,0.0,77.50011492236888,0,90,3.0,4,2.369533378966771e-06
5.48,0.0,77.50007308019532,0,90,3.0,4,1.5068081509492838e-06
5.485,0.0,77.50004606651895,0,90,3.0,4,9.498251329463079e-07
5.49,0.0,77.50002878469674,0,90,3.0,4,5.934989018179604e-07
5.495,0.0,77.50001782906168,0,90,3.0,4,3.6760951909095593e-07
5.5,0.0,77.50001094676722,0,90,3.0,4,2.2570654059610703e-07
5.505,0.0,77.50000666244819,0,90,3.0,4,1.3737006569143203e-07
5.51,0.0,77.50000401950314,0,90,3.0,4,8.287635334932723e-08
5.515,0.0,77.50000240381736,0,90,3.0,4,4.9563244578372907e-08
5.52,0.0,77.50000142502056,0,90,3.0,4,2.9381867147769542e-08
5.525,0.0,77.50000083739691,0,90,3.0,4,1.7265915689161365e-08
5.53,0.001684486749771458,77.50000048778917,0,90,3.0,4,1.0057508567096539e-08
5.535,0.004172395771277602,77.50000028165891,0,90,3.0,4,5.807400269724294e-09
5.54,0.009438687428818865,77.500000161215,0,90,3.0,4,3.324020591423608e-09
5.545,0.019500507867137046,77.50000009146984,0,90,3.0,4,1.8859761495928676e-09
5.55,0.03679496976339974,77.50000005144474,0,90,3.0,4,1.060716362396128e-09
5.555,0.06340728953298436,77.50000002868101,0,90,3.0,4,5.913611318843773e-10
5.56,0.09979255396093453,77.50000001585035,0,90,3.0,4,3.2681127449154937e-10
5.565,0.14343835518453557,77.50000000868307,0,90,3.0,4,1.7903244980450685e-10
5.57,0.18829581417209276,77.50000000471519,0,90,3.0,4,9.722041270543207e-11
5.575,0.2257481735193119,77.50000000253813,0,90,3.0,4,5.2332571266157815e-11
5.58,0.24718154073554727,77.50000000135432,0,90,3.0,4,2.792418301171508e-11
5.585,0.24718154074102772,77.50000000071634,0,90,3.0,4,1.4769912669771188e-11
5.59,0.22574817354072055,77.50000000037558,0,90,3.0,4,7.743890294187087e-12
5.595,0.18829581422840957,77.5000000001952,0,90,3.0,4,4.02474846119618e-12
5.6,0.14343835532456656,77.50000000010057,0,90,3.0,4,2.0736127591646305e-12
5.605,0.09979255431561854,77.50000000005136,0,90,3.0,4,1.058928431767836e-12
5.61,0.06340729067170194,77.50000000002599,0,90,3.0,4,5.359103767856591e-13
5.615,0.03679497683410042,77.50000000001305,0,90,3.0,4,2.689807139908338e-13
5.62,0.019500578284482293,77.5000000000065,0,90,3.0,4,1.339043423679859e-13
5.625,0.009439396781978427,77.5000000000032,0,90,3.0,4,6.592664558598868e-14
5.63,0.004178588733610924,77.50000000000156,0,90,3.0,4,3.2230804508705575e-14
5.635,0.0017299316936037381,77.50000000000075,0,90,3.0,4,1.5529387626921776e-14
5.64,0.0008997325756988589,77.50000000000037,0,90,3.0,4,7.618190156603136e-15
5.645,0.001634769674224814,77.50000000000017,0,90,3.0,4,3.516087764586063e-15
5.65,0.00614904736476635,77.50000000000009,0,90,3.0,4,1.7580438822930315e-15
5.655,0.02168080359963608,77.50000000000004,0,90,3.0,4,8.790219411465157e-16
5.66,0.06433400338904088,77.50000000000001,0,90,3.0,4,2.9300731371550523e-16
5.665,0.1593410769217493,77.50000000000001,0,90,3.0,4,2.9300731371550523e-16
5.67,0.3291989194808569,77.5,0,90,3.0,4,0.0
5.675,0.5672906802982638,77.5,0,90,3.0,4,0.0
5.68,0.815339152120446,77.5,0,90,3.0,4,0.0
5.685,0.9768711246313155,77.50000284164666,1,90,3.0,4,5.859065282427614e-08
5.69,0.9726380909165361,77.50000513541534,0,90,3.0,4,1.0588485228132395e-07
5.695,0.7921091683291741,77.50000972533142,0,90,3.0,4,2.0052229739665507e-07
5.7,0.49139090102639077,77.50001983204943,0,90,3.0,4,4.089082357115762e-07
5.705,0.15739335672107918,77.50004425244363,0,90,3.0,4,9.124215181337914e-07
5.71,-0.11102342218909485,77.50010715796503,0,90,3.0,4,2.2094425779981713e-06
5.715,-0.2314207883647528,77.5002735884935,0,90,3.0,4,5.640999865963562e-06
5.72,-0.2029124434754801,77.50071229869842,0,90,3.0,4,1.4686571101384692e-05
5.725,-0.11151350554305876,77.50184192436068,0,90,3.0,4,3.797782186960334e-05
5.73,-0.039430666652076896,77.50465058308532,0,90,3.0,4,9.588831103756842e-05
5.735,-0.006087703519843621,77.51135048292498,0,90,3.0,4,0.00023403057577282423
5.74,0.005350271385530551,77.52662836067672,0,90,3.0,4,0.0005490383644685481
5.745,0.010381647827441833,77.55986008283949,0,90,3.0,4,0.0012342285121544779
5.75,0.015115203303506243,77.62871615943192,0,90,3.0,4,0.002653941431585923
5.755,0.021170964062928475,77.76448507889882,0,90,3.0,4,0.005453300595851858
5.76,0.029082821134029553,78.0190308444065,0,90,3.0,4,0.010701666894979403
5.765,0.03923107061708144,78.47243990533991,0,90,3.0,4,0.020050307326596104
5.77,0.051969043308817596,79.23909047325527,0,90,3.0,4,0.03585753553103658
5.775,0.06760532616283861,80.468368163272,0,90,3.0,4,0.06120346728395884
5.78,0.08636519236693461,82.33522248926154,0,90,3.0,4,0.09969530905693896
5.785,0.10834733138818661,85.01619319399947,0,90,3.0,4,0.15497305554638083
5.79,0.1334809643017884,88.64936492577402,0,90,3.0,4,0.2298838129025572
5.795,0.16148868344343945,93.28217293658074,0,90,3.0,4,0.32540562755836566
5.8,0.191860907532018,98.81798972078323,0,90,3.0,4,0.4395461798099635
5.805,0.22384764873847726,104.97837403835521,0,90,3.0,4,0.5665644131619632
5.81,0.25647215537198226,111.29935597736814,0,90,3.0,4,0.6968939376776936
5.815,0.2885689161419028,117.17453906786568,0,90,3.0,4,0.8180317333580552
5.82,0.31884566517832524,121.94509813663508,0,90,3.0,4,0.9163937760130945
5.825,0.3459657668955683,125.02047608087008,0,90,3.0,4,0.9798036305334038
5.83,0.3686441789190902,126.0,0,90,3.0,4,1.0
5.835,0.3857476379544367,124.76110192272094,0,90,3.0,4,0.9744557097468235
5.84,0.3963882865005728,121.4875182790804,0,90,3.0,4,0.9069591397748537
5.845,0.4,116.6287058194931,0,90,3.0,4,0.8067774395771774
5.85,0.39638828650057273,110.80301806039404,0,90,3.0,4,0.6866601661936915
5.855,0.38574763795443656,104.67357444072778,0,90,3.0,4,0.5602798853758304
5.86,0.36864417891908974,98.83118480258737,0,90,3.0,4,0.43981824335231695
5.865,0.345965766895568,93.71212167075892,0,90,3.0,4,0.334270549912555
5.87,0.3188456651783249,89.56393789015415,0,90,3.0,4,0.24874098742585876
5.875,0.28856891614190205,86.45649610709219,0,90,3.0,4,0.18467002282664313
5.88,0.2564721553719815,84.3238267777099,0,90,3.0,4,0.14069745933422467
5.885,0.22384764873847685,83.01824586008357,0,90,3.0,4,0.11377826515636222
5.89,0.19186090753201765,82.3607250432506,0,90,3.0,4,0.10022113491238344
5.895,0.16148868344343878,82.17790417755486,0,90,3.0,4,0.09645163252690443
5.9,0.1334809643017881,82.32301424983154,0,90,3.0,4,0.09944359278003184
5.905,0.10834733138818531,82.68299482340544,0,90,3.0,4,0.10686587264753479
5.91,0.08636519236690572,83.17642932367355,0,90,3.0,4,0.11703977986955764
5.915,0.06760532616242629,83.747005124037,0,90,3.0,4,0.12880422936158767
5.92,0.05196904332202373,84.35601615827898,0,90,3.0,4,0.1413611579026593
5.925,0.03923107185803287,84.97590794405919,0,90,3.0,4,0.1541424318362719
5.93,0.02908287038705761,85.58561130572897,0,90,3.0,4,0.16671363516966958
5.935,0.02117220077308346,86.1676328734186,0,90,3.0,4,0.17871407986430096
5.94,0.0151361834125735,86.70652267302486,0,90,3.0,4,0.18982520975308997
5.945,0.010626454858290009,87.18827313384817,0,90,3.0,4,0.1997582089453231
5.95,0.007326255555493652,87.6002732574449,0,90,3.0,4,0.20825305685453396
5.955,0.004960179211183015,87.93154771974346,0,90,3.0,4,0.21508345813904048
5.96,0.0032978759379303545,88.17310463785162,0,90,3.0,4,0.22006401315157983
5.965,0.002153242296767213,88.31828322100691,0,90,3.0,4,0.22305738600014244
5.97,0.001380616732225004,88.36303606968106,0,90,3.0,4,0.22398012514806306
5.975,0.0008693106590991584,88.30610811938153,0,90,3.0,4,0.22280635297693885
5.98,0.000537524815942247,88.14909210780685,0,90,3.0,4,0.2195689094393165
5.985,0.0003263951340288585,87.89635352979845,0,90,3.0,4,0.2143578047381123
5.99,0.00019463030985187395,87.55482865987335,0,90,3.0,4,0.2073160548427495
5.995,0.00011397219555062695,87.13370820829557,0,90,3.0,4,0.19863315893392935
6.0,6.55403863487943e-05,86.64402658647539,0,90,3.0,4,0.18853663064897713
6.005,3.701184389455385e-05,86.09818233591776,0,90,3.0,4,0.1772821100189228
6.01,2.0525516217290957e-05,85.50941874168905,0,90,3.0,4,0.1651426544678154
6.015,1.1178128483661116e-05,84.89129484704627,0,90,3.0,4,0.15239783189786119
6.02,5.978135409912517e-06,84.25717603311269,0,90,3.0,4,0.13932321717758114
6.025,3.1396702713238487e-06,83.61977023968812,0,90,3.0,5,0.1261808296842912
6.03,1.6192875458531019e-06,82.99073116007229,0,90,3.0,5,0.11321095175406776
6.035,8.201353897972012e-07,82.38034384450859,0,90,3.0,5,0.10062564627852758
6.04,4.0791415086824765e-07,81.79730165774147,0,90,3.0,5,0.08860415789157672
6.045,1.9923866938774793e-07,81.24857702449877,0,90,3.0,5,0.07729024792780972
6.05,9.556527981051257e-08,80.73938237949095,0,90,3.0,5,0.06679138926785459
6.055,4.501406988770349e-08,80.27321263676781,0,90,3.0,5,0.05717964199521256
6.06,0.0,79.85195660178154,0,90,3.0,5,0.04849395055219666
6.065,0.0,79.47606222315747,0,90,3.0,5,0.04074355099293753
6.07,0.0,79.14473943737704,0,90,3.0,5,0.03391215334798022
6.075,0.0,78.85618449458457,0,90,3.0,5,0.027962566898650884
6.08,0.0,78.60781086922685,0,90,3.0,5,0.022841461221172223
6.085,0.0,78.39647389480362,0,90,3.0,5,0.018483997831002474
6.09,0.0,78.21867882903723,0,90,3.0,5,0.014818120186334651
6.095,0.0,78.07076486884718,0,90,3.0,5,0.011768347811282017
6.1,0.0,77.94906043727421,0,90,3.0,5,0.009258978088128096
6.105,0.0,77.85000764806028,0,90,3.0,5,0.007216652537325449
6.11,0.0,77.77025606689202,0,90,3.0,5,0.005572290039010662
6.115,0.0,77.706727640736,0,90,3.0,5,0.00426242558218568
6.12,0.0,77.65665592416397,0,90,3.0,5,0.003230019054927235
6.125,0.0,77.61760350788578,0,90,3.0,5,0.002424814595582992
6.13,0.0,77.58746190000828,0,90,3.0,5,0.0018033381445005938
6.135,0.0,77.5644380986904,0,90,3.0,5,0.001328620591554691
6.14,0.0,77.54703181144795,0,90,3.0,5,0.0009697280710917753
6.145,0.0,77.53400680827698,0,90,3.0,5,0.000701171304680096
6.15,0.0,77.52435932323314,0,90,3.0,5,0.0005022540872812794
6.155,0.0,77.51728581027695,0,90,3.0,5,0.00035640845931846006
6.16,0.0,77.51215176729428,0,90,3.0,5,0.0002505519029749352
6.165,0.0,77.5084628048222,0,90,3.0,5,0.00017449082107632
6.17,0.0,77.50583867610601,0,90,3.0,5,0.00012038507435070492
6.175,0.0,77.50399061307752,0,90,3.0,5,8.228068201070837e-05
6.18,0.0,77.50270202919619,0,90,3.0,5,5.571194218940449e-05
6.185,0.0,77.50181244831914,0,90,3.0,5,3.7370068435934955e-05
6.19,0.0,77.50120438795803,0,90,3.0,5,2.4832741402600658e-05
6.195,0.0,77.50079285241956,0,90,3.0,5,1.6347472568347174e-05
6.2,0.0,77.50051706302851,0,90,3.0,5,1.0661093371355332e-05
6.205,0.0,77.50033405639782,0,90,3.0,5,6.8877607797623064e-06
6.21,0.0,77.50021380668517,0,90,3.0,5,4.408385261177903e-06
6.215,0.0,77.50013556511455,0,90,3.0,5,2.7951570009768194e-06
6.22,0.0,77.5000851529678,0,90,3.0,5,1.7557312948198517e-06
6.225,0.0,77.50005298791253,0,90,3.0,5,1.0925342788717917e-06
6.23,0.0,77.50003266472537,0,90,3.0,5,6.73499492107759e-07
6.235,0.0,77.50001994832292,0,90,3.0,5,4.113056271195354e-07
6.24,0.0,77.50001206865707,0,90,3.0,5,2.48838290124545e-07
6.245,0.0,77.5000072333034,0,90,3.0,5,1.4914027643105337e-07
6.25,0.0,77.5000042947669,0,90,3.0,5,8.855189476074059e-08
6.255,0.0,77.50000252619976,0,90,3.0,5,5.208659309133022e-08
6.26,0.0,77.50000147204457,0,90,3.0,5,3.035143450200774e-08
6.265,0.001684486749771458,77.50000084976611,0,90,3.0,5,1.7520950720055908e-08
6.27,0.004172395771277602,77.50000048596281,0,90,3.0,5,1.001985185315245e-08
6.275,0.009438687428818865,77.50000027531625,0,90,3.0,5,5.676623780430221e-09
6.28,0.019500507867137046,77.50000015452041,0,90,3.0,5,3.1859877760053704e-09
6.285,0.03679496976339974,77.50000008591421,0,90,3.0,5,1.771426991346987e-09
6.29,0.06340728953298436,77.50000004732269,0,90,3.0,5,9.757254889505535e-10
6.295,0.09979255396093453,77.50000002582253,0,90,3.0,5,5.324232967451309e-10
6.3,0.14343835518453557,77.50000001395898,0,90,3.0,5,2.878140520872116e-10
6.305,0.18829581417209276,77.50000000747538,0,90,3.0,5,1.5413151625570837e-10
6.31,0.2257481735193119,77.50000000396587,0,90,3.0,5,8.177043006052719e-11
6.315,0.24718154073554727,77.50000000208433,0,90,3.0,5,4.2975968717280584e-11
6.32,0.24718154074102772,77.50000000108524,0,90,3.0,5,2.2376089526511988e-11
6.325,0.22574817354072055,77.50000000055977,0,90,3.0,5,1.1541558087253752e-11
6.33,0.18829581422840957,77.50000000028602,0,90,3.0,5,5.897358203151974e-12
6.335,0.14343835532456656,77.5000000001448,0,90,3.0,5,2.9854515194472828e-12
6.34,0.09979255431561854,77.5000000000726,0,90,3.0,5,1.4969743657725163e-12
6.345,0.06340729067170194,77.50000000003607,0,90,3.0,5,7.436525622099523e-13
6.35,0.03679497683410042,77.50000000001775,0,90,3.0,5,3.6596613483066605e-13
6.355,0.019500578284482293,77.50000000000865,0,90,3.0,5,1.7844145405274268e-13
6.36,0.009439396781978427,77.50000000000418,0,90,3.0,5,8.614415023235853e-14
6.365,0.004178588733610924,77.500000000002,0,90,3.0,5,4.1314031233886236e-14
6.37,0.0017299316936037381,77.50000000000095,0,90,3.0,5,1.963149001893885e-14
6.375,0.0008997325756988589,77.50000000000044,0,90,3.0,5,9.083226725180661e-15
6.38,0.001634769674224814,77.50000000000021,0,90,3.0,5,4.395109705732579e-15
6.385,0.00614904736476635,77.5000000000001,0,90,3.0,5,2.0510511960085364e-15
6.39,0.02168080359963608,77.50000000000004,0,90,3.0,5,8.790219411465157e-16
6.395,0.06433400338904088,77.50000000000001,0,90,3.0,5,2.9300731371550523e-16
6.4,0.1593410769217493,77.50000000000001,0,90,3.0,5,2.9300731371550523e-16
6.405,0.3291989194808569,77.5,0,90,3.0,5,0.0
6.41,0.5672906802982638,77.5,0,90,3.0,5,0.0
6.415,0.815339152120446,77.5,0,90,3.0,5,0.0
6.42,0.9768711246313155,77.50000284586159,1,90,3.0,5,5.8677558500516847e-08
6.425,0.9726380909165361,77.50000527961552,0,90,3.0,5,1.0885805199295553e-07
6.43,0.7921091683291741,77.50001031954956,0,90,3.0,5,2.1277421772716367e-07
6.435,0.49139090102639077,77.5000219076864,0,90,3.0,5,4.517048742836215e-07
6.44,0.15739335672107918,77.5000513062313,0,90,3.0,5,1.0578604391548184e-06
6.445,-0.11102342218909485,77.50013076005604,0,90,3.0,5,2.6960836296509407e-06
6.45,-0.2314207883647528,77.50035020381222,0,90,3.0,5,7.220697159130761e-06
6.455,-0.2029124434754801,77.50095018691317,0,90,3.0,5,1.9591482745824776e-05
6.46,-0.11151350554305876,77.50254252172627,0,90,3.0,5,5.242312837668747e-05
6.465,-0.039430666652076896,77.50659976740856,0,90,3.0,5,0.00013607767852699768
6.47,-0.006087703519843621,77.51646537881305,0,90,3.0,5,0.00033949234666087036
6.475,0.005350271385530551,77.53928253215116,0,90,3.0,5,0.00080994911651881
6.48,0.010381647827441833,77.58937615985101,0,90,3.0,5,0.0018428074196085336
6.485,0.015115203303506243,77.69363594416527,0,90,3.0,5,0.003992493694129186
6.49,0.021170964062928475,77.89914273187748,0,90,3.0,5,0.008229747049020112
6.495,0.029082821134029553,78.28242166935907,0,90,3.0,5,0.016132405553795196
6.5,0.03923107061708144,78.95815265228912,0,90,3.0,5,0.03006500313998176
6.505,0.051969043308817596,80.08310908029944,0,90,3.0,5,0.05325998103710179
6.51,0.06760532616283861,81.84927459141106,0,90,3.0,5,0.08967576477136206
6.515,0.08636519236693461,84.45983730743244,0,90,3.0,5,0.14350180015324612
6.52,0.10834733138818661,88.08459313200352,0,90,3.0,5,0.2182390336495571
6.525,0.1334809643017884,92.79797719482352,0,90,3.0,5,0.31542221020254674
6.53,0.16148868344343945,98.51242125918112,0,90,3.0,5,0.4332457991583737
6.535,0.191860907532018,104.92855626497301,0,90,3.0,5,0.5655372425767631
6.54,0.22384764873847726,111.52691835651606,0,90,3.0,5,0.7015859454951766
6.545,0.25647215537198226,117.61903404505797,0,90,3.0,5,0.827196578248618
6.55,0.2885689161419028,122.45858606973496,0,90,3.0,5,0.9269811560770096
6.555,0.31884566517832524,125.39083977274626,0,90,3.0,5,0.9874399953143559
6.56,0.3459657668955683,126.0,0,90,3.0,5,1.0
6.565,0.3686441789190902,124.20909158519541,0,90,3.0,5,0.9630740533029981
6.57,0.3857476379544367,120.29953639901376,0,90,3.0,5,0.8824646680209023
6.575,0.3963882865005728,114.84382327361675,0,90,3.0,5,0.7699757376003453
6.58,0.4,108.57369951396845,0,90,3.0,5,0.6406948353395556
6.585,0.39638828650057273,102.2258821880279,0,90,3.0,5,0.5098120038768639
6.59,0.38574763795443656,96.40992335364712,0,90,3.0,5,0.389895326879322
6.595,0.36864417891908974,91.52930221937348,0,90,3.0,5,0.2892639632860511
6.6,0.345965766895568,87.76478426184879,0,90,3.0,5,0.21164503632677914
6.605,0.3188456651783249,85.10862158827653,0,90,3.0,5,0.15687879563456772
6.61,0.28856891614190205,83.42656336784474,0,90,3.0,5,0.1221971828421595
6.615,0.2564721553719815,82.52378753042284,0,90,3.0,5,0.1035832480499554
6.62,0.22384764873847685,82.19783132916163,0,90,3.0,5,0.09686250163219856
6.625,0.19186090753201765,82.27134594925722,0,90,3.0,5,0.09837826699499432
6.63,0.16148868344343878,82.60568848479885,0,90,3.0,5,0.10527192752162572
6.635,0.1334809643017881,83.10088201483204,0,90,3.0,5,0.11548210339859873
6.64,0.10834733138818531,83.68840901871987,0,90,3.0,5,0.12759606224164674
6.645,0.08636519236690572,84.32197791292448,0,90,3.0,5,0.14065933841081404
6.65,0.06760532616242629,84.96931088968523,0,90,3.0,5,0.15400641009660274
6.655,0.05196904332202373,85.60616534397113,0,90,3.0,5,0.16713742977260057
6.66,0.03923107185803287,86.21263167382902,0,90,3.0,5,0.1796418901820417
6.665,0.02908287038705761,86.77121984433278,0,90,3.0,5,0.19115917204809849
6.67,0.02117220077308346,87.26614028210291,0,90,3.0,5,0.20136371715676102
6.675,0.0151361834125735,87.68327944307798,0,90,3.0,5,0.20996452459954595
6.68,0.010626454858290009,88.01051741167255,0,90,3.0,5,0.21671169920974334
6.685,0.007326255555493652,88.23816273562356,0,90,3.0,5,0.22140541722935178
6.69,0.004960179211183015,88.35936913531009,0,90,3.0,5,0.22390451825381627
6.695,0.0032978759379303545,88.3704549759066,0,90,3.0,5,0.22413309228673395
6.7,0.002153242296767213,88.27108106749418,0,90,3.0,5,0.22208414572152949
6.705,0.001380616732225004,88.06426526041847,0,90,3.0,5,0.2178199022766694
6.71,0.0008693106590991584,87.75622938752784,0,90,3.0,5,0.21146864716552244
6.715,0.000537524815942247,87.35608811985259,0,90,3.0,5,0.20321831174953786
6.72,0.0003263951340288585,86.87540102954962,0,90,3.0,5,0.1933072377226726
6.725,0.00019463030985187395,86.32761843902698,0,90,3.0,5,0.18201275132014386
6.73,0.00011397219555062695,85.72745804544682,0,90,3.0,5,0.16963831021539844
6.735,6.55403863487943e-05,85.09025249472462,0,90,3.0,5,0.1565000514376211
6.74,3.701184389455385e-05,84.43130793834682,0,90,3.0,5,0.14291356573910968
6.745,2.0525516217290957e-05,83.7653103417945,0,90,3.0,5,0.12918165653184543
6.75,1.1178128483661116e-05,83.10581041043784,0,90,3.0,5,0.11558371980284206
6.755,5.978135409912517e-06,82.46481016288601,0,90,3.0,5,0.1023672198533198
6.76,3.1396702713238487e-06,81.85246524967621,0,90,3.0,5,0.08974155153971576
6.765,1.6192875458531019e-06,81.276907956434,0,90,3.0,5,0.07787439085430932
6.77,8.201353897972012e-07,80.74418725350604,0,90,3.0,5,0.06689045883517611
6.775,4.0791415086824765e-07,80.25831492720756,0,90,3.0,5,0.056872472725929164
6.78,1.9923866938774793e-07,79.82140122596148,0,90,3.0,5,0.04786394280332949
6.785,9.556527981051257e-08,79.43385983225944,0,90,3.0,5,0.039873398603287494
6.79,4.501406988770349e-08,79.09466036456183,0,90,3.0,5,0.03287959514560479
6.795,0.0,78.80160686539986,0,90,3.0,5,0.026837254956698177
6.8,0.0,78.55162253760456,0,90,3.0,5,0.021682938919681614
6.805,0.0,78.34102394918298,0,90,3.0,5,0.017340699983154285
6.81,0.0,78.16577159895577,0,90,3.0,5,0.0137272494630056
6.815,0.0,78.02168769123986,0,90,3.0,5,0.010756447242059007
6.82,0.0,77.90463583247852,0,90,3.0,5,0.008343006855227193
6.825,0.0,77.81066083961933,0,90,3.0,5,0.006405378136481049
6.83,0.0,77.73608973677702,0,90,3.0,5,0.004867829624268409
6.835,0.0,77.67759720552577,0,90,3.0,5,0.003661798052077754
6.84,0.0,77.63224022257143,0,90,3.0,5,0.0027266025272458896
6.845,0.0,77.59746741293033,0,90,3.0,5,0.0020096373800067655
6.85,0.0,77.57110886220912,0,90,3.0,5,0.001466162107404441
6.855,0.0,77.55135189140306,0,90,3.0,5,0.0010588018845991423
6.86,0.0,77.53670773455,0,90,3.0,5,0.0007568605061856994
6.865,0.0,77.52597330075044,0,90,3.0,5,0.0005355319742358057
6.87,0.0,77.51819135838316,0,90,3.0,5,0.00037507955429202044
6.875,0.0,77.51261163923783,0,90,3.0,5,0.00026003379871818866
6.88,0.0,77.50865458747553,0,90,3.0,5,0.00017844510258831027
6.885,0.0,77.50587881276304,0,90,3.0,5,0.00012121263428955844
6.89,0.0,77.5039527678497,0,90,3.0,5,8.150036803498289e-05
6.895,0.0,77.5026307611049,0,90,3.0,5,5.424249700817218e-05
6.9,0.0,77.50173312521085,0,90,3.0,5,3.5734540429848964e-05
6.905,0.0,77.50113017810872,0,90,3.0,5,2.3302641416991072e-05
6.91,0.0,77.50072951170684,0,90,3.0,5,1.5041478491477542e-05
6.915,0.0,77.50046610747096,0,90,3.0,5,9.610463318680203e-06
6.92,0.0,77.50029478697198,0,90,3.0,5,6.078081896445378e-06
6.925,0.0,77.50018454357595,0,90,3.0,5,3.805022184636626e-06
6.93,0.0,77.5001143557486,0,90,3.0,5,2.357850486457688e-06
6.935,0.0,77.50007014318696,0,90,3.0,5,1.446251277527444e-06
6.94,0.0,77.50004258742786,0,90,3.0,5,8.780912960048095e-07
6.945,0.0,77.50002559444704,0,90,3.0,5,5.277205574886991e-07
6.95,0.0,77.50001522574371,0,90,3.0,5,3.139328599872053e-07
6.955,0.0,77.5000089656071,0,90,3.0,5,1.8485787822822944e-07
6.96,0.0,77.50000522575824,0,90,3.0,5,1.0774759265793186e-07
6.965,0.0,77.50000301500023,0,90,3.0,5,6.21649532309e-08
6.97,0.001684486749771458,77.50000172184403,0,90,3.0,5,3.5501938745040105e-08
6.975,0.004172395771277602,77.50000097334923,0,90,3.0,5,2.0069056299970978e-08
6.98,0.009438687428818865,77.50000054464309,0,90,3.0,5,1.1229754354363397e-08
6.985,0.019500507867137046,77.50000030166417,0,90,3.0,5,6.219879850570728e-09
6.99,0.03679496976339974,77.50000016538796,0,90,3.0,5,3.410061017066911e-09
6.995,0.06340728953298436,77.50000008975371,0,90,3.0,5,1.850592000373956e-09
7.0,0.09979255396093453,77.5000000482136,0,90,3.0,5,9.940947034620061e-10
7.005,0.14343835518453557,77.50000002563627,0,90,3.0,5,5.285828498842617e-10
7.01,0.18829581417209276,77.50000001349301,0,90,3.0,5,2.782063422704802e-10
7.015,0.2257481735193119,77.50000000702961,0,90,3.0,5,1.449404628390804e-10
7.02,0.24718154073554727,77.50000000362512,0,90,3.0,5,7.474470069225681e-11
7.025,0.24718154074102772,77.50000000185047,0,90,3.0,5,3.8153947355464515e-11
7.03,0.22574817354072055,77.50000000093499,0,90,3.0,5,1.927812319859795e-11
7.035,0.18829581422840957,77.50000000046764,0,90,3.0,5,9.641991672436131e-12
7.04,0.14343835532456656,77.50000000023151,0,90,3.0,5,4.773382147739296e-12
7.045,0.09979255431561854,77.50000000011345,0,90,3.0,5,2.3390773853908783e-12
7.05,0.06340729067170194,77.50000000005502,0,90,3.0,5,1.1345243187064363e-12
7.055,0.03679497683410042,77.50000000002642,0,90,3.0,5,5.447005961971242e-13
7.06,0.019500578284482293,77.50000000001256,0,90,3.0,5,2.590184653245066e-13
7.065,0.009439396781978427,77.50000000000591,0,90,3.0,5,1.2189104250565017e-13
7.07,0.004178588733610924,77.50000000000276,0,90,3.0,5,5.684341886080802e-14
7.075,0.0017299316936037381,77.50000000000126,0,90,3.0,5,2.6077650920679964e-14
7.08,0.0008997325756988589,77.50000000000058,0,90,3.0,5,1.2013299862335714e-14
7.085,0.001634769674224814,77.50000000000026,0,90,3.0,5,5.274131646879094e-15
7.09,0.00614904736476635,77.50000000000011,0,90,3.0,5,2.344058509724042e-15
7.095,0.02168080359963608,77.50000000000006,0,90,3.0,5,1.172029254862021e-15
7.1,0.06433400338904088,77.50000000000003,0,90,3.0,5,5.860146274310105e-16
7.105,0.1593410769217493,77.50000000000001,0,90,3.0,5,2.9300731371550523e-16
7.11,0.3291989194808569,77.5,0,90,3.0,5,0.0
7.115,0.5672906802982638,77.5,0,90,3.0,5,0.0
7.12,0.815339152120446,77.5,0,90,3.0,5,0.0
7.125,0.9768711246313155,77.50000284146185,1,90,3.0,5,5.858684226416127e-08
7.13,0.9726380909165361,77.50000566108393,0,90,3.0,5,1.1672338004733394e-07
7.135,0.7921091683291741,77.50001208193964,0,90,3.0,5,2.49112157614514e-07
7.14,0.49139090102639077,77.50002873397177,0,90,3.0,5,5.924530262760039e-07
7.145,0.15739335672107918,77.50007697165655,0,90,3.0,5,1.5870444650369519e-06
7.15,-0.11102342218909485,77.5002248661891,0,90,3.0,5,4.636416270107747e-06
7.155,-0.2314207883647528,77.50068051525129,0,90,3.0,5,1.4031242294631925e-05
7.16,-0.2029124434754801,77.50204432602273,0,90,3.0,5,4.215105201498454e-05
7.165,-0.11151350554305876,77.50593777613041,0,90,3.0,5,0.00012242837382286874
7.17,-0.039430666652076896,77.5164399231014,0,90,3.0,5,0.00033896748662683775
7.175,-0.006087703519843621,77.5430754284251,0,90,3.0,5,0.0008881531634040833
7.18,0.005350271385530551,77.60641853580098,0,90,3.0,5,0.0021941966144532724
7.185,0.010381647827441833,77.74742477142738,0,90,3.0,5,0.005101541678914966
7.19,0.015115203303506243,78.0408498094408,0,90,3.0,5,0.011151542462696914
7.195,0.021170964062928475,78.61092688858213,0,90,3.0,5,0.022905709042930475
7.2,0.029082821134029553,79.6435860439409,0,90,3.0,5,0.04419765039053402
7.205,0.03923107061708144,81.38481376725014,0,90,3.0,5,0.08009925293299251
7.21,0.051969043308817596,84.11198300521768,0,90,3.0,5,0.13632954649933363
7.215,0.06760532616283861,88.06822919931167,0,90,3.0,5,0.21790163297549842
7.22,0.08636519236693461,93.3624433467146,0,90,3.0,5,0.3270606875611258
7.225,0.10834733138818661,99.85796314992469,0,90,3.0,5,0.4609889309262822
7.23,0.1334809643017884,107.09329543873122,0,90,3.0,6,0.6101710399738396
7.235,0.16148868344343945,114.28467844096284,0,90,3.0,6,0.7584469781641822
7.24,0.191860907532018,120.44171590167264,0,90,3.0,6,0.8853962041581988
7.245,0.22384764873847726,124.58441298286456,0,90,3.0,6,0.9708126388219498
7.25,0.25647215537198226,126.0,0,90,3.0,6,1.0
7.255,0.2885689161419028,124.44805851086043,0,90,3.0,6,0.9680012064094935
7.26,0.31884566517832524,120.23336770229193,0,90,3.0,6,0.8811003649957099
7.265,0.3459657668955683,114.1166790767293,0,90,3.0,6,0.7549830737469958
7.27,0.3686441789190902,107.09975419133913,0,90,3.0,6,0.6103042101307037
7.275,0.3857476379544367,100.16845034237797,0,90,3.0,6,0.46739072870882403
7.28,0.3963882865005728,94.08390247082684,0,90,3.0,6,0.34193613341911017
7.285,0.4,89.27867445647695,0,90,3.0,6,0.2428592671438546
7.29,0.39638828650057273,85.864344835223,0,90,3.0,6,0.1724607182520205
7.295,0.38574763795443656,83.71609774519702,0,90,3.0,6,0.1281669638184952
7.3,0.36864417891908974,82.5841699556867,0,90,3.0,6,0.10482824650900421
7.305,0.345965766895568,82.19056841459238,0,90,3.0,6,0.09671275081633768
7.31,0.3188456651783249,82.29034138789683,0,90,3.0,6,0.098769925523646
7.315,0.28856891614190205,82.69662523703138,0,90,3.0,6,0.10714691210373987
7.32,0.2564721553719815,83.28017122082787,0,90,3.0,6,0.11917878805830655
7.325,0.22384764873847685,83.95647708211006,0,90,3.0,6,0.1331232388063929
7.33,0.19186090753201765,84.67048907652408,0,90,3.0,6,0.1478451355984346
7.335,0.16148868344343878,85.38412783726835,0,90,3.0,6,0.16255933685089385
7.34,0.1334809643017881,86.06814495598806,0,90,3.0,6,0.17666278259769197
7.345,0.10834733138818531,86.69778161152293,0,90,3.0,6,0.1896449816808851
7.35,0.08636519236690572,87.25104168924796,0,90,3.0,6,0.20105240596387536
7.355,0.06760532616242629,87.70847176089451,0,90,3.0,6,0.21048395383287652
7.36,0.05196904332202373,88.05365884673252,0,90,3.0,6,0.21760121333469107
7.365,0.03923107185803287,88.27395822955663,0,90,3.0,6,0.2221434686506521
7.37,0.02908287038705761,88.36117218288662,0,90,3.0,6,0.22394169449250761
7.375,0.02117220077308346,88.31202622987558,0,90,3.0,6,0.22292837587372338
7.38,0.0151361834125735,88.12836388999429,0,90,3.0,6,0.2191415235050369
7.385,0.010626454858290009,87.81702923229327,0,90,3.0,6,0.2127222522122323
7.39,0.007326255555493652,87.38944286440807,0,90,3.0,6,0.20390603844140345
7.395,0.004960179211183015,86.86090652517962,0,90,3.0,6,0.1930083819624663
7.4,0.0032978759379303545,86.24969489964558,0,90,3.0,6,0.18040608040506342
7.405,0.002153242296767213,85.57600963817242,0,90,3.0,6,0.16651566264273035
7.41,0.001380616732225004,84.86087877929835,0,90,3.0,6,0.15177069648037828
7.415,0.0008693106590991584,84.1250844861679,0,90,3.0,6,0.13659968012717333
7.42,0.000537524815942247,83.38819378194358,0,90,3.0,6,0.12140605735966155
7.425,0.0003263951340288585,82.66775226181372,0,90,3.0,6,0.10655159302708696
7.43,0.00019463030985187395,81.97868166934622,0,90,3.0,6,0.0923439519452828
7.435,0.00011397219555062695,81.33290118404989,0,90,3.0,6,0.07902889039278119
7.44,6.55403863487943e-05,80.73917169351294,0,90,3.0,6,0.066787045227071
7.445,3.701184389455385e-05,80.20314431499443,0,90,3.0,6,0.05573493432978211
7.45,2.0525516217290957e-05,79.72758053473622,0,90,3.0,6,0.04592949556157153
7.455,1.1178128483661116e-05,79.31270241863277,0,90,3.0,6,0.03737530760067562
7.46,5.978135409912517e-06,78.95662759204296,0,90,3.0,6,0.030033558598823985
7.465,3.1396702713238487e-06,78.6558446534466,0,90,3.0,6,0.02383184852467202
7.47,1.6192875458531019e-06,78.40568947884991,0,90,3.0,6,0.018674009873193977
7.475,8.201353897972012e-07,78.20079032117712,0,90,3.0,6,0.014449284972724198
7.48,4.0791415086824765e-07,78.03545846105052,0,90,3.0,6,0.011040380640216993
7.485,1.9923866938774793e-07,77.90401025968183,0,90,3.0,6,0.008330108447047955
7.49,9.556527981051257e-08,77.80101484957184,0,90,3.0,6,0.006206491743749331
7.495,4.501406988770349e-08,77.72146870454772,0,90,3.0,6,0.004566365042220984
7.5,0.0,77.66090358782964,0,90,3.0,6,0.0033175997490646754
7.505,0.0,77.61543779137935,0,90,3.0,6,0.0023801606469968993
7.51,0.0,77.58178227885897,0,90,3.0,6,0.001686232553793126
7.515,0.0,77.55721360654816,0,90,3.0,6,0.0011796619906837135
7.52,0.0,77.539524679794,0,90,3.0,6,0.0008149418514226595
7.525,0.0,77.5269628821488,0,90,3.0,6,0.0005559357144081271
7.53,0.0,77.51816323428235,0,90,3.0,6,0.0003744996759248408
7.535,0.0,77.51208228217608,0,90,3.0,6,0.0002491192201253834
7.54,0.0,77.50793658518138,0,90,3.0,6,0.00016364093157491326
7.545,0.0,77.5051481039483,0,90,3.0,6,0.00010614647316084095
7.55,0.0,77.50329753832021,0,90,3.0,6,6.799048082910107e-05
7.555,0.0,77.50208574548876,0,90,3.0,6,4.300506162383865e-05
7.56,0.0,77.50130275183275,0,90,3.0,6,2.686086253099591e-05
7.565,0.0,77.50080350945366,0,90,3.0,6,1.6567205230122108e-05
7.57,0.0,77.50048938336957,0,90,3.0,6,1.0090378753998781e-05
7.575,0.0,77.5002943312271,0,90,3.0,6,6.068685094758096e-06
7.58,0.0,77.50017480441339,0,90,3.0,6,3.6042147090816777e-06
7.585,0.0,77.50010251734817,0,90,3.0,6,2.1137597560393317e-06
7.59,0.0,77.50005937057459,0,90,3.0,6,1.2241355585553447e-06
7.595,0.0,77.50003395267987,0,90,3.0,6,7.000552550755284e-07
7.6,0.0,77.50001917369362,0,90,3.0,6,3.9533388898816314e-07
7.605,0.001684486749771458,77.50001069218405,0,90,3.0,6,2.204574030591025e-07
7.61,0.004172395771277602,77.50000588783982,0,90,3.0,6,1.2139875915983288e-07
7.615,0.009438687428818865,77.50000320165451,0,90,3.0,6,6.601349500482514e-08
7.62,0.019500507867137046,77.50000171918202,0,90,3.0,6,3.5447052029020285e-08
7.625,0.03679496976339974,77.50000091158711,0,90,3.0,6,1.8795610474663807e-08
7.63,0.06340728953298436,77.50000047731316,0,90,3.0,6,9.841508556549802e-09
7.635,0.09979255396093453,77.50000024679568,0,90,3.0,6,5.088570701117692e-09
7.64,0.14343835518453557,77.50000012600873,0,90,3.0,6,2.5981181192712274e-09
7.645,0.18829581417209276,77.50000006353201,0,90,3.0,6,1.3099384211938703e-09
7.65,0.2257481735193119,77.50000003163105,0,90,3.0,6,6.52186520138579e-10
7.655,0.24718154073554727,77.50000001555118,0,90,3.0,6,3.2064288452321053e-10
7.66,0.24718154074102772,77.50000000754991,0,90,3.0,6,1.5566833961614618e-10
7.665,0.22574817354072055,77.5000000036195,0,90,3.0,6,7.462896280333919e-11
7.67,0.18829581422840957,77.5000000017135,0,90,3.0,6,3.5329942865874475e-11
7.675,0.14343835532456656,77.50000000080104,0,90,3.0,6,1.65162362595156e-11
7.68,0.09979255431561854,77.50000000036978,0,90,3.0,6,7.624343310191161e-12
7.685,0.06340729067170194,77.50000000016857,0,90,3.0,6,3.475652755293323e-12
7.69,0.03679497683410042,77.50000000007587,0,90,3.0,6,1.5643660479270824e-12
7.695,0.019500578284482293,77.50000000003372,0,90,3.0,6,6.953063554468939e-13
7.7,0.009439396781978427,77.50000000001481,0,90,3.0,6,3.0531362089155643e-13
7.705,0.004178588733610924,77.50000000000642,0,90,3.0,6,1.3243930579940837e-13
7.71,0.0017299316936037381,77.50000000000274,0,90,3.0,6,5.655041154709251e-14
7.715,0.0008997325756988589,77.50000000000117,0,90,3.0,6,2.402659972467143e-14
7.72,0.001634769674224814,77.50000000000048,0,90,3.0,6,9.962248666327177e-15
7.725,0.00614904736476635,77.5000000000002,0,90,3.0,6,4.102102392017073e-15
7.73,0.02168080359963608,77.50000000000009,0,90,3.0,6,1.7580438822930315e-15
7.735,0.06433400338904088,77.50000000000003,0,90,3.0,6,5.860146274310105e-16
7.74,0.1593410769217493,77.50000000000001,0,90,3.0,6,2.9300731371550523e-16
7.745,0.3291989194808569,77.5,0,90,3.0,6,0.0
7.75,0.5672906802982638,77.5,0,90,3.0,6,0.0
7.755,0.815339152120446,77.5,0,90,3.0,6,0.0
7.76,0.9768711246313155,77.5000028426471,1,90,3.0,6,5.8611280539161714e-08
7.765,0.9726380909165361,77.50000511593532,0,90,3.0,6,1.0548320254379974e-07
7.77,0.7921091683291741,77.50000964036138,0,90,3.0,6,1.9877033781123133e-07
7.775,0.49139090102639077,77.50001953538487,0,90,3.0,6,4.027914405220876e-07
7.78,0.15739335672107918,77.5000432606964,0,90,3.0,6,8.919731216731625e-07
7.785,-0.11102342218909485,77.50010390844962,0,90,3.0,6,2.1424422601453958e-06
7.79,-0.2314207883647528,77.5002632553772,0,90,3.0,6,5.427945921772184e-06
7.795,-0.2029124434754801,77.50068079911502,0,90,3.0,6,1.4037095154986373e-05
7.8,-0.11151350554305876,77.50175059357754,0,90,3.0,6,3.609471293897673e-05
7.805,-0.039430666652076896,77.50439971025311,0,90,3.0,6,9.07156753218724e-05
7.81,-0.006087703519843621,77.51069868561211,0,90,3.0,6,0.00022059145591984562
7.815,0.005350271385530551,77.52502734592285,0,90,3.0,6,0.0005160277509866174
7.82,0.010381647827441833,77.55614203264604,0,90,3.0,6,0.001157567683423432
7.825,0.015115203303506243,77.62055133166675,0,90,3.0,6,0.002485594467355595
7.83,0.021170964062928475,77.74752797986558,0,90,3.0,6,0.0051036696879501135
7.835,0.029082821134029553,77.98572371732214,0,90,3.0,6,0.010014922006642163
7.84,0.03923107061708144,78.41057612864718,0,90,3.0,6,0.018774765539117094
7.845,0.051969043308817596,79.13047625561579,0,90,3.0,6,0.03361806712609876
7.85,0.06760532616283861,80.288229430218,0,90,3.0,6,0.0574892666024329
7.855,0.08636519236693461,82.05327668834015,0,90,3.0,6,0.09388199357402367
7.86,0.10834733138818661,84.60035215810349,0,90,3.0,6,0.14639901356914414
7.865,0.1334809643017884,88.07263753087827,0,90,3.0,6,0.2179925264098612
7.87,0.16148868344343945,92.5323744193579,0,90,3.0,6,0.3099458643166576
7.875,0.191860907532018,97.90846515079481,0,90,3.0,6,0.4207930958926765
7.88,0.22384764873847726,103.95656597893684,0,90,3.0,6,0.545496205751275
7.885,0.25647215537198226,110.2493957755857,0,90,3.0,6,0.6752452737234165
7.89,0.2885689161419028,116.21077142328033,0,90,3.0,6,0.7981602355315532
7.895,0.31884566517832524,121.1957556814175,0,90,3.0,6,0.9009434161117009
7.9,0.3459657668955683,124.60405333132145,0,90,3.0,6,0.9712175944602361
7.905,0.3686441789190902,126.0,0,90,3.0,6,1.0
7.91,0.3857476379544367,125.20631710246992,0,90,3.0,6,0.9836354041746376
7.915,0.3963882865005728,122.34395676344872,0,90,3.0,6,0.9246176652257467
7.92,0.4,117.80585638212884,0,90,3.0,6,0.8310485851985328
7.925,0.39638828650057273,112.17263043562735,0,90,3.0,6,0.7148995966108733
7.93,0.38574763795443656,106.09531796174919,0,90,3.0,6,0.5895941847783338
7.935,0.36864417891908974,100.1779060461979,0,90,3.0,6,0.46758569167418357
7.94,0.345965766895568,94.88840785358333,0,90,3.0,6,0.35852387326975943
7.945,0.3188456651783249,90.51462290691649,0,90,3.0,6,0.2683427403487935
7.95,0.28856891614190205,87.16524039511556,0,90,3.0,6,0.19928330711578476
7.955,0.2564721553719815,84.80460264853114,0,90,3.0,6,0.15061036388724008
7.96,0.22384764873847685,83.30370962862875,0,90,3.0,6,0.11966411605420108
7.965,0.19186090753201765,82.49107847374887,0,90,3.0,6,0.102908834510286
7.97,0.16148868344343878,82.19252499411174,0,90,3.0,6,0.09675309266209764
7.975,0.1334809643017881,82.25561243620318,0,90,3.0,6,0.09805386466398308
7.98,0.10834733138818531,82.55988607569486,0,90,3.0,6,0.10432754795247139
7.985,0.08636519236690572,83.01693364758768,0,90,3.0,6,0.11375120922861191
7.99,0.06760532616242629,83.5649129488636,0,90,3.0,6,0.1250497515229607
7.995,0.05196904332202373,84.16130719449305,0,90,3.0,6,0.13734654009264016
8.0,0.03923107185803287,84.77624455095192,0,90,3.0,6,0.15002566084436939
8.005,0.02908287038705761,85.38741654807927,0,90,3.0,6,0.1626271453212221
8.01,0.02117220077308346,85.97674825310652,0,90,3.0,6,0.17477831449704168
8.015,0.0151361834125735,86.52852713853278,0,90,3.0,6,0.18615519873263464
8.02,0.010626454858290009,87.02856534351251,0,90,3.0,6,0.19646526481469095
8.025,0.007326255555493652,87.46400648746604,0,90,3.0,6,0.20544343273125848
8.03,0.004960179211183015,87.82348441956617,0,90,3.0,6,0.21285534885703444
8.035,0.0032978759379303545,88.09743716513903,0,90,3.0,6,0.21850385907503148
8.04,0.002153242296767213,88.27845237699276,0,90,3.0,6,0.2222361314843868
8.045,0.001380616732225004,88.3615692400097,0,90,3.0,6,0.2239498812373134
8.05,0.0008693106590991584,88.34449234955764,0,90,3.0,6,0.22359778040325032
8.055,0.000537524815942247,88.22769267734277,0,90,3.0,6,0.22118953973902625
8.06,0.0003263951340288585,88.01438449029398,0,90,3.0,6,0.21679143278956656
8.065,0.00019463030985187395,87.71037788946353,0,90,3.0,6,0.21052325545285627
8.07,0.00011397219555062695,87.32381572039769,0,90,3.0,6,0.20255290145149876
8.075,6.55403863487943e-05,86.86481124553991,0,90,3.0,6,0.19308889166061674
8.08,3.701184389455385e-05,86.3450089974046,0,90,3.0,6,0.18237131953411556
8.085,2.0525516217290957e-05,85.7770953728047,0,90,3.0,6,0.17066176026401433
8.09,1.1178128483661116e-05,85.17428757646559,0,90,3.0,6,0.15823273353537295
8.095,5.978135409912517e-06,84.54982942288322,0,90,3.0,6,0.14535730768831384
8.1,3.1396702713238487e-06,83.91652038266207,0,90,3.0,6,0.1322993893332386
8.105,1.6192875458531019e-06,83.2863004053816,0,90,3.0,6,0.11930516299755867
8.11,8.201353897972012e-07,82.66990788930764,0,90,3.0,6,0.10659603895479665
8.115,4.0791415086824765e-07,82.07662220661173,0,90,3.0,6,0.09436334446622126
8.12,1.9923866938774793e-07,81.51409596754554,0,90,3.0,6,0.08276486531021739
8.125,9.556527981051257e-08,80.98827622965146,0,90,3.0,6,0.07192322122992703
8.13,4.501406988770349e-08,80.50340856865901,0,90,3.0,6,0.06192594986925797
8.135,0.0,80.06211366048802,0,90,3.0,6,0.05282708578325822
8.14,0.0,79.66552298724739,0,90,3.0,6,0.04464995849994609
8.145,0.0,79.31345855224248,0,90,3.0,6,0.03739089798438103
8.15,0.0,79.00464102634591,0,90,3.0,6,0.031023526316410473
8.155,0.0,78.73691140612398,0,90,3.0,6,0.025503327961319173
8.16,0.0,78.50745282498198,0,90,3.0,6,0.020772223195504785
8.165,0.0,78.31300136218435,0,90,3.0,6,0.016762914684213436
8.17,0.0,78.15003726913261,0,90,3.0,6,0.013402830291394033
8.175,0.0,78.01495072107623,0,90,3.0,6,0.010617540640747058
8.18,0.0,77.90417878471544,0,90,3.0,6,0.008333583190009092
8.185,0.0,77.81431259660769,0,90,3.0,6,0.006480672095003965
8.19,0.0,77.7421756582178,0,90,3.0,6,0.0049933125405732665
8.195,0.0,77.68487561033564,0,90,3.0,6,0.00381186825434305
8.2,0.0,77.63983284131709,0,90,3.0,6,0.0028831513673626243
8.205,0.0,77.60478983910438,0,90,3.0,6,0.0021606152392656588
8.21,0.0,77.57780537394699,0,90,3.0,6,0.0016042345143708625
8.215,0.0,77.557237472093,0,90,3.0,6,0.0011801540637730494
8.22,0.0,77.541718792023,0,90,3.0,6,0.0008601812788248429
8.225,0.0,77.53012752354391,0,90,3.0,6,0.0006211860524517667
8.23,0.0,77.521556367243,0,90,3.0,6,0.0004444611802679114
8.235,0.0,77.51528157589647,0,90,3.0,6,0.00031508403910239985
8.24,0.0,77.51073349457783,0,90,3.0,6,0.00022130916655329464
8.245,0.0,77.50746955224747,0,90,3.0,6,0.0001540113865457991
8.25,0.0,77.50515025137989,0,90,3.0,6,0.0001061907501007836
8.255,0.0,77.50351837976685,0,90,3.0,6,7.254391271845802e-05
8.26,0.0,77.50238142786796,0,90,3.0,6,4.91016055249376e-05
8.265,0.0,77.50159702817518,0,90,3.0,6,3.292841598316223e-05
8.27,0.0,77.50106112892836,0,90,3.0,6,2.1878946976411752e-05
8.275,0.0,77.50069856071771,0,90,3.0,6,1.4403313767187092e-05
8.28,0.0,77.50045563869121,0,90,3.0,6,9.39461218983768e-06
8.285,0.0,77.50029445400165,0,90,3.0,6,6.071216528807875e-06
8.29,0.0,77.5001885362026,0,90,3.0,6,3.8873443835087794e-06
8.295,0.0,77.50011960586598,0,90,3.0,6,2.4661003293982205e-06
8.3,0.0,77.50007517797681,0,90,3.0,6,1.5500613775441604e-06
8.305,0.0,77.5000468176076,0,90,3.0,6,9.653114968443202e-07
8.31,0.0,77.50002888738506,0,90,3.0,6,5.956161867312196e-07
8.315,0.0,77.50001765987696,0,90,3.0,6,3.641211744308617e-07
8.32,0.0,77.50001069664408,0,90,3.0,6,2.2054936252549018e-07
8.325,0.0,77.5000064193026,0,90,3.0,6,1.323567545048568e-07
8.33,0.0,77.50000381688064,0,90,3.0,6,7.869856980524326e-08
8.335,0.0,77.50000224858724,0,90,3.0,6,4.636262343110596e-08
8.34,0.0,77.50000131247589,0,90,3.0,6,2.706135851487076e-08
8.345,0.001684486749771458,77.50000075902022,0,90,3.0,6,1.5649901535052964e-08
8.35,0.004172395771277602,77.5000004349064,0,90,3.0,6,8.967142208610913e-09
8.355,0.009438687428818865,77.50000024689864,0,90,3.0,6,5.090693539105561e-09
8.36,0.019500507867137046,77.50000013887433,0,90,3.0,6,2.863388188641168e-09
8.365,0.03679496976339974,77.50000007739372,0,90,3.0,6,1.5957468382186994e-09
8.37,0.06340728953298436,77.50000004273365,0,90,3.0,6,8.81106102168974e-10
8.375,0.09979255396093453,77.50000002337839,0,90,3.0,6,4.820286758518874e-10
8.38,0.14343835518453557,77.50000001267183,0,90,3.0,6,2.612749146474297e-10
8.385,0.18829581417209276,77.50000000680527,0,90,3.0,6,1.4031475637745372e-10
8.39,0.2257481735193119,77.50000000362103,0,90,3.0,6,7.466031458590674e-11
8.395,0.24718154073554727,77.50000000190896,0,90,3.0,6,3.935996545871753e-11
8.4,0.24718154074102772,77.5000000009971,0,90,3.0,6,2.0558858166848425e-11
8.405,0.22574817354072055,77.50000000051602,0,90,3.0,6,1.0639681575637426e-11
8.41,0.18829581422840957,77.50000000026459,0,90,3.0,6,5.455503174068992e-12
8.415,0.14343835532456656,77.50000000013442,0,90,3.0,6,2.771556180434964e-12
8.42,0.09979255431561854,77.50000000006766,0,90,3.0,6,1.3950078205995204e-12
8.425,0.06340729067170194,77.50000000003374,0,90,3.0,6,6.955993627606094e-13
8.43,0.03679497683410042,77.50000000001667,0,90,3.0,6,3.4369757898828763e-13
8.435,0.019500578284482293,77.50000000000816,0,90,3.0,7,1.681861980727e-13
8.44,0.009439396781978427,77.50000000000396,0,90,3.0,7,8.174904052662596e-14
8.445,0.004178588733610924,77.5000000000019,0,90,3.0,7,3.92629800378777e-14
8.45,0.0017299316936037381,77.50000000000091,0,90,3.0,7,1.8752468077792334e-14
8.455,0.0008997325756988589,77.50000000000043,0,90,3.0,7,8.790219411465157e-15
8.46,0.001634769674224814,77.5000000000002,0,90,3.0,7,4.102102392017073e-15
8.465,0.00614904736476635,77.50000000000009,0,90,3.0,7,1.7580438822930315e-15
8.47,0.02168080359963608,77.50000000000004,0,90,3.0,7,8.790219411465157e-16
8.475,0.06433400338904088,77.50000000000001,0,90,3.0,7,2.9300731371550523e-16
8.48,0.1593410769217493,77.50000000000001,0,90,3.0,7,2.9300731371550523e-16
8.485,0.3291989194808569,77.5,0,90,3.0,7,0.0
8.49,0.5672906802982638,77.5,0,90,3.0,7,0.0
8.495,0.815339152120446,77.5,0,90,3.0,7,0.0
8.5,0.9768711246313155,77.50000284146185,1,90,3.0,7,5.858684226416127e-08
8.505,0.9726380909165361,77.50000566108393,0,90,3.0,7,1.1672338004733394e-07
8.51,0.7921091683291741,77.50001208193964,0,90,3.0,7,2.49112157614514e-07
8.515,0.49139090102639077,77.50002873397177,0,90,3.0,7,5.924530262760039e-07
8.52,0.15739335672107918,77.50007697165655,0,90,3.0,7,1.5870444650369519e-06
8.525,-0.11102342218909485,77.5002248661891,0,90,3.0,7,4.636416270107747e-06
8.53,-0.2314207883647528,77.50068051525129,0,90,3.0,7,1.4031242294631925e-05
8.535,-0.2029124434754801,77.50204432602273,0,90,3.0,7,4.215105201498454e-05
8.54,-0.11151350554305876,77.50593777613041,0,90,3.0,7,0.00012242837382286874
8.545,-0.039430666652076896,77.5164399231014,0,90,3.0,7,0.00033896748662683775
8.55,-0.006087703519843621,77.5430754284251,0,90,3.0,7,0.0008881531634040833
8.555,0.005350271385530551,77.60641853580098,0,90,3.0,7,0.0021941966144532724
8.56,0.010381647827441833,77.74742477142738,0,90,3.0,7,0.005101541678914966
8.565,0.015115203303506243,78.0408498094408,0,90,3.0,7,0.011151542462696914
8.57,0.021170964062928475,78.61092688858213,0,90,3.0,7,0.022905709042930475
8.575,0.029082821134029553,79.6435860439409,0,90,3.0,7,0.04419765039053402
8.58,0.03923107061708144,81.38481376725014,0,90,3.0,7,0.08009925293299251
8.585,0.051969043308817596,84.11198300521768,0,90,3.0,7,0.13632954649933363
8.59,0.06760532616283861,88.06822919931167,0,90,3.0,7,0.21790163297549842
8.595,0.08636519236693461,93.3624433467146,0,90,3.0,7,0.3270606875611258
8.6,0.10834733138818661,99.85796314992469,0,90,3.0,7,0.4609889309262822
8.605,0.1334809643017884,107.09329543873122,0,90,3.0,7,0.6101710399738396
8.61,0.16148868344343945,114.28467844096284,0,90,3.0,7,0.7584469781641822
8.615,0.191860907532018,120.44171590167264,0,90,3.0,7,0.8853962041581988
8.62,0.22384764873847726,124.58441298286456,0,90,3.0,7,0.9708126388219498
8.625,0.25647215537198226,126.0,0,90,3.0,7,1.0
8.63,0.2885689161419028,124.44805851086043,0,90,3.0,7,0.9680012064094935
8.635,0.31884566517832524,120.23336770229193,0,90,3.0,7,0.8811003649957099
8.64,0.3459657668955683,114.1166790767293,0,90,3.0,7,0.7549830737469958
8.645,0.3686441789190902,107.09975419133913,0,90,3.0,7,0.6103042101307037
8.65,0.3857476379544367,100.16845034237797,0,90,3.0,7,0.46739072870882403
8.655,0.3963882865005728,94.08390247082684,0,90,3.0,7,0.34193613341911017
8.66,0.4,89.27867445647695,0,90,3.0,7,0.2428592671438546
8.665,0.39638828650057273,85.864344835223,0,90,3.0,7,0.1724607182520205
8.67,0.38574763795443656,83.71609774519702,0,90,3.0,7,0.1281669638184952
8.675,0.36864417891908974,82.5841699556867,0,90,3.0,7,0.10482824650900421
8.68,0.345965766895568,82.19056841459238,0,90,3.0,7,0.09671275081633768
8.685,0.3188456651783249,82.29034138789683,0,90,3.0,7,0.098769925523646
8.69,0.28856891614190205,82.69662523703138,0,90,3.0,7,0.10714691210373987
8.695,0.2564721553719815,83.28017122082787,0,90,3.0,7,0.11917878805830655
8.7,0.22384764873847685,83.95647708211006,0,90,3.0,7,0.1331232388063929
8.705,0.19186090753201765,84.67048907652408,0,90,3.0,7,0.1478451355984346
8.71,0.16148868344343878,85.38412783726835,0,90,3.0,7,0.16255933685089385
8.715,0.1334809643017881,86.06814495598806,0,90,3.0,7,0.17666278259769197
8.72,0.10834733138818531,86.69778161152293,0,90,3.0,7,0.1896449816808851
8.725,0.08636519236690572,87.25104168924796,0,90,3.0,7,0.20105240596387536
8.73,0.06760532616242629,87.70847176089451,0,90,3.0,7,0.21048395383287652
8.735,0.05196904332202373,88.05365884673252,0,90,3.0,7,0.21760121333469107
8.74,0.03923107185803287,88.27395822955663,0,90,3.0,7,0.2221434686506521
8.745,0.02908287038705761,88.36117218288662,0,90,3.0,7,0.22394169449250761
8.75,0.02117220077308346,88.31202622987558,0,90,3.0,7,0.22292837587372338
8.755,0.0151361834125735,88.12836388999429,0,90,3.0,7,0.2191415235050369
8.76,0.010626454858290009,87.81702923229327,0,90,3.0,7,0.2127222522122323
8.765,0.007326255555493652,87.38944286440807,0,90,3.0,7,0.20390603844140345
