Time,ECG,Pressure,R_Peaks,mean_hr,hrv_scale,Phase_Bin,Normalized_Pressure
0.0,0.001684486749771458,77.5,0,90,3.0,0,0.0
0.005,0.004172395771277602,77.5,0,90,3.0,0,0.0
0.01,0.009438687428818865,77.5,0,90,3.0,0,0.0
0.015,0.019500507867137046,77.5,0,90,3.0,0,0.0
0.02,0.03679496976339974,77.5,0,90,3.0,0,0.0
0.025,0.06340728953298436,77.5,0,90,3.0,0,0.0
0.03,0.09979255396093453,77.5,0,90,3.0,0,0.0
0.035,0.14343835518453557,77.5,0,90,3.0,0,0.0
0.04,0.18829581417209276,77.5,0,90,3.0,0,0.0
0.045,0.2257481735193119,77.5,0,90,3.0,0,0.0
0.05,0.24718154073554727,77.5,0,90,3.0,0,0.0
0.055,0.24718154074102772,77.5,0,90,3.0,0,0.0
0.06,0.22574817354072055,77.5,0,90,3.0,0,0.0
0.065,0.18829581422840957,77.5,0,90,3.0,0,0.0
0.07,0.14343835532456656,77.5,0,90,3.0,0,0.0
0.075,0.09979255431561854,77.5,0,90,3.0,0,0.0
0.08,0.06340729067170194,77.5,0,90,3.0,0,0.0
0.085,0.03679497683410042,77.5,0,90,3.0,0,0.0
0.09,0.019500578284482293,77.5,0,90,3.0,0,0.0
0.095,0.009439396781978427,77.5,0,90,3.0,0,0.0
0.1,0.004178588733610924,77.5,0,90,3.0,0,0.0
0.105,0.0017299316936037381,77.5,0,90,3.0,0,0.0
0.11,0.0008997325756988589,77.5,0,90,3.0,0,0.0
0.115,0.001634769674224814,77.5,0,90,3.0,0,0.0
0.12,0.00614904736476635,77.5,0,90,3.0,0,0.0
0.125,0.02168080359963608,77.5,0,90,3.0,0,0.0
0.13,0.06433400338904088,77.5,0,90,3.0,0,0.0
0.135,0.1593410769217493,77.5,0,90,3.0,0,0.0
0.14,0.3291989194808569,77.5,0,90,3.0,0,0.0
0.145,0.5672906802982638,77.5,0,90,3.0,0,0.0
0.15,0.815339152120446,77.5,0,90,3.0,0,0.0
0.155,0.9768711246313155,77.5,0,90,3.0,0,0.0
0.16,0.9726380909165361,77.5,0,90,3.0,0,0.0
0.165,0.7921091683291741,77.5,0,90,3.0,0,0.0
0.17,0.49139090102639077,77.5,0,90,3.0,0,0.0
0.175,0.15739335672107918,77.5,0,90,3.0,0,0.0
0.18,-0.11102342218909485,77.5,0,90,3.0,0,0.0
0.185,-0.2314207883647528,77.5,0,90,3.0,0,0.0
0.19,-0.2029124434754801,77.5,0,90,3.0,0,0.0
0.195,-0.11151350554305876,77.5,0,90,3.0,0,0.0
0.2,-0.039430666652076896,77.5,0,90,3.0,0,0.0
0.205,-0.006087703519843621,77.5,0,90,3.0,0,0.0
0.21,0.005350271385530551,77.5,0,90,3.0,0,0.0
0.215,0.010381647827441833,77.5,0,90,3.0,0,0.0
0.22,0.015115203303506243,77.5,0,90,3.0,0,0.0
0.225,0.021170964062928475,77.5,0,90,3.0,0,0.0
0.23,0.029082821134029553,77.5,0,90,3.0,0,0.0
0.235,0.03923107061708144,77.5,0,90,3.0,0,0.0
0.24,0.051969043308817596,77.5,0,90,3.0,0,0.0
0.245,0.06760532616283861,77.5,0,90,3.0,0,0.0
0.25,0.08636519236693461,77.5,0,90,3.0,0,0.0
0.255,0.10834733138818661,77.5,0,90,3.0,0,0.0
0.26,0.1334809643017884,77.5,0,90,3.0,0,0.0
0.265,0.16148868344343945,77.5,0,90,3.0,0,0.0
0.27,0.191860907532018,77.5,0,90,3.0,0,0.0
0.275,0.22384764873847726,77.5,0,90,3.0,0,0.0
0.28,0.25647215537198226,77.5,0,90,3.0,0,0.0
0.285,0.2885689161419028,77.5,0,90,3.0,0,0.0
0.29,0.31884566517832524,77.5,0,90,3.0,0,0.0
0.295,0.3459657668955683,77.5,0,90,3.0,0,0.0
0.3,0.3686441789190902,77.5,0,90,3.0,0,0.0
0.305,0.3857476379544367,77.5,0,90,3.0,0,0.0
0.31,0.3963882865005728,77.5,0,90,3.0,0,0.0
0.315,0.4,77.5,0,90,3.0,0,0.0
0.32,0.39638828650057273,77.5,0,90,3.0,0,0.0
0.325,0.38574763795443656,77.5,0,90,3.0,0,0.0
0.33,0.36864417891908974,77.5,0,90,3.0,0,0.0
0.335,0.345965766895568,77.5,0,90,3.0,0,0.0
0.34,0.3188456651783249,77.5,0,90,3.0,0,0.0
0.345,0.28856891614190205,77.5,0,90,3.0,0,0.0
0.35,0.2564721553719815,77.5,0,90,3.0,0,0.0
0.355,0.22384764873847685,77.5,0,90,3.0,0,0.0
0.36,0.19186090753201765,77.5,0,90,3.0,0,0.0
0.365,0.16148868344343878,77.5,0,90,3.0,0,0.0
0.37,0.1334809643017881,77.5,0,90,3.0,0,0.0
0.375,0.10834733138818531,77.5,0,90,3.0,0,0.0
0.38,0.08636519236690572,77.5,0,90,3.0,0,0.0
0.385,0.06760532616242629,77.5,0,90,3.0,0,0.0
0.39,0.05196904332202373,77.5,0,90,3.0,0,0.0
0.395,0.03923107185803287,77.5,0,90,3.0,0,0.0
0.4,0.02908287038705761,77.5,0,90,3.0,0,0.0
0.405,0.02117220077308346,77.5,0,90,3.0,0,0.0
0.41,0.0151361834125735,77.5,0,90,3.0,0,0.0
0.415,0.010626454858290009,77.5,0,90,3.0,0,0.0
0.42,0.007326255555493652,77.5,0,90,3.0,0,0.0
0.425,0.004960179211183015,77.5,0,90,3.0,0,0.0
0.43,0.0032978759379303545,77.5,0,90,3.0,0,0.0
0.435,0.002153242296767213,77.5,0,90,3.0,0,0.0
0.44,0.001380616732225004,77.5,0,90,3.0,0,0.0
0.445,0.0008693106590991584,77.5,0,90,3.0,0,0.0
0.45,0.000537524815942247,77.5,0,90,3.0,0,0.0
0.455,0.0003263951340288585,77.5,0,90,3.0,0,0.0
0.46,0.00019463030985187395,77.5,0,90,3.0,0,0.0
0.465,0.00011397219555062695,77.5,0,90,3.0,0,0.0
0.47,6.55403863487943e-05,77.5,0,90,3.0,0,0.0
0.475,3.701184389455385e-05,77.5,0,90,3.0,0,0.0
0.48,2.0525516217290957e-05,77.5,0,90,3.0,0,0.0
0.485,1.1178128483661116e-05,77.5,0,90,3.0,0,0.0
0.49,5.978135409912517e-06,77.5,0,90,3.0,0,0.0
0.495,3.1396702713238487e-06,77.5,0,90,3.0,0,0.0
0.5,1.6192875458531019e-06,77.5,0,90,3.0,0,0.0
0.505,8.201353897972012e-07,77.5,0,90,3.0,0,0.0
0.51,4.0791415086824765e-07,77.5,0,90,3.0,0,0.0
0.515,1.9923866938774793e-07,77.5,0,90,3.0,0,0.0
0.52,9.556527981051257e-08,77.5,0,90,3.0,0,0.0
0.525,4.501406988770349e-08,77.5,0,90,3.0,0,0.0
0.53,0.0,77.5,0,90,3.0,0,0.0
0.535,0.0,77.5,0,90,3.0,0,0.0
0.54,0.0,77.5,0,90,3.0,0,0.0
0.545,0.0,77.5,0,90,3.0,0,0.0
0.55,0.0,77.5,0,90,3.0,0,0.0
0.555,0.0,77.5,0,90,3.0,0,0.0
0.56,0.0,77.5,0,90,3.0,0,0.0
0.565,0.0,77.5,0,90,3.0,0,0.0
0.57,0.0,77.5,0,90,3.0,0,0.0
0.575,0.0,77.5,0,90,3.0,0,0.0
0.58,0.0,77.5,0,90,3.0,0,0.0
0.585,0.0,77.5,0,90,3.0,0,0.0
0.59,0.0,77.5,0,90,3.0,0,0.0
0.595,0.0,77.5,0,90,3.0,0,0.0
0.6,0.0,77.5,0,90,3.0,0,0.0
0.605,0.0,77.5,0,90,3.0,0,0.0
0.61,0.0,77.5,0,90,3.0,0,0.0
0.615,0.0,77.5,0,90,3.0,0,0.0
0.62,0.0,77.5,0,90,3.0,0,0.0
0.625,0.0,77.5,0,90,3.0,0,0.0
0.63,0.0,77.5,0,90,3.0,0,0.0
0.635,0.0,77.5,0,90,3.0,0,0.0
0.64,0.0,77.5,0,90,3.0,0,0.0
0.645,0.0,77.5,0,90,3.0,0,0.0
0.65,0.0,77.5,0,90,3.0,0,0.0
0.655,0.0,77.5,0,90,3.0,0,0.0
0.66,0.0,77.5,0,90,3.0,0,0.0
0.665,0.0,77.5,0,90,3.0,0,0.0
0.67,0.0,77.5,0,90,3.0,0,0.0
0.675,0.0,77.5,0,90,3.0,0,0.0
0.68,0.001684486749771458,77.5,0,90,3.0,0,0.0
0.685,0.004172395771277602,77.5,0,90,3.0,0,0.0
0.69,0.009438687428818865,77.5,0,90,3.0,0,0.0
0.695,0.019500507867137046,77.5,0,90,3.0,0,0.0
0.7,0.03679496976339974,77.5,0,90,3.0,0,0.0
0.705,0.06340728953298436,77.5,0,90,3.0,0,0.0
0.71,0.09979255396093453,77.5,0,90,3.0,0,0.0
0.715,0.14343835518453557,77.5,0,90,3.0,0,0.0
0.72,0.18829581417209276,77.5,0,90,3.0,0,0.0
0.725,0.2257481735193119,77.5,0,90,3.0,0,0.0
0.73,0.24718154073554727,77.5,0,90,3.0,0,0.0
0.735,0.24718154074102772,77.5,0,90,3.0,0,0.0
0.74,0.22574817354072055,77.5,0,90,3.0,0,0.0
0.745,0.18829581422840957,77.5,0,90,3.0,0,0.0
0.75,0.14343835532456656,77.5,0,90,3.0,0,0.0
0.755,0.09979255431561854,77.5,0,90,3.0,0,0.0
0.76,0.06340729067170194,77.5,0,90,3.0,0,0.0
0.765,0.03679497683410042,77.5,0,90,3.0,0,0.0
0.77,0.019500578284482293,77.5,0,90,3.0,0,0.0
0.775,0.009439396781978427,77.5,0,90,3.0,0,0.0
0.78,0.004178588733610924,77.5,0,90,3.0,0,0.0
0.785,0.0017299316936037381,77.5,0,90,3.0,0,0.0
0.79,0.0008997325756988589,77.5,0,90,3.0,0,0.0
0.795,0.001634769674224814,77.5,0,90,3.0,0,0.0
0.8,0.00614904736476635,77.5,0,90,3.0,0,0.0
0.805,0.02168080359963608,77.5,0,90,3.0,0,0.0
0.81,0.06433400338904088,77.5,0,90,3.0,0,0.0
0.815,0.1593410769217493,77.5,0,90,3.0,0,0.0
0.82,0.3291989194808569,77.5,0,90,3.0,0,0.0
0.825,0.5672906802982638,77.5,0,90,3.0,0,0.0
0.83,0.815339152120446,77.5,0,90,3.0,0,0.0
0.835,0.9768711246313155,77.5000028548974,1,90,3.0,0,5.88638639778624e-08
0.84,0.9726380909165361,77.50000578823352,0,90,3.0,0,1.1934502108675757e-07
0.845,0.7921091683291741,77.50001262810264,0,90,3.0,0,2.6037325027310855e-07
0.85,0.49139090102639077,77.50003090820933,0,90,3.0,0,6.372826665005257e-07
0.855,0.15739335672107918,77.50008560358823,0,90,3.0,0,1.7650224377768008e-06
0.86,-0.11102342218909485,77.50025836716078,0,90,3.0,0,5.327157954274505e-06
0.865,-0.2314207883647528,77.5008041613645,0,90,3.0,0,1.6580646690703568e-05
0.87,-0.2029124434754801,77.50247126404172,0,90,3.0,0,5.0953897767348064e-05
0.875,-0.11151350554305876,77.50730689455214,0,90,3.0,0,0.0001506576196318386
0.88,-0.039430666652076896,77.5205069404445,0,90,3.0,0,0.00042282351431970137
0.885,-0.006087703519843621,77.55425950392804,0,90,3.0,0,0.001118752658310044
0.89,0.005350271385530551,77.63489185005264,0,90,3.0,0,0.002781275258817309
0.895,0.010381647827441833,77.81454523632031,0,90,3.0,0,0.0064854687901095545
0.9,0.015115203303506243,78.18735131558363,0,90,3.0,0,0.014172192073889204
0.905,0.021170964062928475,78.90690312906386,0,90,3.0,0,0.0290083119394611
0.91,0.029082821134029553,80.19665089621222,0,90,3.0,0,0.05560104940643751
0.915,0.03923107061708144,82.3394503302051,0,90,3.0,0,0.09978248103515663
0.92,0.051969043308817596,85.63096269117817,0,90,3.0,0,0.1676487152820241
0.925,0.06760532616283861,90.289192542138,0,90,3.0,0,0.26369469159047415
0.93,0.08636519236693461,96.33177188866492,0,90,3.0,0,0.3882839564673179
0.935,0.10834733138818661,103.45891681158211,0,90,3.0,0,0.5352353981769508
0.94,0.1334809643017884,110.9995176060252,0,90,3.0,0,0.6907117032170143
0.945,0.16148868344343945,117.97323238137338,0,90,3.0,0,0.834499636729348
0.95,0.191860907532018,123.28391354021267,0,90,3.0,0,0.9439982173239725
0.955,0.22384764873847726,126.0,0,90,3.0,0,1.0
0.96,0.25647215537198226,125.62557935056012,0,90,3.0,0,0.9922799866094869
0.965,0.2885689161419028,122.25455536305012,0,90,3.0,0,0.9227743373824766
0.97,0.31884566517832524,116.54276293749618,0,90,3.0,0,0.8050054213916737
0.975,0.3459657668955683,109.50994041521005,0,90,3.0,0,0.65999877144763
0.98,0.3686441789190902,102.2541023356066,0,90,3.0,0,0.5103938625898269
0.985,0.3857476379544367,95.68811801633842,0,90,3.0,0,0.3750127426049159
0.99,0.3963882865005728,90.38254464538694,0,90,3.0,0,0.26561947722447304
0.995,0.4,86.54087148351628,0,90,3.0,0,0.1864097213096141
1.0,0.39638828650057273,84.07769605408464,0,90,3.0,0,0.13562259905329155
1.005,0.38574763795443656,82.74233353126162,0,90,3.0,0,0.10808935116003343
1.01,0.36864417891908974,82.23438029234443,0,90,3.0,0,0.09761608850194692
1.015,0.345965766895568,82.28110027391507,0,90,3.0,0,0.09857938709103242
1.02,0.3188456651783249,82.67183539468127,0,90,3.0,0,0.10663578133363437
1.025,0.28856891614190205,83.26062007974744,0,90,3.0,0,0.1187756717473699
1.03,0.2564721553719815,83.95261614042626,0,90,3.0,0,0.13304363176136613
1.035,0.22384764873847685,84.68676847196683,0,90,3.0,0,0.14818079323642946
1.04,0.19186090753201765,85.4214071227837,0,90,3.0,0,0.16332798191306608
1.045,0.16148868344343878,86.12483294458869,0,90,3.0,0,0.17783160710492144
1.05,0.1334809643017881,86.77033771939087,0,90,3.0,0,0.1911409839049663
1.055,0.10834733138818531,87.33426160838053,0,90,3.0,0,0.20276828058516555
1.06,0.08636519236690572,87.79577796985475,0,90,3.0,0,0.21228408185267533
1.065,0.06760532616242629,88.13748090634361,0,90,3.0,0,0.21932950322357964
1.07,0.05196904332202373,88.3462121999223,0,90,3.0,0,0.22363324123551145
1.075,0.03923107185803287,88.41381036420395,0,90,3.0,0,0.22502701781863824
1.08,0.02908287038705761,88.33761061002141,0,90,3.0,0,0.22345588886642093
1.085,0.02117220077308346,88.12061034529336,0,90,3.0,0,0.21898165660398675
1.09,0.0151361834125735,87.77127109249729,0,90,3.0,0,0.21177878541231518
1.095,0.010626454858290009,87.30297037121758,0,90,3.0,0,0.20212310043747594
1.1,0.007326255555493652,86.73315167105918,0,90,3.0,0,0.19037426125895207
1.105,0.004960179211183015,86.082247419666,0,90,3.0,0,0.17695355504465987
1.11,0.0032978759379303545,85.37246744218815,0,90,3.0,0,0.16231891633377635
1.115,0.002153242296767213,84.62655263484623,0,90,3.0,0,0.14693922958445843
1.12,0.001380616732225004,83.86659028643527,0,90,3.0,0,0.13126990281309833
1.125,0.0008693106590991584,83.11297475506075,0,90,3.0,0,0.11573143824867521
1.13,0.000537524815942247,82.38357719417918,0,90,3.0,0,0.10069231328204499
1.135,0.0003263951340288585,81.69316359266416,0,90,3.0,0,0.0864569812920446
1.14,0.00019463030985187395,81.0530746913213,0,90,3.0,0,0.07325927198600617
1.145,0.00011397219555062695,80.47115732979627,0,90,3.0,0,0.06126097587208804
1.15,6.55403863487943e-05,79.95191687655013,0,90,3.0,0,0.05055498714536349
1.155,3.701184389455385e-05,79.4968462077652,0,90,3.0,0,0.0411720867580454
1.16,2.0525516217290957e-05,79.10487892570814,0,90,3.0,0,0.03309028712800279
1.165,1.1178128483661116e-05,78.7729129708691,0,90,3.0,0,0.02624562826534228
1.17,5.978135409912517e-06,78.49635460193645,0,90,3.0,0,0.020543393854359708
1.175,3.1396702713238487e-06,78.26964053277798,0,90,3.0,0,0.01586887696449452
1.18,1.6192875458531019e-06,78.08670624839122,0,90,3.0,0,0.012097036049303579
1.185,8.201353897972012e-07,77.94137962031026,0,90,3.0,0,0.009100610728046552
1.19,4.0791415086824765e-07,77.82768957220783,0,90,3.0,0,0.006756486024903727
1.195,1.9923866938774793e-07,77.74008871515312,0,90,3.0,0,0.004950282786662284
1.2,9.556527981051257e-08,77.67359597640825,0,90,3.0,0,0.0035792984826443475
1.205,4.501406988770349e-08,77.62387005880147,0,90,3.0,1,0.002554021830958191
1.21,0.0,77.58722717633347,0,90,3.0,1,0.0017984984811024924
1.215,0.0,77.56061722705192,0,90,3.0,1,0.0012498397330292983
1.22,0.0,77.54157182578224,0,90,3.0,1,0.0008571510470565349
1.225,0.0,77.5281359065581,0,90,3.0,1,0.0005801217847032107
1.23,0.0,77.5187923680159,0,90,3.0,1,0.0003874715054823622
1.235,0.0,77.51238685021202,0,90,3.0,1,0.00025539897344380554
1.24,0.0,77.50805747644297,0,90,3.0,1,0.00016613353490662431
1.245,0.0,77.50517244622698,0,90,3.0,1,0.00010664837581399748
1.25,0.0,77.50327681336077,0,90,3.0,1,6.756316207773912e-05
1.255,0.0,77.50204864264317,0,90,3.0,1,4.2240054498443365e-05
1.26,0.0,77.50126397793481,0,90,3.0,1,2.606140071777387e-05
1.265,0.0,77.50076961151682,0,90,3.0,1,1.5868278697234457e-05
1.27,0.0,77.50046244746694,0,90,3.0,1,9.534999318435607e-06
1.275,0.0,77.5002742281496,0,90,3.0,1,5.654188651688039e-06
1.28,0.0,77.50016047982528,0,90,3.0,1,3.308862376964489e-06
1.285,0.0,77.50009268034331,0,90,3.0,1,1.910934913702167e-06
1.29,0.0,77.50005282184985,0,90,3.0,1,1.089110306160477e-06
1.295,0.0,77.50002970970641,0,90,3.0,1,6.125712661976406e-07
1.3,0.001684486749771458,77.50001649080649,0,90,3.0,1,3.400166286075884e-07
1.305,0.004172395771277602,77.50000903325379,0,90,3.0,1,1.8625265545207306e-07
1.31,0.009438687428818865,77.50000488320897,0,90,3.0,1,1.0068472109656027e-07
1.315,0.019500507867137046,77.50000260510474,0,90,3.0,1,5.371349979232599e-08
1.32,0.03679496976339974,77.50000137152539,0,90,3.0,1,2.827887393210666e-08
1.325,0.06340728953298436,77.50000071259257,0,90,3.0,1,1.4692630232734841e-08
1.33,0.09979255396093453,77.5000003653739,0,90,3.0,1,7.53348232822261e-09
1.335,0.14343835518453557,77.5000001848811,0,90,3.0,1,3.811981493348979e-09
1.34,0.18829581417209276,77.50000009232224,0,90,3.0,1,1.903551314284151e-09
1.345,0.2257481735193119,77.50000004549659,0,90,3.0,1,9.380740491381112e-10
1.35,0.24718154073554727,77.50000002212637,0,90,3.0,1,4.5621385249161023e-10
1.355,0.24718154074102772,77.5000000106194,0,90,3.0,1,2.1895674734944046e-10
1.36,0.22574817354072055,77.50000000502978,0,90,3.0,1,1.0370671560915221e-10
1.365,0.18829581422840957,77.50000000235103,0,90,3.0,1,4.847483697377947e-11
1.37,0.14343835532456656,77.50000000108449,0,90,3.0,1,2.2360560138885067e-11
1.375,0.09979255431561854,77.50000000049369,0,90,3.0,1,1.0179074078476652e-11
1.38,0.06340729067170194,77.50000000022179,0,90,3.0,1,4.57296514515789e-12
1.385,0.03679497683410042,77.50000000009832,0,90,3.0,1,2.0273176035975807e-12
1.39,0.019500578284482293,77.50000000004302,0,90,3.0,1,8.869331386168343e-13
1.395,0.009439396781978427,77.50000000001857,0,90,3.0,1,3.8296055902616534e-13
1.4,0.004178588733610924,77.50000000000792,0,90,3.0,1,1.6320507373953641e-13
1.405,0.0017299316936037381,77.50000000000333,0,90,3.0,1,6.856371140942822e-14
1.41,0.0008997325756988589,77.50000000000138,0,90,3.0,1,2.842170943040401e-14
1.415,0.001634769674224814,77.50000000000057,0,90,3.0,1,1.1720292548620209e-14
1.42,0.00614904736476635,77.50000000000023,0,90,3.0,1,4.688117019448084e-15
1.425,0.02168080359963608,77.50000000000009,0,90,3.0,1,1.7580438822930315e-15
1.43,0.06433400338904088,77.50000000000003,0,90,3.0,1,5.860146274310105e-16
1.435,0.1593410769217493,77.50000000000001,0,90,3.0,1,2.9300731371550523e-16
1.44,0.3291989194808569,77.5,0,90,3.0,1,0.0
1.445,0.5672906802982638,77.5,0,90,3.0,1,0.0
1.45,0.815339152120446,77.5,0,90,3.0,1,0.0
1.455,0.9768711246313155,77.50000284455477,1,90,3.0,1,5.865061384095488e-08
1.46,0.9726380909165361,77.50000580215873,0,90,3.0,1,1.1963213866046006e-07
1.465,0.7921091683291741,77.50001275539046,0,90,3.0,1,2.6299774139467264e-07
1.47,0.49139090102639077,77.50003153289097,0,90,3.0,1,6.501627004562926e-07
1.475,0.15739335672107918,77.50008834514392,0,90,3.0,1,1.8215493592205602e-06
1.48,-0.11102342218909485,77.50026962696381,0,90,3.0,1,5.559318841517676e-06
1.485,-0.2314207883647528,77.50084721852477,0,90,3.0,1,1.746842319109944e-05
1.49,-0.2029124434754801,77.50262352697138,0,90,3.0,1,5.4093339616011907e-05
1.495,-0.11151350554305876,77.5078033638614,0,90,3.0,1,0.00016089410023502665
1.5,-0.039430666652076896,77.52199868923158,0,90,3.0,1,0.00045358122126969516
1.505,-0.006087703519843621,77.55839158559259,0,90,3.0,1,0.0012039502184038775
1.51,0.005350271385530551,77.64544907945715,0,90,3.0,1,0.0029989500919000256
1.515,0.010381647827441833,77.83943363242335,0,90,3.0,1,0.006998631596357746
1.52,0.015115203303506243,78.24149114478274,0,90,3.0,1,0.015288477212015301
1.525,0.021170964062928475,79.01552596208309,0,90,3.0,1,0.03124795798109462
1.53,0.029082821134029553,80.39745622062914,0,90,3.0,1,0.059741365373796665
1.535,0.03923107061708144,82.68089569707755,0,90,3.0,1,0.10682259169232053
1.54,0.051969043308817596,86.16349000922408,0,90,3.0,1,0.1786286599840016
1.545,0.06760532616283861,91.04761566539297,0,90,3.0,1,0.27933228176067976
1.55,0.08636519236693461,97.31105705610833,0,90,3.0,1,0.40847540321872833
1.555,0.10834733138818661,104.59124514857123,0,90,3.0,1,0.558582374197345
1.56,0.1334809643017884,112.14479230420652,0,90,3.0,1,0.714325614519722
1.565,0.16148868344343945,118.93414437414808,0,90,3.0,1,0.8543122551370738
1.57,0.191860907532018,123.84829352749307,0,90,3.0,1,0.9556349180926406
1.575,0.22384764873847726,126.0,0,90,3.0,1,1.0
1.58,0.25647215537198226,124.99217715523251,0,90,3.0,1,0.9792201475305672
1.585,0.2885689161419028,121.04437142658236,0,90,3.0,1,0.8978220912697393
1.59,0.31884566517832524,114.92472257434005,0,90,3.0,1,0.7716437644193825
1.595,0.3459657668955683,107.71690768839707,0,90,3.0,1,0.6230290245030324
1.6,0.3686441789190902,100.51955294559312,0,90,3.0,1,0.4746299576410952
1.605,0.3857476379544367,94.19220054499121,0,90,3.0,1,0.3441690834018806
1.61,0.3963882865005728,89.22431615738736,0,90,3.0,1,0.2417384774719044
1.615,0.4,85.7397757016038,0,90,3.0,1,0.16989228250729493
1.62,0.39638828650057273,83.59551274299349,0,90,3.0,1,0.1256806751132679
1.625,0.38574763795443656,82.51202148824075,0,90,3.0,1,0.10334064924207728
1.63,0.36864417891908974,82.18453997599953,0,90,3.0,1,0.09658845311339231
1.635,0.345965766895568,82.35069195328542,0,90,3.0,1,0.10001426707804989
1.64,0.3188456651783249,82.81534105407329,0,90,3.0,1,0.10959466090872755
1.645,0.28856891614190205,83.44684964319964,0,90,3.0,1,0.12261545656081735
1.65,0.2564721553719815,84.16077579935893,0,90,3.0,1,0.1373355834919367
1.655,0.22384764873847685,84.90235137585982,0,90,3.0,1,0.15262580156412006
1.66,0.19186090753201765,85.6331163605077,0,90,3.0,1,0.1676931208352103
1.665,0.16148868344343878,86.32276772136484,0,90,3.0,1,0.1819127365229864
1.67,0.1334809643017881,86.94520055538263,0,90,3.0,1,0.1947464032037655
1.675,0.10834733138818531,87.47723188509201,0,90,3.0,1,0.2057161213421033
1.68,0.08636519236690572,87.89875236903507,0,90,3.0,1,0.2144072653409292
1.685,0.06760532616242629,88.19347427941852,0,90,3.0,1,0.2204840057612067
1.69,0.05196904332202373,88.34978775287364,0,90,3.0,1,0.22370696397677606
1.695,0.03923107185803287,88.36145639506222,0,90,3.0,1,0.22394755453736537
1.7,0.02908287038705761,88.22801050891252,0,90,3.0,1,0.22119609296726842
1.705,0.02117220077308346,87.95477284458106,0,90,3.0,1,0.21556232669239295
1.71,0.0151361834125735,87.55250483419901,0,90,3.0,1,0.20726814091131984
1.715,0.010626454858290009,87.03670299958162,0,90,3.0,1,0.1966330515377654
1.72,0.007326255555493652,86.42660878786413,0,90,3.0,1,0.18405378944049744
1.725,0.004960179211183015,85.74401975485523,0,90,3.0,1,0.16997978875990166
1.73,0.0032978759379303545,85.01200421327506,0,90,3.0,1,0.15488668480979512
1.735,0.002153242296767213,84.25362432761578,0,90,3.0,1,0.13924998613640788
1.74,0.001380616732225004,83.4907645732292,0,90,3.0,1,0.1235209190356536
1.745,0.0008693106590991584,82.74314518763843,0,90,3.0,1,0.10810608634306047
1.75,0.000537524815942247,82.02757644937837,0,90,3.0,1,0.09335209173976027
1.755,0.0003263951340288585,81.35748261877617,0,90,3.0,1,0.07953572409847783
1.76,0.00019463030985187395,80.74269753063376,0,90,3.0,1,0.0668597428996652
1.765,0.00011397219555062695,80.18951010980362,0,90,3.0,1,0.05545381669698187
1.77,6.55403863487943e-05,79.70091970511072,0,90,3.0,1,0.045379787734241665
1.775,3.701184389455385e-05,79.27704937041982,0,90,3.0,1,0.036640193204532316
1.78,2.0525516217290957e-05,78.91566034163318,0,90,3.0,1,0.029188873023364634
1.785,1.1178128483661116e-05,78.61271236828955,0,90,3.0,1,0.022942523057516498
1.79,5.978135409912517e-06,78.36292100843355,0,90,3.0,1,0.017792185740897845
1.795,3.1396702713238487e-06,78.16027286034101,0,90,3.0,1,0.013613873409092989
1.8,1.6192875458531019e-06,77.99847126514554,0,90,3.0,1,0.01027775804423793
1.805,8.201353897972012e-07,77.87129669790625,0,90,3.0,1,0.0076556020186854794
1.81,4.0791415086824765e-07,77.7728766174986,0,90,3.0,1,0.005626322010280338
1.815,1.9923866938774793e-07,77.69786812413626,0,90,3.0,1,0.004079755136830178
1.82,9.556527981051257e-08,77.64156295752402,0,90,3.0,1,0.0029188238664745575
1.825,4.501406988770349e-08,77.59992811506405,0,90,3.0,1,0.0020603735064751677
1.83,0.0,77.56959692327771,0,90,3.0,1,0.0014349881088188555
1.835,0.0,77.54782518554492,0,90,3.0,1,0.0009860862998953192
1.84,0.0,77.53242556585776,0,90,3.0,1,0.0006685683682013222
1.845,0.0,77.52169115816386,0,90,3.0,1,0.000447240374512603
1.85,0.0,77.51431667597406,0,90,3.0,1,0.0002951891953414032
1.855,0.0,77.50932321990186,0,90,3.0,1,0.00019223133818265347
1.86,0.0,77.5059903739918,0,90,3.0,1,0.000123512865810454
1.865,0.0,77.503797573812,0,90,3.0,1,7.830049096894785e-05
1.87,0.0,77.50237532362256,0,90,3.0,1,4.897574479502613e-05
1.875,0.0,77.50146589758421,0,90,3.0,1,3.02246924579589e-05
1.88,0.0,77.5008925832809,0,90,3.0,1,1.840377898765462e-05
1.885,0.0,77.50053623868786,0,90,3.0,1,1.1056467790873172e-05
1.89,0.0,77.50031785702697,0,90,3.0,1,6.553753133424103e-06
1.895,0.0,77.50018589588124,0,90,3.0,1,3.832904767934976e-06
1.9,0.0,77.50010726844758,0,90,3.0,1,2.211720568632784e-06
1.905,0.0,77.50006107148786,0,90,3.0,1,1.2592059353252255e-06
1.91,0.0,77.5000343059368,0,90,3.0,1,7.073389029596677e-07
1.915,0.001684486749771458,77.50001901359956,0,90,3.0,1,3.920329805206381e-07
1.92,0.004172395771277602,77.50001039737434,0,90,3.0,1,2.143788523562293e-07
1.925,0.009438687428818865,77.50000560979892,0,90,3.0,1,1.1566595708714398e-07
1.93,0.019500507867137046,77.50000298631205,0,90,3.0,1,6.157344442332952e-08
1.935,0.03679496976339974,77.50000156851023,0,90,3.0,1,3.2340417079729975e-08
1.94,0.06340728953298436,77.50000081283763,0,90,3.0,1,1.6759538691554346e-08
1.945,0.09979255396093453,77.5000004156086,0,90,3.0,1,8.569249410863177e-09
1.95,0.14343835518453557,77.50000020966674,0,90,3.0,1,4.323025511448859e-09
1.955,0.18829581417209276,77.50000010436113,0,90,3.0,1,2.151775976186006e-09
1.96,0.2257481735193119,77.50000005125219,0,90,3.0,1,1.0567461132952828e-09
1.965,0.24718154073554727,77.5000000248342,0,90,3.0,1,5.120452240908449e-10
1.97,0.24718154074102772,77.50000001187277,0,90,3.0,1,2.447994064045206e-10
1.975,0.22574817354072055,77.5000000056004,0,90,3.0,1,1.1547213128408461e-10
1.98,0.18829581422840957,77.50000000260646,0,90,3.0,1,5.374135043050196e-11
1.985,0.14343835532456656,77.50000000119687,0,90,3.0,1,2.467766197574728e-11
1.99,0.09979255431561854,77.50000000054226,0,90,3.0,1,1.1180573076756249e-11
1.995,0.06340729067170194,77.5000000002424,0,90,3.0,1,4.997825750045373e-12
2.0,0.03679497683410042,77.50000000010691,0,90,3.0,1,2.204294021081746e-12
2.005,0.019500578284482293,77.50000000004653,0,90,3.0,1,9.593059451045642e-13
2.01,0.009439396781978427,77.50000000001998,0,90,3.0,1,4.1196828308400036e-13
2.015,0.004178588733610924,77.50000000000846,0,90,3.0,1,1.7433935166072562e-13
2.02,0.0017299316936037381,77.50000000000354,0,90,3.0,1,7.295882111516081e-14
2.025,0.0008997325756988589,77.50000000000146,0,90,3.0,1,3.017975331269704e-14
2.03,0.001634769674224814,77.5000000000006,0,90,3.0,1,1.230630717605122e-14
2.035,0.00614904736476635,77.50000000000024,0,90,3.0,1,4.9811243331635886e-15
2.04,0.02168080359963608,77.5000000000001,0,90,3.0,1,2.0510511960085364e-15
2.045,0.06433400338904088,77.50000000000004,0,90,3.0,1,8.790219411465157e-16
2.05,0.1593410769217493,77.50000000000001,0,90,3.0,1,2.9300731371550523e-16
2.055,0.3291989194808569,77.5,0,90,3.0,1,0.0
2.06,0.5672906802982638,77.5,0,90,3.0,1,0.0
2.065,0.815339152120446,77.5,0,90,3.0,1,0.0
2.07,0.9768711246313155,77.50000284291268,1,90,3.0,1,5.861675625984043e-08
2.075,0.9726380909165361,77.50000522692886,0,90,3.0,1,1.0777172913539917e-07
2.08,0.7921091683291741,77.50001010593378,0,90,3.0,1,2.0836976870631373e-07
2.085,0.49139090102639077,77.50002115808796,0,90,3.0,1,4.362492363045546e-07
2.09,0.15739335672107918,77.50004873144633,0,90,3.0,1,1.0047720892187725e-06
2.095,-0.11102342218909485,77.50012204127654,0,90,3.0,1,2.5163149802182555e-06
2.1,-0.2314207883647528,77.50032158556677,0,90,3.0,1,6.630630242602117e-06
2.105,-0.2029124434754801,77.50086047282088,0,90,3.0,1,1.7741707646911384e-05
2.11,-0.11151350554305876,77.50227619849099,0,90,3.0,1,4.6931927649260726e-05
2.115,-0.039430666652076896,77.50585406698202,0,90,3.0,1,0.00012070241200050761
2.12,-0.006087703519843621,77.51449898858581,0,90,3.0,1,0.0002989482182642016
2.125,0.005350271385530551,77.53440094392403,0,90,3.0,1,0.0007092978128665301
2.13,0.010381647827441833,77.57796670837776,0,90,3.0,1,0.0016075609974795506
2.135,0.015115203303506243,77.6685259197955,0,90,3.0,1,0.0034747612328968895
2.14,0.021170964062928475,77.84710211151138,0,90,3.0,1,0.00715674456724486
2.145,0.029082821134029553,78.18086360927958,0,90,3.0,1,0.014038424933599664
2.15,0.03923107061708144,78.7715875433569,0,90,3.0,1,0.02621829986302889
2.155,0.051969043308817596,79.76067812311462,0,90,3.0,1,0.04661192006421888
2.16,0.06760532616283861,81.32552390807211,0,90,3.0,1,0.07887678160973431
2.165,0.08636519236693461,83.66132971593116,0,90,3.0,1,0.1270377261016734
2.17,0.10834733138818661,86.94435559703112,0,90,3.0,1,0.19472898138208494
2.175,0.1334809643017884,91.27765000366787,0,90,3.0,1,0.284075257807585
2.18,0.16148868344343945,96.628418341855,0,90,3.0,1,0.3944003781825772
2.185,0.191860907532018,102.77464193552817,0,90,3.0,1,0.5211266378459416
2.19,0.22384764873847726,109.2832947276284,0,90,3.0,1,0.6553256644871835
2.195,0.25647215537198226,115.5393329500605,0,90,3.0,1,0.7843161433002165
2.2,0.2885689161419028,120.83191669137463,0,90,3.0,1,0.8934415812654563
2.205,0.31884566517832524,124.48492700457163,0,90,3.0,1,0.9687613815375594
2.21,0.3459657668955683,126.0,0,90,3.0,1,1.0
2.215,0.3686441789190902,125.17073715235551,0,90,3.0,1,0.9829017969557838
2.22,0.3857476379544367,122.13222029908319,0,90,3.0,1,0.9202519649295502
2.225,0.3963882865005728,117.32968092689705,0,90,3.0,1,0.821230534575197
2.23,0.4,111.41655459304312,0,90,3.0,1,0.6993104039802704
2.235,0.39638828650057273,105.11429578624514,0,90,3.0,1,0.5693669234277348
2.24,0.38574763795443656,99.07544972812437,0,90,3.0,1,0.4448546335695746
2.245,0.36864417891908974,93.78509210187892,0,90,3.0,1,0.3357750948841014
2.25,0.345965766895568,89.51831812564839,0,90,3.0,1,0.24780037372470912
2.255,0.3188456651783249,86.35143581333647,0,90,3.0,1,0.18250383120281372
2.26,0.28856891614190205,84.20981931374517,0,90,3.0,1,0.13834678997412725
2.265,0.2564721553719815,82.92999868673395,0,90,3.0,1,0.11195873580894748
2.27,0.22384764873847685,82.31678578427645,0,90,3.0,1,0.09931517080982366
2.275,0.19186090753201765,82.18425183246814,0,90,3.0,1,0.09658251200965227
2.28,0.16148868344343878,82.37782282094385,0,90,3.0,1,0.10057366641121336
2.285,0.1334809643017881,82.78069542455634,0,90,3.0,1,0.10888031803208952
2.29,0.10834733138818531,83.31030373623537,0,90,3.0,1,0.1198000770357808
2.295,0.08636519236690572,83.91036403083501,0,90,3.0,1,0.13217245424402088
2.3,0.06760532616242629,84.54240741608544,0,90,3.0,1,0.14520427662031832
2.305,0.05196904332202373,85.17885117145109,0,90,3.0,1,0.15832682827734199
2.31,0.03923107185803287,85.79822972686465,0,90,3.0,1,0.17109752014153912
2.315,0.02908287038705761,86.38238945811577,0,90,3.0,1,0.18314205068279932
2.32,0.02117220077308346,86.91513824815956,0,90,3.0,1,0.19412656181772298
2.325,0.0151361834125735,87.38182755512767,0,90,3.0,1,0.20374902175520973
2.33,0.010626454858290009,87.76945625933718,0,90,3.0,1,0.21174136617190054
2.335,0.007326255555493652,88.06701587257524,0,90,3.0,1,0.2178766159293864
2.34,0.004960179211183015,88.26590102215914,0,90,3.0,1,0.2219773406630751
2.345,0.0032978759379303545,88.36027952866407,0,90,3.0,1,0.22392328925080549
2.35,0.002153242296767213,88.34736028951566,0,90,3.0,1,0.22365691318588996
2.355,0.001380616732225004,88.22752467406713,0,90,3.0,1,0.22118607575396138
2.36,0.0008693106590991584,88.00430591779762,0,90,3.0,1,0.216583627171085
2.365,0.000537524815942247,87.68421547101619,0,90,3.0,1,0.20998382414466366
2.37,0.0003263951340288585,87.27642730310674,0,90,3.0,1,0.20157582068261326
2.375,0.00019463030985187395,86.79234121998647,0,90,3.0,1,0.19159466432961791
2.38,0.00011397219555062695,86.24505409713203,0,90,3.0,1,0.1803103937552995
2.385,6.55403863487943e-05,85.64877318084139,0,90,3.0,1,0.16801594187301833
2.39,3.701184389455385e-05,85.0182079909067,0,90,3.0,1,0.15501459775065365
2.395,2.0525516217290957e-05,84.36797682077905,0,90,3.0,1,0.14160776950059895
2.4,1.1178128483661116e-05,83.71206058866679,0,90,3.0,1,0.12808372347766572
2.405,5.978135409912517e-06,83.06333129407486,0,90,3.0,1,0.1147078617335022
2.41,3.1396702713238487e-06,82.43317520844727,0,90,3.0,2,0.10171495275149003
2.415,1.6192875458531019e-06,81.83122290878103,0,90,3.0,2,0.08930356512950577
2.42,8.201353897972012e-07,81.2651901026225,0,90,3.0,2,0.07763278562108243
2.425,4.0791415086824765e-07,80.74082558665786,0,90,3.0,2,0.06682114611665696
2.43,1.9923866938774793e-07,80.26195620089626,0,90,3.0,2,0.0569475505339436
2.435,9.556527981051257e-08,79.8306136902024,0,90,3.0,2,0.04805389051963707
2.44,4.501406988770349e-08,79.44722517980838,0,90,3.0,2,0.04014897277955432
2.445,0.0,79.11084753982108,0,90,3.0,2,0.033213351336517115
2.45,0.0,78.81942611946013,0,90,3.0,2,0.027204662256909946
2.455,0.0,78.57005991099739,0,90,3.0,2,0.02206309094839972
2.46,0.0,78.35925780995424,0,90,3.0,2,0.017716655875345228
2.465,0.0,78.18317389066814,0,90,3.0,2,0.014086059601405024
2.47,0.0,78.03781314146194,0,90,3.0,2,0.011088930751792556
2.475,0.0,77.91920257088249,0,90,3.0,2,0.008643351976958558
2.48,0.0,77.82352574244823,0,90,3.0,2,0.006670633864911868
2.485,0.0,77.7472214363384,0,90,3.0,2,0.00509734920285375
2.49,0.0,77.68704917015539,0,90,3.0,2,0.0038566839207296957
2.495,0.0,77.64012570929647,0,90,3.0,2,0.00288918988240144
2.5,0.0,77.60393749359159,0,90,3.0,2,0.0021430411049811818
2.505,0.0,77.57633417800548,0,90,3.0,2,0.00157390057743261
2.51,0.0,77.55550833549475,0,90,3.0,2,0.0011445017627783479
2.515,0.0,77.53996591435897,0,90,3.0,2,0.0008240394713190312
2.52,0.0,77.52849139278503,0,90,3.0,2,0.00058745139762945
2.525,0.0,77.52011082950858,0,90,3.0,2,0.0004146562785274572
2.53,0.0,77.51405525295831,0,90,3.0,2,0.0002897990300683437
2.535,0.0,77.50972612229039,0,90,3.0,2,0.0002005386039255291
2.54,0.0,77.50666397199244,0,90,3.0,2,0.00013740148438016862
2.545,0.0,77.50452083834722,0,90,3.0,2,9.321316179832194e-05
2.55,0.0,77.5030366670062,0,90,3.0,2,6.261169084947264e-05
2.555,0.0,77.50201961106382,0,90,3.0,2,4.164146523330554e-05
2.56,0.0,77.50132993583813,0,90,3.0,2,2.7421357487193894e-05
2.565,0.0,77.50086713360042,0,90,3.0,2,1.787904330768404e-05
2.57,0.0,77.50055980106244,0,90,3.0,2,1.1542289947150606e-05
2.575,0.0,77.50035782757026,0,90,3.0,2,7.377888046498013e-06
2.58,0.0,77.50022646769418,0,90,3.0,2,4.669436993326505e-06
2.585,0.0,77.50014191591274,0,90,3.0,2,2.926101293508406e-06
2.59,0.0,77.50008805384176,0,90,3.0,2,1.8155431291688728e-06
2.595,0.0,77.5000540950966,0,90,3.0,2,1.1153628165207994e-06
2.6,0.0,77.50003290484658,0,90,3.0,2,6.784504448918147e-07
2.605,0.0,77.50001981774416,0,90,3.0,2,4.0861328165726834e-07
2.61,0.0,77.50001181791718,0,90,3.0,2,2.436683955365129e-07
2.615,0.0,77.50000697782454,0,90,3.0,2,1.4387267093607265e-07
2.62,0.0,77.50000407935522,0,90,3.0,2,8.411041694061985e-08
2.625,0.0,77.50000236132293,0,90,3.0,2,4.8687070668315706e-08
2.63,0.001684486749771458,77.50000135335465,0,90,3.0,2,2.79042195444097e-08
2.635,0.004172395771277602,77.50000076799826,0,90,3.0,2,1.583501564466095e-08
2.64,0.009438687428818865,77.50000043152029,0,90,3.0,2,8.897325597928036e-09
2.645,0.019500507867137046,77.50000024006818,0,90,3.0,2,4.949859280760889e-09
2.65,0.03679496976339974,77.50000013223924,0,90,3.0,2,2.7265821948454573e-09
2.655,0.06340728953298436,77.50000007212378,0,90,3.0,2,1.487088299007755e-09
2.66,0.09979255396093453,77.50000003894834,0,90,3.0,2,8.030586230365161e-10
2.665,0.14343835518453557,77.50000002082533,0,90,3.0,2,4.293881538990146e-10
2.67,0.18829581417209276,77.50000001102522,0,90,3.0,2,2.2732415720721413e-10
2.675,0.2257481735193119,77.5000000057793,0,90,3.0,2,1.191608003564491e-10
2.68,0.24718154073554727,77.50000000299954,0,90,3.0,2,6.184622573518654e-11
2.685,0.24718154074102772,77.50000000154144,0,90,3.0,2,3.1782210311407136e-11
2.69,0.22574817354072055,77.50000000078431,0,90,3.0,2,1.617136665127245e-11
2.695,0.18829581422840957,77.50000000039513,0,90,3.0,2,8.147068357859623e-12
2.7,0.14343835532456656,77.5000000001971,0,90,3.0,2,4.0640114412340575e-12
2.705,0.09979255431561854,77.50000000009734,0,90,3.0,2,2.0071000989512108e-12
2.71,0.06340729067170194,77.5000000000476,0,90,3.0,2,9.815745009469425e-13
2.715,0.03679497683410042,77.50000000002305,0,90,3.0,2,4.752578628465495e-13
2.72,0.019500578284482293,77.50000000001106,0,90,3.0,2,2.2795969007066307e-13
2.725,0.009439396781978427,77.50000000000524,0,90,3.0,2,1.0811969876102142e-13
2.73,0.004178588733610924,77.50000000000246,0,90,3.0,2,5.069026527278241e-14
2.735,0.0017299316936037381,77.50000000000115,0,90,3.0,2,2.3733592410955925e-14
2.74,0.0008997325756988589,77.50000000000053,0,90,3.0,2,1.0841270607473693e-14
2.745,0.001634769674224814,77.50000000000024,0,90,3.0,2,4.9811243331635886e-15
2.75,0.00614904736476635,77.50000000000011,0,90,3.0,2,2.344058509724042e-15
2.755,0.02168080359963608,77.50000000000004,0,90,3.0,2,8.790219411465157e-16
2.76,0.06433400338904088,77.50000000000001,0,90,3.0,2,2.9300731371550523e-16
2.765,0.1593410769217493,77.50000000000001,0,90,3.0,2,2.9300731371550523e-16
2.77,0.3291989194808569,77.5,0,90,3.0,2,0.0
2.775,0.5672906802982638,77.5,0,90,3.0,2,0.0
2.78,0.815339152120446,77.5,0,90,3.0,2,0.0
2.785,0.9768711246313155,77.5000028551147,1,90,3.0,2,5.8868344352696425e-08
2.79,0.9726380909165361,77.50000509675978,0,90,3.0,2,1.0508783048797191e-07
2.795,0.7921091683291741,77.50000951136758,0,90,3.0,2,1.961106717476703e-07
2.8,0.49139090102639077,77.50001903897957,0,90,3.0,2,3.9255627986264145e-07
2.805,0.15739335672107918,77.50004154149926,0,90,3.0,2,8.565257578843603e-07
2.81,-0.11102342218909485,77.50009820262278,0,90,3.0,2,2.024796345984814e-06
2.815,-0.2314207883647528,77.5002450493498,0,90,3.0,2,5.0525639134081864e-06
2.82,-0.2029124434754801,77.50062532647016,0,90,3.0,2,1.2893329281587753e-05
2.825,-0.11151350554305876,77.50159006558083,0,90,3.0,2,3.278485733666148e-05
2.83,-0.039430666652076896,77.50395976386687,0,90,3.0,2,8.164461581183092e-05
2.835,-0.006087703519843621,77.509558029154,0,90,3.0,2,0.00019707276606171494
2.84,0.005350271385530551,77.52223006700713,0,90,3.0,2,0.0004583518970542093
2.845,0.010381647827441833,77.54965236886618,0,90,3.0,2,0.001023760182807768
2.85,0.015115203303506243,77.60630411554565,0,90,3.0,2,0.0021918374339310216
2.855,0.021170964062928475,77.71792412237131,0,90,3.0,2,0.004493280873635358
2.86,0.029082821134029553,77.92749908235004,0,90,3.0,2,0.008814414069072966
2.865,0.03923107061708144,78.30219445411461,0,90,3.0,2,0.016540091837414693
2.87,0.051969043308817596,78.9396010556152,0,90,3.0,2,0.029682495992065964
2.875,0.06760532616283861,79.97037813308847,0,90,3.0,2,0.05093563161007163
2.88,0.08636519236693461,81.55328051691828,0,90,3.0,2,0.08357279416326346
2.885,0.10834733138818661,83.85841525262556,0,90,3.0,2,0.13110134541496005
2.89,0.1334809643017884,87.03621626592275,0,90,3.0,2,0.19662301579222158
2.895,0.16148868344343945,91.17352049317606,0,90,3.0,2,0.2819282575912589
2.9,0.191860907532018,96.24382795723774,0,90,3.0,2,0.3864706795306751
2.905,0.22384764873847726,102.06464559783686,0,90,3.0,2,0.506487538099729
2.91,0.25647215537198226,108.27808647577884,0,90,3.0,2,0.6345997211500791
2.915,0.2885689161419028,114.36898440675728,0,90,3.0,2,0.7601852455001501
2.92,0.31884566517832524,119.726540843299,0,90,3.0,2,0.8706503266659589
2.925,0.3459657668955683,123.74247552860498,0,90,3.0,2,0.953453103682577
2.93,0.3686441789190902,125.92507722305399,0,90,3.0,2,0.99845520047534
2.935,0.3857476379544367,126.0,0,90,3.0,2,1.0
2.94,0.3963882865005728,123.96944364845882,0,90,3.0,2,0.9581328587311098
2.945,0.4,120.11225240741231,0,90,3.0,2,0.8786031424208725
2.95,0.39638828650057273,114.92489118114372,0,90,3.0,2,0.7716472408483241
2.955,0.38574763795443656,109.02069777638775,0,90,3.0,2,0.6499112943585102
2.96,0.36864417891908974,103.0157423158548,0,90,3.0,2,0.5260977797083463
2.965,0.345965766895568,97.43046142826427,0,90,3.0,2,0.41093734903637663
2.97,0.3188456651783249,92.62771663477741,0,90,3.0,2,0.31191168319128687
2.975,0.28856891614190205,88.79436262350897,0,90,3.0,2,0.23287345615482422
2.98,0.2564721553719815,85.9603564630008,0,90,3.0,2,0.1744403394433156
2.985,0.22384764873847685,84.04117422451625,0,90,3.0,2,0.1348695716395104
2.99,0.19186090753201765,82.88736818594299,0,90,3.0,2,0.11107975641119566
2.995,0.16148868344343878,82.32835607123288,0,90,3.0,2,0.09955373342748196
3.0,0.1334809643017881,82.20334847453948,0,90,3.0,2,0.09697625720699962
3.005,0.10834733138818531,82.37802533117728,0,90,3.0,2,0.100577841879944
3.01,0.08636519236690572,82.74947601817391,0,90,3.0,2,0.10823661893142078
3.015,0.06760532616242629,83.24356815260268,0,90,3.0,2,0.11842408562067375
3.02,0.05196904332202373,83.8087710734139,0,90,3.0,2,0.1300777540910081
3.025,0.03923107185803287,84.40936541562792,0,90,3.0,2,0.14246114259026632
3.03,0.02908287038705761,85.01967300626876,0,90,3.0,2,0.15504480425296413
3.035,0.02117220077308346,85.61989625769553,0,90,3.0,2,0.1674205413957841
3.04,0.0151361834125735,86.1935145858505,0,90,3.0,2,0.1792477234195978
3.045,0.010626454858290009,86.72590057808648,0,90,3.0,2,0.19022475418735013
3.05,0.007326255555493652,87.20376630633332,0,90,3.0,2,0.20007765580068704
3.055,0.004960179211183015,87.61511013467465,0,90,3.0,2,0.20855897184896188
3.06,0.0032978759379303545,87.94942531867703,0,90,3.0,2,0.2154520684263305
3.065,0.002153242296767213,88.19801300303018,0,90,3.0,2,0.220577587691344
3.07,0.001380616732225004,88.3543013569685,0,90,3.0,2,0.22380002797873208
3.075,0.0008693106590991584,88.41411121591545,0,90,3.0,2,0.2250332209467104
3.08,0.000537524815942247,88.37583294666375,0,90,3.0,2,0.2242439782817268
3.085,0.0003263951340288585,88.24049522363691,0,90,3.0,2,0.22145350976570954
3.09,0.00019463030985187395,88.01171798894731,0,90,3.0,2,0.2167364533803569
3.095,0.00011397219555062695,87.69555119971342,0,90,3.0,2,0.21021755050955507
3.1,6.55403863487943e-05,87.3002088822698,0,90,3.0,2,0.2020661625210268
3.105,3.701184389455385e-05,86.8357146365197,0,90,3.0,2,0.19248896157772571
3.11,2.0525516217290957e-05,86.31347988015781,0,90,3.0,2,0.18172123464242915
3.115,1.1178128483661116e-05,85.74583955071263,0,90,3.0,2,0.17001731032397177
3.12,5.978135409912517e-06,85.14557153020662,0,90,3.0,2,0.15764065010735306
3.125,3.1396702713238487e-06,84.5254256988194,0,90,3.0,2,0.1448541381199877
3.13,1.6192875458531019e-06,83.89768639140668,0,90,3.0,2,0.13191105961663258
3.135,8.201353897972012e-07,83.27378839713461,0,90,3.0,2,0.11904718344607441
3.14,4.0791415086824765e-07,82.66400189107254,0,90,3.0,2,0.10647426579531019
3.145,1.9923866938774793e-07,82.0771962680399,0,90,3.0,2,0.0943751807843278
3.15,9.556527981051257e-08,81.5206872343762,0,90,3.0,2,0.08290076771909685
3.155,4.501406988770349e-08,81.00016614843322,0,90,3.0,2,0.07216837419449945
3.16,0.0,80.51970586708367,0,90,3.0,2,0.06226197664090046
3.165,0.0,80.08183354198295,0,90,3.0,2,0.05323368127799887
3.17,0.0,79.68765809484466,0,90,3.0,2,0.04510635247102401
3.175,0.0,79.33703855163972,0,90,3.0,2,0.037877083538963345
3.18,0.0,79.02877899242638,0,90,3.0,2,0.03152121633868829
3.185,0.0,78.76083644990005,0,90,3.0,2,0.025996627832990813
3.19,0.0,78.53052947528113,0,90,3.0,2,0.021248030418167585
3.195,0.0,78.33473705710682,0,90,3.0,2,0.01721107334240868
3.2,0.0,78.17007988803523,0,90,3.0,2,0.013816080165674894
3.205,0.0,78.03307840011358,0,90,3.0,2,0.010991307218836724
3.21,0.0,77.92028433344609,0,90,3.0,2,0.008665656359713213
3.215,0.0,77.82838471233613,0,90,3.0,2,0.006770818811054251
3.22,0.0,77.75427887027756,0,90,3.0,2,0.00524286330469195
3.225,0.0,77.69513053223781,0,90,3.0,2,0.004023309943047667
3.23,0.0,77.64839791473344,0,90,3.0,2,0.0030597508192461167
3.235,0.0,77.6118453623572,0,90,3.0,2,0.0023060899455092966
3.24,0.0,77.58354025118703,0,90,3.0,2,0.001722479405918172
3.245,0.0,77.56183881887893,0,90,3.0,2,0.001275027193379905
3.25,0.0,77.54536429944484,0,90,3.0,2,0.0009353463803060113
3.255,0.0,77.53298031842075,0,90,3.0,2,0.0006800065653763894
3.26,0.0,77.52376200558362,0,90,3.0,2,0.0004899382594560885
3.265,0.0,77.51696676154249,0,90,3.0,2,0.00034983013489672837
3.27,0.0,77.51200611315076,0,90,3.0,2,0.0002475487247579622
3.275,0.0,77.50841963997159,0,90,3.0,2,0.00017360082415653852
3.28,0.0,77.50585156756235,0,90,3.0,2,0.00012065087757413184
3.285,0.0,77.50403031081224,0,90,3.0,2,8.309919200495145e-05
3.29,0.0,77.50275101189904,0,90,3.0,2,5.672189482549218e-05
3.295,0.0,77.5018609470294,0,90,3.0,2,3.837004184328949e-05
3.3,0.0,77.50124756495694,0,90,3.0,2,2.5722988802907323e-05
3.305,0.0,77.50082885762389,0,90,3.0,2,1.708984791519273e-05
3.31,0.0,77.5005457381559,0,90,3.0,2,1.1252333111481666e-05
3.315,0.0,77.50035610355962,0,90,3.0,2,7.342341435564917e-06
3.32,0.0,77.50023027984271,0,90,3.0,2,4.74803799404034e-06
3.325,0.0,77.50014757851864,0,90,3.0,2,3.0428560543460313e-06
3.33,0.0,77.50009372986307,0,90,3.0,2,1.9325744962358285e-06
3.335,0.0,77.50005899570995,0,90,3.0,2,1.2164063907066427e-06
3.34,0.0,77.50003680022672,0,90,3.0,2,7.587675613133788e-07
3.345,0.0,77.50002274930694,0,90,3.0,2,4.690578749694996e-07
3.35,0.0,77.50001393713347,0,90,3.0,2,2.8736357678295914e-07
3.355,0.0,77.50000846187025,0,90,3.0,2,1.7447155157954972e-07
3.36,0.0,77.50000509151324,0,90,3.0,2,1.0497965453180665e-07
3.365,0.0,77.50000303609255,0,90,3.0,2,6.25998464062091e-08
3.37,0.0,77.50000179419958,0,90,3.0,2,3.6993805700327245e-08
3.375,0.0,77.50000105078558,0,90,3.0,2,2.1665682160130826e-08
3.38,0.001684486749771458,77.50000060988096,0,90,3.0,2,1.2574865080488361e-08
3.385,0.004172395771277602,77.50000035080329,0,90,3.0,2,7.233057534360398e-09
3.39,0.009438687428818865,77.5000001999723,0,90,3.0,2,4.123140317141847e-09
3.395,0.019500507867137046,77.50000011297014,0,90,3.0,2,2.3292812718714276e-09
3.4,0.03679496976339974,77.50000006324775,0,90,3.0,2,1.3040773958976192e-09
3.405,0.06340728953298436,77.50000003509248,0,90,3.0,2,7.235563625914606e-10
3.41,0.09979255396093453,77.50000001929615,0,90,3.0,2,3.978588088993439e-10
3.415,0.14343835518453557,77.50000001051514,0,90,3.0,2,2.168069526887098e-10
3.42,0.18829581417209276,77.50000000567867,0,90,3.0,2,1.1708601556802962e-10
3.425,0.2257481735193119,77.50000000303925,0,90,3.0,2,6.266488816970767e-11
3.43,0.24718154073554727,77.50000000161204,0,90,3.0,2,3.3237870645945765e-11
3.435,0.24718154074102772,77.50000000084736,0,90,3.0,2,1.7471440102228146e-11
3.44,0.22574817354072055,77.50000000044142,0,90,3.0,2,9.101393178631024e-12
3.445,0.18829581422840957,77.50000000022789,0,90,3.0,2,4.698665282741842e-12
3.45,0.14343835532456656,77.5000000001166,0,90,3.0,2,2.4041250090357205e-12
3.455,0.09979255431561854,77.50000000005912,0,90,3.0,2,1.2189104250565017e-12
3.46,0.06340729067170194,77.5000000000297,0,90,3.0,2,6.12385285665406e-13
3.465,0.03679497683410042,77.5000000000148,0,90,3.0,2,3.050206135778409e-13
3.47,0.019500578284482293,77.5000000000073,0,90,3.0,2,1.5060575924976968e-13
3.475,0.009439396781978427,77.50000000000357,0,90,3.0,2,7.354483574259182e-14
3.48,0.004178588733610924,77.50000000000173,0,90,3.0,2,3.574689227329164e-14
3.485,0.0017299316936037381,77.50000000000082,0,90,3.0,2,1.6994424195499303e-14
3.49,0.0008997325756988589,77.5000000000004,0,90,3.0,2,8.204204784034146e-15
3.495,0.001634769674224814,77.50000000000018,0,90,3.0,2,3.809095078301568e-15
3.5,0.00614904736476635,77.50000000000009,0,90,3.0,2,1.7580438822930315e-15
3.505,0.02168080359963608,77.50000000000004,0,90,3.0,2,8.790219411465157e-16
3.51,0.06433400338904088,77.50000000000001,0,90,3.0,2,2.9300731371550523e-16
3.515,0.1593410769217493,77.50000000000001,0,90,3.0,2,2.9300731371550523e-16
3.52,0.3291989194808569,77.5,0,90,3.0,2,0.0
3.525,0.5672906802982638,77.5,0,90,3.0,2,0.0
3.53,0.815339152120446,77.5,0,90,3.0,2,0.0
3.535,0.9768711246313155,77.50000284146185,1,90,3.0,2,5.858684226416127e-08
3.54,0.9726380909165361,77.50000566108393,0,90,3.0,2,1.1672338004733394e-07
3.545,0.7921091683291741,77.50001208193964,0,90,3.0,2,2.49112157614514e-07
3.55,0.49139090102639077,77.50002873397177,0,90,3.0,2,5.924530262760039e-07
3.555,0.15739335672107918,77.50007697165655,0,90,3.0,2,1.5870444650369519e-06
3.56,-0.11102342218909485,77.5002248661891,0,90,3.0,2,4.636416270107747e-06
3.565,-0.2314207883647528,77.50068051525129,0,90,3.0,2,1.4031242294631925e-05
3.57,-0.2029124434754801,77.50204432602273,0,90,3.0,2,4.215105201498454e-05
3.575,-0.11151350554305876,77.50593777613041,0,90,3.0,2,0.00012242837382286874
3.58,-0.039430666652076896,77.5164399231014,0,90,3.0,2,0.00033896748662683775
3.585,-0.006087703519843621,77.5430754284251,0,90,3.0,2,0.0008881531634040833
3.59,0.005350271385530551,77.60641853580098,0,90,3.0,2,0.0021941966144532724
3.595,0.010381647827441833,77.74742477142738,0,90,3.0,2,0.005101541678914966
3.6,0.015115203303506243,78.0408498094408,0,90,3.0,2,0.011151542462696914
3.605,0.021170964062928475,78.61092688858213,0,90,3.0,2,0.022905709042930475
3.61,0.029082821134029553,79.6435860439409,0,90,3.0,2,0.04419765039053402
3.615,0.03923107061708144,81.38481376725014,0,90,3.0,3,0.08009925293299251
3.62,0.051969043308817596,84.11198300521768,0,90,3.0,3,0.13632954649933363
3.625,0.06760532616283861,88.06822919931167,0,90,3.0,3,0.21790163297549842
3.63,0.08636519236693461,93.3624433467146,0,90,3.0,3,0.3270606875611258
3.635,0.10834733138818661,99.85796314992469,0,90,3.0,3,0.4609889309262822
3.64,0.1334809643017884,107.09329543873122,0,90,3.0,3,0.6101710399738396
3.645,0.16148868344343945,114.28467844096284,0,90,3.0,3,0.7584469781641822
3.65,0.191860907532018,120.44171590167264,0,90,3.0,3,0.8853962041581988
3.655,0.22384764873847726,124.58441298286456,0,90,3.0,3,0.9708126388219498
3.66,0.25647215537198226,126.0,0,90,3.0,3,1.0
3.665,0.2885689161419028,124.44805851086043,0,90,3.0,3,0.9680012064094935
3.67,0.31884566517832524,120.23336770229193,0,90,3.0,3,0.8811003649957099
3.675,0.3459657668955683,114.1166790767293,0,90,3.0,3,0.7549830737469958
3.68,0.3686441789190902,107.09975419133913,0,90,3.0,3,0.6103042101307037
3.685,0.3857476379544367,100.16845034237797,0,90,3.0,3,0.46739072870882403
3.69,0.3963882865005728,94.08390247082684,0,90,3.0,3,0.34193613341911017
3.695,0.4,89.27867445647695,0,90,3.0,3,0.2428592671438546
3.7,0.39638828650057273,85.864344835223,0,90,3.0,3,0.1724607182520205
3.705,0.38574763795443656,83.71609774519702,0,90,3.0,3,0.1281669638184952
3.71,0.36864417891908974,82.5841699556867,0,90,3.0,3,0.10482824650900421
3.715,0.345965766895568,82.19056841459238,0,90,3.0,3,0.09671275081633768
3.72,0.3188456651783249,82.29034138789683,0,90,3.0,3,0.098769925523646
3.725,0.28856891614190205,82.69662523703138,0,90,3.0,3,0.10714691210373987
3.73,0.2564721553719815,83.28017122082787,0,90,3.0,3,0.11917878805830655
3.735,0.22384764873847685,83.95647708211006,0,90,3.0,3,0.1331232388063929
3.74,0.19186090753201765,84.67048907652408,0,90,3.0,3,0.1478451355984346
3.745,0.16148868344343878,85.38412783726835,0,90,3.0,3,0.16255933685089385
3.75,0.1334809643017881,86.06814495598806,0,90,3.0,3,0.17666278259769197
3.755,0.10834733138818531,86.69778161152293,0,90,3.0,3,0.1896449816808851
3.76,0.08636519236690572,87.25104168924796,0,90,3.0,3,0.20105240596387536
3.765,0.06760532616242629,87.70847176089451,0,90,3.0,3,0.21048395383287652
3.77,0.05196904332202373,88.05365884673252,0,90,3.0,3,0.21760121333469107
3.775,0.03923107185803287,88.27395822955663,0,90,3.0,3,0.2221434686506521
3.78,0.02908287038705761,88.36117218288662,0,90,3.0,3,0.22394169449250761
3.785,0.02117220077308346,88.31202622987558,0,90,3.0,3,0.22292837587372338
3.79,0.0151361834125735,88.12836388999429,0,90,3.0,3,0.2191415235050369
3.795,0.010626454858290009,87.81702923229327,0,90,3.0,3,0.2127222522122323
3.8,0.007326255555493652,87.38944286440807,0,90,3.0,3,0.20390603844140345
3.805,0.004960179211183015,86.86090652517962,0,90,3.0,3,0.1930083819624663
3.81,0.0032978759379303545,86.24969489964558,0,90,3.0,3,0.18040608040506342
3.815,0.002153242296767213,85.57600963817242,0,90,3.0,3,0.16651566264273035
3.82,0.001380616732225004,84.86087877929835,0,90,3.0,3,0.15177069648037828
3.825,0.0008693106590991584,84.1250844861679,0,90,3.0,3,0.13659968012717333
3.83,0.000537524815942247,83.38819378194358,0,90,3.0,3,0.12140605735966155
3.835,0.0003263951340288585,82.66775226181372,0,90,3.0,3,0.10655159302708696
3.84,0.00019463030985187395,81.97868166934622,0,90,3.0,3,0.0923439519452828
3.845,0.00011397219555062695,81.33290118404989,0,90,3.0,3,0.07902889039278119
3.85,6.55403863487943e-05,80.73917169351294,0,90,3.0,3,0.066787045227071
3.855,3.701184389455385e-05,80.20314431499443,0,90,3.0,3,0.05573493432978211
3.86,2.0525516217290957e-05,79.72758053473622,0,90,3.0,3,0.04592949556157153
3.865,1.1178128483661116e-05,79.31270241863277,0,90,3.0,3,0.03737530760067562
3.87,5.978135409912517e-06,78.95662759204296,0,90,3.0,3,0.030033558598823985
3.875,3.1396702713238487e-06,78.6558446534466,0,90,3.0,3,0.02383184852467202
3.88,1.6192875458531019e-06,78.40568947884991,0,90,3.0,3,0.018674009873193977
3.885,8.201353897972012e-07,78.20079032117712,0,90,3.0,3,0.014449284972724198
3.89,4.0791415086824765e-07,78.03545846105052,0,90,3.0,3,0.011040380640216993
3.895,1.9923866938774793e-07,77.90401025968183,0,90,3.0,3,0.008330108447047955
3.9,9.556527981051257e-08,77.80101484957184,0,90,3.0,3,0.006206491743749331
3.905,4.501406988770349e-08,77.72146870454772,0,90,3.0,3,0.004566365042220984
3.91,0.0,77.66090358782964,0,90,3.0,3,0.0033175997490646754
3.915,0.0,77.61543779137935,0,90,3.0,3,0.0023801606469968993
3.92,0.0,77.58178227885897,0,90,3.0,3,0.001686232553793126
3.925,0.0,77.55721360654816,0,90,3.0,3,0.0011796619906837135
3.93,0.0,77.539524679794,0,90,3.0,3,0.0008149418514226595
3.935,0.0,77.5269628821488,0,90,3.0,3,0.0005559357144081271
3.94,0.0,77.51816323428235,0,90,3.0,3,0.0003744996759248408
3.945,0.0,77.51208228217608,0,90,3.0,3,0.0002491192201253834
3.95,0.0,77.50793658518138,0,90,3.0,3,0.00016364093157491326
3.955,0.0,77.5051481039483,0,90,3.0,3,0.00010614647316084095
3.96,0.0,77.50329753832021,0,90,3.0,3,6.799048082910107e-05
3.965,0.0,77.50208574548876,0,90,3.0,3,4.300506162383865e-05
3.97,0.0,77.50130275183275,0,90,3.0,3,2.686086253099591e-05
3.975,0.0,77.50080350945366,0,90,3.0,3,1.6567205230122108e-05
3.98,0.0,77.50048938336957,0,90,3.0,3,1.0090378753998781e-05
3.985,0.0,77.5002943312271,0,90,3.0,3,6.068685094758096e-06
3.99,0.0,77.50017480441339,0,90,3.0,3,3.6042147090816777e-06
3.995,0.0,77.50010251734817,0,90,3.0,3,2.1137597560393317e-06
4.0,0.0,77.50005937057459,0,90,3.0,3,1.2241355585553447e-06
4.005,0.0,77.50003395267987,0,90,3.0,3,7.000552550755284e-07
4.01,0.0,77.50001917369362,0,90,3.0,3,3.9533388898816314e-07
4.015,0.001684486749771458,77.50001069218405,0,90,3.0,3,2.204574030591025e-07
4.02,0.004172395771277602,77.50000588783982,0,90,3.0,3,1.2139875915983288e-07
4.025,0.009438687428818865,77.50000320165451,0,90,3.0,3,6.601349500482514e-08
4.03,0.019500507867137046,77.50000171918202,0,90,3.0,3,3.5447052029020285e-08
4.035,0.03679496976339974,77.50000091158711,0,90,3.0,3,1.8795610474663807e-08
4.04,0.06340728953298436,77.50000047731316,0,90,3.0,3,9.841508556549802e-09
4.045,0.09979255396093453,77.50000024679568,0,90,3.0,3,5.088570701117692e-09
4.05,0.14343835518453557,77.50000012600873,0,90,3.0,3,2.5981181192712274e-09
4.055,0.18829581417209276,77.50000006353201,0,90,3.0,3,1.3099384211938703e-09
4.06,0.2257481735193119,77.50000003163105,0,90,3.0,3,6.52186520138579e-10
4.065,0.24718154073554727,77.50000001555118,0,90,3.0,3,3.2064288452321053e-10
4.07,0.24718154074102772,77.50000000754991,0,90,3.0,3,1.5566833961614618e-10
4.075,0.22574817354072055,77.5000000036195,0,90,3.0,3,7.462896280333919e-11
4.08,0.18829581422840957,77.5000000017135,0,90,3.0,3,3.5329942865874475e-11
4.085,0.14343835532456656,77.50000000080104,0,90,3.0,3,1.65162362595156e-11
4.09,0.09979255431561854,77.50000000036978,0,90,3.0,3,7.624343310191161e-12
4.095,0.06340729067170194,77.50000000016857,0,90,3.0,3,3.475652755293323e-12
4.1,0.03679497683410042,77.50000000007587,0,90,3.0,3,1.5643660479270824e-12
4.105,0.019500578284482293,77.50000000003372,0,90,3.0,3,6.953063554468939e-13
4.11,0.009439396781978427,77.50000000001481,0,90,3.0,3,3.0531362089155643e-13
4.115,0.004178588733610924,77.50000000000642,0,90,3.0,3,1.3243930579940837e-13
4.12,0.0017299316936037381,77.50000000000274,0,90,3.0,3,5.655041154709251e-14
4.125,0.0008997325756988589,77.50000000000117,0,90,3.0,3,2.402659972467143e-14
4.13,0.001634769674224814,77.50000000000048,0,90,3.0,3,9.962248666327177e-15
4.135,0.00614904736476635,77.5000000000002,0,90,3.0,3,4.102102392017073e-15
4.14,0.02168080359963608,77.50000000000009,0,90,3.0,3,1.7580438822930315e-15
4.145,0.06433400338904088,77.50000000000003,0,90,3.0,3,5.860146274310105e-16
4.15,0.1593410769217493,77.50000000000001,0,90,3.0,3,2.9300731371550523e-16
4.155,0.3291989194808569,77.5,0,90,3.0,3,0.0
4.16,0.5672906802982638,77.5,0,90,3.0,3,0.0
4.165,0.815339152120446,77.5,0,90,3.0,3,0.0
4.17,0.9768711246313155,77.50000284586159,1,90,3.0,3,5.8677558500516847e-08
4.175,0.9726380909165361,77.50000540621835,0,90,3.0,3,1.1146841957598394e-07
4.18,0.7921091683291741,77.5000108768639,0,90,3.0,3,2.2426523498287464e-07
4.185,0.49139090102639077,77.5000239632854,0,90,3.0,3,4.940883587719842e-07
4.19,0.15739335672107918,77.50005866103898,0,90,3.0,3,1.2095059582978926e-06
4.195,-0.11102342218909485,77.5001565274914,0,90,3.0,3,3.2273709566722866e-06
4.2,-0.2314207883647528,77.50043717338163,0,90,3.0,3,9.013884157259303e-06
4.205,-0.2029124434754801,77.50122904689188,0,90,3.0,3,2.534117302843697e-05
4.21,-0.11151350554305876,77.50338542462353,0,90,3.0,3,6.980256955733511e-05
4.215,-0.039430666652076896,77.50899344295689,0,90,3.0,3,0.0001854318135441804
4.22,-0.006087703519843621,77.52284424176906,0,90,3.0,3,0.00047101529420751363
4.225,0.005350271385530551,77.55523138800068,0,90,3.0,3,0.0011387915051686152
4.23,0.010381647827441833,77.62679470536686,0,90,3.0,3,0.002614323821997157
4.235,0.015115203303506243,77.77602863433232,0,90,3.0,3,0.005691312048089076
4.24,0.021170964062928475,78.06941882061071,0,90,3.0,3,0.011740594239396024
4.245,0.029082821134029553,78.61264705687972,0,90,3.0,3,0.022941176430509753
4.25,0.03923107061708144,79.55887006289213,0,90,3.0,3,0.04245092913179641
4.255,0.051969043308817596,81.10733409746567,0,90,3.0,3,0.07437802262815808
4.26,0.06760532616283861,83.4840347084959,0,90,3.0,3,0.12338215893805975
4.265,0.08636519236693461,86.89791075708786,0,90,3.0,3,0.19377135581624447
4.27,0.10834733138818661,91.47290531438892,0,90,3.0,3,0.28810114050286445
4.275,0.1334809643017884,97.16780461229023,0,90,3.0,3,0.40552174458330364
4.28,0.16148868344343945,103.70838557386074,0,90,3.0,3,0.5403790839971286
4.285,0.191860907532018,110.56339952140614,0,90,3.0,3,0.6817195777609514
4.29,0.22384764873847726,116.9905505634757,0,90,3.0,3,0.8142381559479525
4.295,0.25647215537198226,122.1585552525796,0,90,3.0,3,0.9207949536614352
4.3,0.2885689161419028,125.32204653102696,0,90,3.0,3,0.9860215779593187
4.305,0.31884566517832524,126.0,0,90,3.0,3,1.0
4.31,0.3459657668955683,124.09929318952061,0,90,3.0,3,0.960810168856095
4.315,0.3686441789190902,119.94001348411793,0,90,3.0,3,0.8750518244148026
4.32,0.3857476379544367,114.17337664266108,0,90,3.0,3,0.7561520957249708
4.325,0.3963882865005728,107.62152108345802,0,90,3.0,3,0.6210622903805777
4.33,0.4,101.0936464742221,0,90,3.0,3,0.4864669376128268
4.335,0.39638828650057273,95.23476363020654,0,90,3.0,3,0.3656652294887947
4.34,0.38574763795443656,90.4435854989949,0,90,3.0,3,0.2668780515256682
4.345,0.36864417891908974,86.86645009682657,0,90,3.0,3,0.19312268240879524
4.35,0.345965766895568,84.44866361769579,0,90,3.0,3,0.14327141479785124
4.355,0.3188456651783249,83.01238886958782,0,90,3.0,3,0.11365750246572832
4.36,0.28856891614190205,82.33219786893802,0,90,3.0,3,0.09963294575129947
4.365,0.2564721553719815,82.19037236159303,0,90,3.0,3,0.09670870848645433
4.37,0.22384764873847685,82.4067713597822,0,90,3.0,3,0.10117054350066387
4.375,0.19186090753201765,82.84733349045737,0,90,3.0,3,0.11025429877231697
4.38,0.16148868344343878,83.41925731830845,0,90,3.0,3,0.12204654264553512
4.385,0.1334809643017881,84.06060249564256,0,90,3.0,3,0.13527015454933106
4.39,0.10834733138818531,84.7296112585338,0,90,3.0,3,0.14906414966049059
4.395,0.08636519236690572,85.39633568541677,0,90,3.0,3,0.16281104506013966
4.4,0.06760532616242629,86.03717687645855,0,90,3.0,3,0.17602426549399064
4.405,0.05196904332202373,86.63190565549688,0,90,3.0,3,0.18828671454632742
4.41,0.03923107185803287,87.16241124326619,0,90,3.0,3,0.19922497408796272
4.415,0.02908287038705761,87.61248306715446,0,90,3.0,3,0.20850480550833933
4.42,0.02117220077308346,87.96811794886472,0,90,3.0,3,0.21583748348174672
4.425,0.0151361834125735,88.21802622801505,0,90,3.0,3,0.22099023150546493
4.43,0.010626454858290009,88.35414161770949,0,90,3.0,3,0.2237967343857626
4.435,0.007326255555493652,88.37202232834514,0,90,3.0,3,0.22416540883185854
4.44,0.004960179211183015,88.27108106749418,0,90,3.0,3,0.22208414572152949
4.445,0.0032978759379303545,88.05461363524023,0,90,3.0,3,0.21762089969567486
4.45,0.002153242296767213,87.7296191903864,0,90,3.0,3,0.21091998330693612
4.455,0.001380616732225004,87.30642415743608,0,90,3.0,3,0.20219431252445533
4.46,0.0008693106590991584,86.79813742453794,0,90,3.0,3,0.19171417370181323
4.465,0.000537524815942247,86.21997675578243,0,90,3.0,3,0.17979333517077167
4.47,0.0003263951340288585,85.58851459767371,0,90,3.0,3,0.16677349685925172
4.475,0.00019463030985187395,84.92089522273513,0,90,3.0,3,0.15300814892237374
4.48,0.00011397219555062695,84.2340743273611,0,90,3.0,3,0.13884689334765155
4.485,6.55403863487943e-05,83.54412713946391,0,90,3.0,3,0.1246211781332765
4.49,3.701184389455385e-05,82.86566255613282,0,90,3.0,3,0.11063221765222306
4.495,2.0525516217290957e-05,82.2113698868779,0,90,3.0,3,0.09714164715212173
4.5,1.1178128483661116e-05,81.59171264922182,0,90,3.0,3,0.08436520926230553
4.505,5.978135409912517e-06,81.0147717845139,0,90,3.0,3,0.07246952133018345
4.51,3.1396702713238487e-06,80.48622973646444,0,90,3.0,3,0.06157174714359665
4.515,1.6192875458531019e-06,80.00947792665202,0,90,3.0,3,0.0517418129206603
4.52,8.201353897972012e-07,79.58582382558662,0,90,3.0,3,0.04300667681621888
4.525,4.0791415086824765e-07,79.21477027933115,0,90,3.0,3,0.03535608823363192
4.53,1.9923866938774793e-07,78.89433892375651,0,90,3.0,3,0.02874925615992798
4.535,9.556527981051257e-08,78.62141105818226,0,90,3.0,3,0.02312187748829404
4.54,4.501406988770349e-08,78.39206273455854,0,90,3.0,3,0.018393046073371874
4.545,0.0,78.20187543065295,0,90,3.0,3,0.014471658363978296
4.55,0.0,78.04620888776554,0,90,3.0,3,0.01126203892300092
4.555,0.0,77.9204279351801,0,90,3.0,3,0.00866861722020826
4.56,0.0,77.82007993256983,0,90,3.0,3,0.0065995862385531045
4.565,0.0,77.74102351106553,0,90,3.0,3,0.004969556929186289
4.57,0.0,77.67951239873214,0,90,3.0,3,0.003701286571796767
4.575,0.0,77.63224022257143,0,90,3.0,3,0.0027266025272458896
4.58,0.0,77.59635333975864,0,90,3.0,3,0.0019866667991471345
4.585,0.0,77.56943909521827,0,90,3.0,3,0.0014317339220262168
4.59,0.0,77.54949660528963,0,90,3.0,3,0.0010205485626728467
4.595,0.0,77.53489641831816,0,90,3.0,3,0.000719513779755774
4.6,0.0,77.52433438497737,0,90,3.0,3,0.0005017398964405191
4.605,0.0,77.51678394216378,0,90,3.0,3,0.0003460606631707969
4.61,0.0,77.51144989895161,0,90,3.0,3,0.0002360803907548608
4.615,0.0,77.50772579914724,0,90,3.0,3,0.00015929482777810147
4.62,0.0,77.50515607531464,0,90,3.0,3,0.00010631083122978725
4.625,0.0,77.50340352677404,0,90,3.0,3,7.017580977394714e-05
4.63,0.0,77.50222214896947,0,90,3.0,3,4.581750452506846e-05
4.635,0.0,77.50143499784357,0,90,3.0,3,2.9587584403599846e-05
4.64,0.0,77.50091656528996,0,90,3.0,3,1.8898253401142864e-05
4.645,0.0,77.50057904143834,0,90,3.0,3,1.1938998728714274e-05
4.65,0.0,77.50036181782804,0,90,3.0,3,7.460161402809014e-06
4.655,0.0,77.50022361676467,0,90,3.0,3,4.610654941678749e-06
4.66,0.0,77.50013669506535,0,90,3.0,3,2.818454955680882e-06
4.665,0.0,77.50008264857955,0,90,3.0,3,1.7040944237109704e-06
4.67,0.0,77.50004942560916,0,90,3.0,3,1.0190847250055179e-06
4.675,0.0,77.50002923497637,0,90,3.0,3,6.027830178735121e-07
4.68,0.0,77.50001710360048,0,90,3.0,3,3.5265155637829334e-07
4.685,0.0,77.50000989706493,0,90,3.0,3,2.0406319438350074e-07
4.69,0.0,77.50000566447123,0,90,3.0,3,1.1679322127063117e-07
4.695,0.001684486749771458,77.50000320661198,0,90,3.0,3,6.611571089922212e-08
4.7,0.004172395771277602,77.50000179542606,0,90,3.0,3,3.7019093989544774e-08
4.705,0.009438687428818865,77.50000099431209,0,90,3.0,3,2.0501280178652132e-08
4.71,0.019500507867137046,77.50000054464309,0,90,3.0,3,1.1229754354363397e-08
4.715,0.03679496976339974,77.50000029507699,0,90,3.0,3,6.084061584429552e-09
4.72,0.06340728953298436,77.50000015812218,0,90,3.0,3,3.2602510656811926e-09
4.725,0.09979255396093453,77.50000008380778,0,90,3.0,3,1.727995396256879e-09
4.73,0.14343835518453557,77.50000004393492,0,90,3.0,3,9.058745964119732e-10
4.735,0.18829581417209276,77.50000002278082,0,90,3.0,3,4.697077183101503e-10
4.74,0.2257481735193119,77.50000001168324,0,90,3.0,3,2.408915678614969e-10
4.745,0.24718154073554727,77.5000000059264,0,90,3.0,3,1.221937190607183e-10
4.75,0.24718154074102772,77.5000000029734,0,90,3.0,3,6.130709227795003e-11
4.755,0.22574817354072055,77.50000000147553,0,90,3.0,3,3.0423242390394625e-11
4.76,0.18829581422840957,77.50000000072423,0,90,3.0,3,1.4932531728883294e-11
4.765,0.14343835532456656,77.50000000035159,0,90,3.0,3,7.249293948635315e-12
4.77,0.09979255431561854,77.50000000016882,0,90,3.0,3,3.4809268869402023e-12
4.775,0.06340729067170194,77.50000000008018,0,90,3.0,3,1.6531472639828805e-12
4.78,0.03679497683410042,77.50000000003766,0,90,3.0,3,7.764693813460888e-13
4.785,0.019500578284482293,77.5000000000175,0,90,3.0,3,3.606920031837869e-13
4.79,0.009439396781978427,77.50000000000804,0,90,3.0,3,1.6584213956297595e-13
4.795,0.004178588733610924,77.50000000000365,0,90,3.0,3,7.530287962488484e-14
4.8,0.0017299316936037381,77.50000000000165,0,90,3.0,3,3.3988848390998606e-14
4.805,0.0008997325756988589,77.50000000000072,0,90,3.0,3,1.4943372999490767e-14
4.81,0.001634769674224814,77.50000000000033,0,90,3.0,3,6.73916821545662e-15
4.815,0.00614904736476635,77.50000000000014,0,90,3.0,3,2.930073137155052e-15
4.82,0.02168080359963608,77.50000000000006,0,90,3.0,4,1.172029254862021e-15
4.825,0.06433400338904088,77.50000000000003,0,90,3.0,4,5.860146274310105e-16
4.83,0.1593410769217493,77.50000000000001,0,90,3.0,4,2.9300731371550523e-16
4.835,0.3291989194808569,77.5,0,90,3.0,4,0.0
4.84,0.5672906802982638,77.5,0,90,3.0,4,0.0
4.845,0.815339152120446,77.5,0,90,3.0,4,0.0
4.85,0.9768711246313155,77.50000285825222,1,90,3.0,4,5.8933035386440475e-08
4.855,0.9726380909165361,77.50000594036287,0,90,3.0,4,1.224817086241864e-07
4.86,0.7921091683291741,77.50001337402189,0,90,3.0,4,2.757530286586545e-07
4.865,0.49139090102639077,77.50003411114669,0,90,3.0,4,7.033226121545818e-07
4.87,0.15739335672107918,77.50009905101307,0,90,3.0,4,2.0422889292017928e-06
4.875,-0.11102342218909485,77.50031282604864,0,90,3.0,4,6.450021621485013e-06
4.88,-0.2314207883647528,77.50101180394222,0,90,3.0,4,2.0861936952980576e-05
4.885,-0.2029124434754801,77.50320628067372,0,90,3.0,4,6.610887987057675e-05
4.89,-0.11151350554305876,77.5097083342598,0,90,3.0,4,0.0002001718404082131
4.895,-0.039430666652076896,77.52773550414375,0,90,3.0,4,0.0005718660648195631
4.9,-0.006087703519843621,77.57430149812981,0,90,3.0,4,0.0015319896521610954
4.905,0.005350271385530551,77.68608776188607,0,90,3.0,4,0.0038368610698159018
4.91,0.010381647827441833,77.93505151613147,0,90,3.0,4,0.008970134353226106
4.915,0.015115203303506243,78.44869900131016,0,90,3.0,4,0.019560804150724958
4.92,0.021170964062928475,79.42886553050614,0,90,3.0,4,0.03977042330940503
4.925,0.029082821134029553,81.15564224728983,0,90,3.0,4,0.07537406695442955
4.93,0.03923107061708144,83.95743100629066,0,90,3.0,4,0.1331429073461992
4.935,0.051969043308817596,88.13067751083202,0,90,3.0,4,0.21918922702746424
4.94,0.06760532616283861,93.80996484958598,0,90,3.0,4,0.3362879350430099
4.945,0.08636519236693461,100.82021919530587,0,90,3.0,4,0.48082926175888385
4.95,0.10834733138818661,108.5746424352862,0,90,3.0,4,0.6407142770162102
4.955,0.1334809643017884,116.09149675272828,0,90,3.0,4,0.7957009639737789
4.96,0.16148868344343945,122.1708699381281,0,90,3.0,4,0.9210488647036723
4.965,0.191860907532018,125.70242168485359,0,90,3.0,4,0.9938643646361565
4.97,0.22384764873847726,126.0,0,90,3.0,4,1.0
4.975,0.25647215537198226,123.02595539656775,0,90,3.0,4,0.9386794927127372
4.98,0.2885689161419028,117.40540703112458,0,90,3.0,4,0.8227918975489604
4.985,0.31884566517832524,110.22390458902505,0,90,3.0,4,0.6747196822479392
4.99,0.3459657668955683,102.6988702200439,0,90,3.0,4,0.5195643344338948
4.995,0.3686441789190902,95.86131478539745,0,90,3.0,4,0.3785838100081949
5.0,0.3857476379544367,90.35920588711383,0,90,3.0,4,0.2651382657136872
5.005,0.3963882865005728,86.42147190082585,0,90,3.0,4,0.18394787424383197
5.01,0.4,83.94856219402728,0,90,3.0,4,0.13296004523767577
5.015,0.39638828650057273,82.65797428518042,0,90,3.0,4,0.10634998526145187
5.02,0.38574763795443656,82.2182852697095,0,90,3.0,4,0.09728423236514427
5.025,0.36864417891908974,82.33567972165656,0,90,3.0,4,0.09970473652900126
5.03,0.345965766895568,82.78912793599538,0,90,3.0,4,0.10905418424732745
5.035,0.3188456651783249,83.42948059532878,0,90,3.0,4,0.12225733186244914
5.04,0.28856891614190205,84.16183548499009,0,90,3.0,4,0.13735743268020809
5.045,0.2564721553719815,84.9254687356599,0,90,3.0,4,0.1531024481579362
5.05,0.22384764873847685,85.67831436291021,0,90,3.0,4,0.16862503841051987
5.055,0.19186090753201765,86.38751009403914,0,90,3.0,4,0.18324763080493078
5.06,0.16148868344343878,87.02485660821559,0,90,3.0,4,0.19638879604568218
5.065,0.1334809643017881,87.56539713454409,0,90,3.0,4,0.20753396153699144
5.07,0.10834733138818531,87.98762906708204,0,90,3.0,4,0.2162397745790111
5.075,0.08636519236690572,88.2743731604016,0,90,3.0,4,0.22215202392580607
5.08,0.06760532616242629,88.41373774873865,0,90,3.0,4,0.22502552059254957
5.085,0.05196904332202373,88.39987340594568,0,90,3.0,4,0.2247396578545502
5.09,0.03923107185803287,88.23336128795665,0,90,3.0,4,0.22130641830838463
5.095,0.02908287038705761,87.9211675222714,0,90,3.0,4,0.21486943344889492
5.1,0.02117220077308346,87.4761584369445,0,90,3.0,4,0.2056939883906083
5.105,0.0151361834125735,86.91622069331245,0,90,3.0,4,0.19414888027448357
5.11,0.010626454858290009,86.26306937829109,0,90,3.0,4,0.18068184285136274
5.115,0.007326255555493652,85.54085446501574,0,90,3.0,4,0.16579081371166476
5.12,0.004960179211183015,84.77468987273289,0,90,3.0,4,0.14999360562335862
5.125,0.0032978759379303545,83.98922893361755,0,90,3.0,4,0.133798534713764
5.13,0.002153242296767213,83.20739642000936,0,90,3.0,4,0.11767827670122391
5.135,0.001380616732225004,82.44936304617364,0,90,3.0,4,0.10204872260151844
5.14,0.0008693106590991584,81.73181734819437,0,90,3.0,4,0.08725396594215193
5.145,0.000537524815942247,81.06755640391896,0,90,3.0,4,0.073557863998329
5.15,0.0003263951340288585,80.46538517467127,0,90,3.0,4,0.06114196236435606
5.155,0.00019463030985187395,79.93028779670026,0,90,3.0,4,0.05010902673608775
5.16,0.00011397219555062695,79.46381526096127,0,90,3.0,4,0.04049103630847977
5.165,6.55403863487943e-05,79.06462363170958,0,90,3.0,4,0.032260281066176906
5.17,3.701184389455385e-05,78.72909505266246,0,90,3.0,4,0.025342166034277493
5.175,2.0525516217290957e-05,78.45197903888902,0,90,3.0,4,0.019628433791526217
5.18,1.1178128483661116e-05,78.22700204374355,0,90,3.0,4,0.014989732860691822
5.185,5.978135409912517e-06,78.04740682497273,0,90,3.0,4,0.01128673865923145
5.19,3.1396702713238487e-06,77.90639758097078,0,90,3.0,4,0.008379331566407744
5.195,1.6192875458531019e-06,77.79748039597577,0,90,3.0,4,0.006133616411871504
5.2,8.201353897972012e-07,77.71469993745711,0,90,3.0,4,0.004426802834167265
5.205,4.0791415086824765e-07,77.6527818678595,0,90,3.0,4,0.003150141605350568
5.21,1.9923866938774793e-07,77.60719586742373,0,90,3.0,4,0.0022102240705923
5.215,9.556527981051257e-08,77.5741567351036,0,90,3.0,4,0.0015290048474969002
5.22,4.501406988770349e-08,77.5505812420148,0,90,3.0,4,0.0010429122064907301
5.225,0.0,77.534016898,0,90,3.0,4,0.0007013793402062764
5.23,0.0,77.5225562166196,0,90,3.0,4,0.0004650766313320744
5.235,0.0,77.5147470154736,0,90,3.0,4,0.0003040621747134575
5.24,0.0,77.50950623060861,0,90,3.0,4,0.00019600475481665525
5.245,0.0,77.50604197446326,0,90,3.0,4,0.00012457679305687155
5.25,0.0,77.50378630640013,0,90,3.0,4,7.806817319855673e-05
5.255,0.0,77.50233947794905,0,90,3.0,4,4.8236658743303216e-05
5.26,0.0,77.50142524158959,0,90,3.0,4,2.9386424527562676e-05
5.265,0.0,77.50085609970625,0,90,3.0,4,1.765154033514544e-05
5.27,0.0,77.50050702169113,0,90,3.0,4,1.045405548731801e-05
5.275,0.0,77.50029607044829,0,90,3.0,4,6.104545325483413e-06
5.28,0.0,77.500170462916,0,90,3.0,4,3.5146992990327638e-06
5.285,0.0,77.50009676785085,0,90,3.0,4,1.9952134195624316e-06
5.29,0.0,77.50005416248834,0,90,3.0,4,1.1167523369004277e-06
5.295,0.001684486749771458,77.50002989044987,0,90,3.0,4,6.162979353885208e-07
5.3,0.004172395771277602,77.50001626419696,0,90,3.0,4,3.353442671774134e-07
5.305,0.009438687428818865,77.50000872567692,0,90,3.0,4,1.7991086434149204e-07
5.31,0.019500507867137046,77.50000461564036,0,90,3.0,4,9.516784255950923e-08
5.315,0.03679496976339974,77.50000240730505,0,90,3.0,4,4.963515560533422e-08
5.32,0.06340728953298436,77.50000123793151,0,90,3.0,4,2.5524361108088584e-08
5.325,0.09979255396093453,77.50000062766577,0,90,3.0,4,1.2941562268566748e-08
5.33,0.14343835518453557,77.50000031378097,0,90,3.0,4,6.469710778566371e-09
5.335,0.18829581417209276,77.50000015466466,0,90,3.0,4,3.1889620932468966e-09
5.34,0.2257481735193119,77.50000007516608,0,90,3.0,4,1.5498161837499115e-09
5.345,0.24718154073554727,77.50000003601795,0,90,3.0,4,7.426381708898692e-10
5.35,0.24718154074102772,77.50000001701699,0,90,3.0,4,3.5086570991102377e-10
5.355,0.22574817354072055,77.50000000792706,0,90,3.0,4,1.6344446071484199e-10
5.36,0.18829581422840957,77.50000000364089,0,90,3.0,4,7.506993881048102e-11
5.365,0.14343835532456656,77.50000000164881,0,90,3.0,4,3.399617357384149e-11
5.37,0.09979255431561854,77.50000000073621,0,90,3.0,4,1.5179536894345465e-11
5.375,0.06340729067170194,77.5000000003241,0,90,3.0,4,6.682617803909528e-12
5.38,0.03679497683410042,77.50000000014069,0,90,3.0,4,2.900772405783502e-12
5.385,0.019500578284482293,77.50000000006021,0,90,3.0,4,1.2414719882125956e-12
5.39,0.009439396781978427,77.50000000002541,0,90,3.0,4,5.238970769233233e-13
5.395,0.004178588733610924,77.50000000001057,0,90,3.0,4,2.179974414043359e-13
5.4,0.0017299316936037381,77.50000000000433,0,90,3.0,4,8.936723068322909e-14
5.405,0.0008997325756988589,77.50000000000175,0,90,3.0,4,3.603989958700714e-14
5.41,0.001634769674224814,77.5000000000007,0,90,3.0,4,1.4357358372059756e-14
5.415,0.00614904736476635,77.50000000000027,0,90,3.0,4,5.567138960594599e-15
5.42,0.02168080359963608,77.5000000000001,0,90,3.0,4,2.0510511960085364e-15
5.425,0.06433400338904088,77.50000000000004,0,90,3.0,4,8.790219411465157e-16
5.43,0.1593410769217493,77.50000000000001,0,90,3.0,4,2.9300731371550523e-16
5.435,0.3291989194808569,77.5,0,90,3.0,4,0.0
5.44,0.5672906802982638,77.5,0,90,3.0,4,0.0
5.445,0.815339152120446,77.5,0,90,3.0,4,0.0
5.45,0.9768711246313155,77.50000285700571,1,90,3.0,4,5.890733424991792e-08
5.455,0.9726380909165361,77.5000055981037,0,90,3.0,4,1.1542481851411701e-07
5.46,0.7921091683291741,77.50001170193522,0,90,3.0,4,2.412770148805872e-07
5.465,0.49139090102639077,77.5000270882034,0,90,3.0,4,5.585196576478281e-07
5.47,0.15739335672107918,77.50007030382385,0,90,3.0,4,1.4495633782883385e-06
5.475,-0.11102342218909485,77.50019904185636,0,90,3.0,4,4.1039558012827685e-06
5.48,-0.2314207883647528,77.50058607134292,0,90,3.0,4,1.2083945214904703e-05
5.485,-0.2029124434754801,77.50172157287263,0,90,3.0,4,3.549634788918851e-05
5.49,-0.11151350554305876,77.50491227303426,0,90,3.0,4,0.00010128398008792904
5.495,-0.039430666652076896,77.51341548520728,0,90,3.0,4,0.00027660794241804996
5.5,-0.006087703519843621,77.53479767151332,0,90,3.0,4,0.0007174777631611781
5.505,0.005350271385530551,77.58538694566,0,90,3.0,4,0.001760555580618663
5.51,0.010381647827441833,77.69780421918405,0,90,3.0,4,0.004078437508949487
5.515,0.015115203303506243,77.93212374321509,0,90,3.0,4,0.008909767901341991
5.52,0.021170964062928475,78.38971621807644,0,90,3.0,4,0.018344664290235957
5.525,0.029082821134029553,79.22592550239746,0,90,3.0,4,0.035586092832937295
5.53,0.03923107061708144,80.65382694330745,0,90,3.0,4,0.06502735965582372
5.535,0.051969043308817596,82.92814688244911,0,90,3.0,4,0.1119205542773013
5.54,0.06760532616283861,86.29905479142072,0,90,3.0,4,0.1814238101323859
5.545,0.08636519236693461,90.93310591840898,0,90,3.0,4,0.27697125604966977
5.55,0.10834733138818661,96.81375736041753,0,90,3.0,4,0.3982218012457222
5.555,0.1334809643017884,103.65218979533569,0,90,3.0,4,0.5392204081512513
5.56,0.16148868344343945,110.85098906485283,0,90,3.0,4,0.6876492590691304
5.565,0.191860907532018,117.55776115670236,0,90,3.0,4,0.8259332197258218
5.57,0.22384764873847726,122.81835656489098,0,90,3.0,4,0.9343991044307418
5.575,0.25647215537198226,125.79775358536652,0,90,3.0,4,0.9958299708322994
5.58,0.2885689161419028,126.0,0,90,3.0,4,1.0
5.585,0.31884566517832524,123.40809829602208,0,90,3.0,4,0.9465587277530325
5.59,0.3459657668955683,118.49003065599916,0,90,3.0,4,0.8451552712577147
5.595,0.3686441789190902,112.06852813875727,0,90,3.0,4,0.71275315750015
5.6,0.3857476379544367,105.10477932098621,0,90,3.0,4,0.5691707076492002
5.605,0.3963882865005728,98.47443100842273,0,90,3.0,4,0.4324624950190253
5.61,0.4,92.8066072912793,0,90,3.0,4,0.3156001503356558
5.615,0.39638828650057273,88.42148372327156,0,90,3.0,4,0.2251852314076611
5.62,0.38574763795443656,85.35990241659837,0,90,3.0,4,0.16205984364120357
5.625,0.36864417891908974,83.46944358620377,0,90,3.0,4,0.12308131105574777
5.63,0.345965766895568,82.50409108932574,0,90,3.0,4,0.1031771358623864
5.635,0.3188456651783249,82.20538889595129,0,90,3.0,4,0.09701832775157294
5.64,0.28856891614190205,82.35118221387862,0,90,3.0,4,0.10002437554388899
5.645,0.2564721553719815,82.77370137387766,0,90,3.0,4,0.10873611080160117
5.65,0.22384764873847685,83.35697885227354,0,90,3.0,4,0.12076245056234107
5.655,0.19186090753201765,84.0246919330554,0,90,3.0,4,0.13452973057846174
5.66,0.16148868344343878,84.72653191551647,0,90,3.0,4,0.1490006580518861
5.665,0.1334809643017881,85.42725699479512,0,90,3.0,4,0.16344859783082713
5.67,0.10834733138818531,86.09955203844497,0,90,3.0,4,0.17731035130814368
5.675,0.08636519236690572,86.72019234262434,0,90,3.0,4,0.1901070586108112
5.68,0.06760532616242629,87.26848870696234,0,90,3.0,4,0.20141213828788337
5.685,0.05196904332202373,87.72606423286395,0,90,3.0,4,0.21084668521368966
5.69,0.03923107185803287,88.07728034294114,0,90,3.0,4,0.2180882544936317
5.695,0.02908287038705761,88.30988433026353,0,90,3.0,4,0.22288421299512431
5.7,0.02117220077308346,88.41562988670005,0,90,3.0,4,0.2250645337463927
5.705,0.0151361834125735,88.39073171494468,0,90,3.0,4,0.22455116938030265
5.71,0.010626454858290009,88.23608061227844,0,90,3.0,4,0.2213624868511019
5.715,0.007326255555493652,87.95718762032197,0,90,3.0,4,0.2156121158829273
5.72,0.004960179211183015,87.56385719193653,0,90,3.0,4,0.20750221014302134
5.725,0.0032978759379303545,87.06961485035202,0,90,3.0,4,0.19731164639901083
5.73,0.002153242296767213,86.49093547163766,0,90,3.0,4,0.18538011281727124
5.735,0.001380616732225004,85.84633343081921,0,90,3.0,4,0.17208934908905596
5.74,0.0008693106590991584,85.15538449808108,0,90,3.0,4,0.15784297934187785
5.745,0.000537524815942247,84.43775108996621,0,90,3.0,4,0.14304641422610748
5.75,0.0003263951340288585,83.71227751571944,0,90,3.0,4,0.12808819620040074
5.755,0.00019463030985187395,82.99621117057644,0,90,3.0,4,0.11332394166136998
5.76,0.00011397219555062695,82.30459074772966,0,90,3.0,4,0.09906372675731262
5.765,6.55403863487943e-05,81.64982534565863,0,90,3.0,4,0.08556340918883767
5.77,3.701184389455385e-05,81.04147079905813,0,90,3.0,4,0.0730200164754254
5.775,2.0525516217290957e-05,80.4861934573874,0,90,3.0,4,0.06157099912138971
5.78,1.1178128483661116e-05,79.98789840738041,0,90,3.0,4,0.05129687437897759
5.785,5.978135409912517e-06,79.54798972143004,0,90,3.0,4,0.04222659219443386
5.79,3.1396702713238487e-06,79.1657251050575,0,90,3.0,4,0.03434484752695885
5.795,1.6192875458531019e-06,78.83862619104653,0,90,3.0,4,0.027600540021577923
5.8,8.201353897972012e-07,78.5629081394647,0,90,3.0,4,0.021915631741540122
5.805,4.0791415086824765e-07,78.33389731528789,0,90,3.0,4,0.017193759078100723
5.81,1.9923866938774793e-07,78.14641264967727,0,90,3.0,4,0.013328095869634505
5.815,9.556527981051257e-08,77.9950938659425,0,90,3.0,4,0.010208120947267908
5.82,4.501406988770349e-08,77.87466719823882,0,90,3.0,4,0.007725096870903608
5.825,0.0,77.78014587226397,0,90,3.0,4,0.00577620355183448
5.83,0.0,77.7069680038797,0,90,3.0,4,0.004267381523292672
5.835,0.0,77.651078485453,0,90,3.0,4,0.0031150203186185305
5.84,0.0,77.6089638555516,0,90,3.0,4,0.0022466774340534693
5.845,0.0,77.57765022693218,0,90,3.0,4,0.0016010356068490341
5.85,0.0,77.55467432434818,0,90,3.0,4,0.0011273056566635917
5.855,0.0,77.53803685039938,0,90,3.0,4,0.0007842649566882334
5.86,0.0,77.52614605077103,0,90,3.0,4,0.0005390938303305668
5.865,0.0,77.5177577558228,0,90,3.0,4,0.0003661392953154532
5.87,0.0,77.51191654857978,0,90,3.0,4,0.000245702032572712
5.875,0.0,77.507901204888,0,90,3.0,4,0.0001629114409896965
5.88,0.0,77.5051762660216,0,90,3.0,4,0.00010672713446612442
5.885,0.0,77.50335058222204,0,90,3.0,4,6.908416952660915e-05
5.89,0.0,77.50214291231161,0,90,3.0,4,4.4183759002311787e-05
5.895,0.0,77.50135415677913,0,90,3.0,4,2.792075833256313e-05
5.9,0.0,77.50084550060859,0,90,3.0,4,1.7433002238989895e-05
5.905,0.0,77.50052160209725,0,90,3.0,4,1.075468241754972e-05
5.91,0.0,77.50031793999378,0,90,3.0,4,6.555463789233549e-06
5.915,0.0,77.50019148352861,0,90,3.0,4,3.948113991960669e-06
5.92,0.0,77.50011394574456,0,90,3.0,4,2.3493967950292517e-06
5.925,0.0,77.50006699543745,0,90,3.0,4,1.381349225776202e-06
5.93,0.0,77.50003891999467,0,90,3.0,4,8.024741168107361e-07
5.935,0.0,77.50002233987531,0,90,3.0,4,4.6061598587565985e-07
5.94,0.0,77.5000126697821,0,90,3.0,4,2.6123262050673147e-07
5.945,0.001684486749771458,77.50000709966693,0,90,3.0,4,1.4638488517110878e-07
5.95,0.004172395771277602,77.50000393085688,0,90,3.0,4,8.104859540891112e-08
5.955,0.009438687428818865,77.50000215038844,0,90,3.0,4,4.433790597441029e-08
5.96,0.019500507867137046,77.50000116232353,0,90,3.0,4,2.3965433568911375e-08
5.965,0.03679496976339974,77.50000062075121,0,90,3.0,4,1.2798993992939508e-08
5.97,0.06340728953298436,77.50000032755825,0,90,3.0,4,6.7537784391404165e-09
5.975,0.09979255396093453,77.50000017078115,0,90,3.0,4,3.52126080870971e-09
5.98,0.14343835518453557,77.50000008797753,0,90,3.0,4,1.8139696022472824e-09
5.985,0.18829581417209276,77.50000004478,0,90,3.0,4,9.232988623366931e-10
5.99,0.2257481735193119,77.50000002252042,0,90,3.0,4,4.6433865229362745e-10
5.995,0.24718154073554727,77.50000001119051,0,90,3.0,4,2.3073212527303918e-10
6.0,0.24718154074102772,77.50000000549419,0,90,3.0,4,1.1328219462137492e-10
6.005,0.22574817354072055,77.50000000266525,0,90,3.0,4,5.495352168734301e-11
6.01,0.18829581422840957,77.50000000127747,0,90,3.0,4,2.6339599459141628e-11
6.015,0.14343835532456656,77.50000000060498,0,90,3.0,4,1.247390735949649e-11
6.02,0.09979255431561854,77.5000000002831,0,90,3.0,4,5.83699869652658e-12
6.025,0.06340729067170194,77.50000000013088,0,90,3.0,5,2.698597359319803e-12
6.03,0.03679497683410042,77.50000000005979,0,90,3.0,5,1.2326817688011305e-12
6.035,0.019500578284482293,77.50000000002699,0,90,3.0,5,5.564208887457445e-13
6.04,0.009439396781978427,77.50000000001204,0,90,3.0,5,2.481771947170329e-13
6.045,0.004178588733610924,77.5000000000053,0,90,3.0,5,1.0929172801588345e-13
6.05,0.0017299316936037381,77.5000000000023,0,90,3.0,5,4.746718482191185e-14
6.055,0.0008997325756988589,77.500000000001,0,90,3.0,5,2.0510511960085366e-14
6.06,0.001634769674224814,77.50000000000043,0,90,3.0,5,8.790219411465157e-15
6.065,0.00614904736476635,77.50000000000017,0,90,3.0,5,3.516087764586063e-15
6.07,0.02168080359963608,77.50000000000007,0,90,3.0,5,1.465036568577526e-15
6.075,0.06433400338904088,77.50000000000003,0,90,3.0,5,5.860146274310105e-16
6.08,0.1593410769217493,77.50000000000001,0,90,3.0,5,2.9300731371550523e-16
6.085,0.3291989194808569,77.5,0,90,3.0,5,0.0
6.09,0.5672906802982638,77.5,0,90,3.0,5,0.0
6.095,0.815339152120446,77.5,0,90,3.0,5,0.0
6.1,0.9768711246313155,77.50000285188469,1,90,3.0,5,5.88017461343474e-08
6.105,0.9726380909165361,77.500005472104,0,90,3.0,5,1.1282688645449e-07
6.11,0.7921091683291741,77.50001114553572,0,90,3.0,5,2.2980486026370402e-07
6.115,0.49139090102639077,77.50002494746741,0,90,3.0,5,5.143807713241201e-07
6.12,0.15739335672107918,77.50006223014493,0,90,3.0,5,1.283095771835169e-06
6.125,-0.11102342218909485,77.5001692753466,0,90,3.0,5,3.4902133318178834e-06
6.13,-0.2314207883647528,77.50048103204684,0,90,3.0,5,9.918186532683284e-06
6.135,-0.2029124434754801,77.50137207546508,0,90,3.0,5,2.8290215774943847e-05
6.14,-0.11151350554305876,77.50382388761822,0,90,3.0,5,7.884304367473877e-05
6.145,-0.039430666652076896,77.51025255192553,0,90,3.0,5,0.00021139282320685189
6.15,-0.006087703519843621,77.52622730260188,0,90,3.0,5,0.0005407691258119953
6.155,0.005350271385530551,77.56373480349473,0,90,3.0,5,0.0013141196596850547
6.16,0.010381647827441833,77.64679192528084,0,90,3.0,5,0.0030266376346564368
6.165,0.015115203303506243,77.82003264790949,0,90,3.0,5,0.006598611297102794
6.17,0.021170964062928475,78.16002289075324,0,90,3.0,5,0.013608719396974014
6.175,0.029082821134029553,78.78715565839514,0,90,3.0,5,0.026539291925672906
6.18,0.03923107061708144,79.87309703665223,0,90,3.0,5,0.04892983580726239
6.185,0.051969043308817596,81.6357728352696,0,90,3.0,5,0.08527366670658981
6.19,0.06760532616283861,84.31274116702575,0,90,3.0,5,0.14046889004176802
6.195,0.08636519236693461,88.10699478553131,0,90,3.0,5,0.21870092341301678
6.2,0.10834733138818661,93.10840244452054,0,90,3.0,5,0.3218227308148564
6.205,0.1334809643017884,99.20787973600085,0,90,3.0,5,0.44758514919589376
6.21,0.16148868344343945,106.03465479272373,0,90,3.0,5,0.5883433977881181
6.215,0.191860907532018,112.95149073900936,0,90,3.0,5,0.7309585719383372
6.22,0.22384764873847726,119.13158563547512,0,90,3.0,5,0.8583832089788684
6.225,0.25647215537198226,123.71388588995438,0,90,3.0,5,0.9528636265969976
6.23,0.2885689161419028,126.0,0,90,3.0,5,1.0
6.235,0.31884566517832524,125.63168033832994,0,90,3.0,5,0.9924057801717514
6.24,0.3459657668955683,122.68717513676035,0,90,3.0,5,0.9316943327167081
6.245,0.3686441789190902,117.66114684156429,0,90,3.0,5,0.8280648833312224
6.25,0.3857476379544367,111.33557350136091,0,90,3.0,5,0.6976406907497096
6.255,0.3963882865005728,104.5882963007817,0,90,3.0,5,0.5585215732119939
6.26,0.4,98.20380090084146,0,90,3.0,5,0.4268824928008548
6.265,0.39638828650057273,92.74127363349305,0,90,3.0,5,0.31425306460810415
6.27,0.38574763795443656,88.48579720411917,0,90,3.0,5,0.22651128255915806
6.275,0.36864417891908974,85.47562070635212,0,90,3.0,5,0.16444578775983748
6.28,0.345965766895568,83.57616312899322,0,90,3.0,5,0.1252817139998601
6.285,0.3188456651783249,82.5659171942369,0,90,3.0,5,0.10445190091210109
6.29,0.28856891614190205,82.2077740060747,0,90,3.0,5,0.09706750527989073
6.295,0.2564721553719815,82.29359471173308,0,90,3.0,5,0.09883700436563048
6.3,0.22384764873847685,82.66255827345258,0,90,3.0,5,0.10644450048355825
6.305,0.19186090753201765,83.20095515387028,0,90,3.0,5,0.11754546709010891
6.31,0.16148868344343878,83.83258540626372,0,90,3.0,5,0.13056877126316943
6.315,0.1334809643017881,84.50688720883298,0,90,3.0,5,0.1444719012130511
6.32,0.10834733138818531,85.18879930614817,0,90,3.0,5,0.1585319444566633
6.325,0.08636519236690572,85.85174343024126,0,90,3.0,5,0.1722008954688919
6.33,0.06760532616242629,86.47356190947447,0,90,3.0,5,0.1850218950407107
6.335,0.05196904332202373,87.0346351717773,0,90,3.0,5,0.19659041591293394
6.34,0.03923107185803287,87.51735949791845,0,90,3.0,5,0.20654349480244225
6.345,0.02908287038705761,87.90635065364523,0,90,3.0,5,0.2145639310029945
6.35,0.02117220077308346,88.1889541011337,0,90,3.0,5,0.22039080620894233
6.355,0.0151361834125735,88.35580849564253,0,90,3.0,5,0.22383110300293885
6.36,0.010626454858290009,88.4013164549309,0,90,3.0,5,0.22476941144187437
6.365,0.007326255555493652,88.32394120303454,0,90,3.0,5,0.2231740454233925
6.37,0.004960179211183015,88.12628788072502,0,90,3.0,5,0.21909871919020651
6.375,0.0032978759379303545,87.8149564468404,0,90,3.0,5,0.21267951436784327
6.38,0.002153242296767213,87.40017534035806,0,90,3.0,5,0.20412732660532085
6.385,0.001380616732225004,86.89524350085946,0,90,3.0,5,0.1937163608424632
6.39,0.0008693106590991584,86.31582296936395,0,90,3.0,5,0.18176954576008145
6.395,0.000537524815942247,85.67913444059066,0,90,3.0,5,0.16864194722867337
6.4,0.0003263951340288585,85.00311320618148,0,90,3.0,5,0.15470336507590685
6.405,0.00019463030985187395,84.3055827268295,0,90,3.0,5,0.1403212933366907
6.41,0.00011397219555062695,83.60349793607864,0,90,3.0,5,0.12584531826966266
6.415,6.55403863487943e-05,82.91230113964602,0,90,3.0,5,0.11159383793084575
6.42,3.701184389455385e-05,82.24542123587032,0,90,3.0,5,0.09784373682206855
6.425,2.0525516217290957e-05,81.613933357956,0,90,3.0,5,0.08482336820527836
6.43,1.1178128483661116e-05,81.0263823663777,0,90,3.0,5,0.07270891477067429
6.435,5.978135409912517e-06,80.48876119719017,0,90,3.0,5,0.06162394221010664
6.44,3.1396702713238487e-06,80.00462491990231,0,90,3.0,5,0.05164175092582087
6.445,1.6192875458531019e-06,79.57531413717051,0,90,3.0,5,0.042789982209701205
6.45,8.201353897972012e-07,79.20025733794617,0,90,3.0,5,0.035056852328787
6.455,4.0791415086824765e-07,78.8773208986497,0,90,3.0,5,0.028398369044323704
6.46,1.9923866938774793e-07,78.60317721354771,0,90,3.0,5,0.02274592192881876
6.465,9.556527981051257e-08,78.37366531514834,0,90,3.0,5,0.01801371783811018
6.47,4.501406988770349e-08,78.18412359953327,0,90,3.0,5,0.014105641227490006
6.475,0.0,78.02968017202754,0,90,3.0,5,0.010921240660361643
6.48,0.0,77.90549221983429,0,90,3.0,5,0.008360664326480135
6.485,0.0,77.80693117491525,0,90,3.0,5,0.0063284778333041036
6.49,0.0,77.72971488846713,0,90,3.0,5,0.00473638945293049
6.495,0.0,77.66999140059843,0,90,3.0,5,0.003504977331926474
6.5,0.0,77.624381109498,0,90,3.0,5,0.002564558958721715
6.505,0.0,77.58998529958369,0,90,3.0,5,0.001855367001725527
6.51,0.0,77.56436923879633,0,90,3.0,5,0.001327200799924356
6.515,0.0,77.54552760933194,0,90,3.0,5,0.0009387135944730149
6.52,0.0,77.53183911478689,0,90,3.0,5,0.0006564765935441408
6.525,0.0,77.52201591751752,0,90,3.0,5,0.0004539364436602307
6.53,0.0,77.51505227902882,0,90,3.0,5,0.00031035626863550747
6.535,0.0,77.51017553839584,0,90,3.0,5,0.00020980491537818461
6.54,0.0,77.50680146081736,0,90,3.0,5,0.0001402363055125154
6.545,0.0,77.5044950721781,0,90,3.0,5,9.268190057942428e-05
6.55,0.0,77.50293738454126,0,90,3.0,5,6.056462971659852e-05
6.555,0.0,77.5018979055961,0,90,3.0,5,3.9132074146298636e-05
6.56,0.0,77.50121248974423,0,90,3.0,5,2.499978854089444e-05
6.565,0.0,77.50076589847964,0,90,3.0,5,1.5791721229734977e-05
6.57,0.0,77.50047835906365,0,90,3.0,5,9.863073477303842e-06
6.575,0.0,77.50029541087085,0,90,3.0,5,6.090945790679284e-06
6.58,0.0,77.50018038009229,0,90,3.0,5,3.7191771605897154e-06
6.585,0.0,77.50010890314022,0,90,3.0,5,2.2454255714627526e-06
6.59,0.0,77.5000650102546,0,90,3.0,5,1.3404176206560017e-06
6.595,0.0,77.50003837187288,0,90,3.0,5,7.911726366100336e-07
6.6,0.0,77.50002239410928,0,90,3.0,5,4.617342119555482e-07
6.605,0.0,77.500012922432,0,90,3.0,5,2.6644189703577083e-07
6.61,0.0,77.50000737300255,0,90,3.0,5,1.520206710571899e-07
6.615,0.001684486749771458,77.50000415943343,0,90,3.0,5,8.576151403242865e-08
6.62,0.004172395771277602,77.50000232013706,0,90,3.0,5,4.783787745772006e-08
6.625,0.009438687428818865,77.50000127962515,0,90,3.0,5,2.6384023763010605e-08
6.63,0.019500507867137046,77.50000069781701,0,90,3.0,5,1.4387979687394222e-08
6.635,0.03679496976339974,77.50000037626171,0,90,3.0,5,7.75797339771351e-09
6.64,0.06340728953298436,77.5000002005987,0,90,3.0,5,4.136055786523112e-09
6.645,0.09979255396093453,77.50000010574405,0,90,3.0,5,2.1802896899129167e-09
6.65,0.14343835518453557,77.50000005511545,0,90,3.0,5,1.1364010305507842e-09
6.655,0.18829581417209276,77.50000002840406,0,90,3.0,5,5.856507123473758e-10
6.66,0.2257481735193119,77.50000001447363,0,90,3.0,5,2.984253119534186e-10
6.665,0.24718154073554727,77.50000000729229,0,90,3.0,5,1.503564100257978e-10
6.67,0.24718154074102772,77.50000000363279,0,90,3.0,5,7.490292464166318e-11
6.675,0.22574817354072055,77.50000000178939,0,90,3.0,5,3.689460192111527e-11
6.68,0.18829581422840957,77.50000000087148,0,90,3.0,5,1.7968673513603357e-11
6.685,0.14343835532456656,77.50000000041966,0,90,3.0,5,8.652798981332584e-12
6.69,0.09979255431561854,77.50000000019982,0,90,3.0,5,4.119975838153719e-12
6.695,0.06340729067170194,77.50000000009408,0,90,3.0,5,1.9397084167966446e-12
6.7,0.03679497683410042,77.50000000004378,0,90,3.0,5,9.027555335574716e-13
6.705,0.019500578284482293,77.50000000002015,0,90,3.0,5,4.154843708485864e-13
6.71,0.009439396781978427,77.50000000000917,0,90,3.0,5,1.8898971734650088e-13
6.715,0.004178588733610924,77.50000000000412,0,90,3.0,5,8.497212097749652e-14
6.72,0.0017299316936037381,77.50000000000183,0,90,3.0,5,3.779794346930017e-14
6.725,0.0008997325756988589,77.50000000000081,0,90,3.0,5,1.67014168817838e-14
6.73,0.001634769674224814,77.50000000000036,0,90,3.0,5,7.32518284288763e-15
6.735,0.00614904736476635,77.50000000000016,0,90,3.0,5,3.2230804508705575e-15
6.74,0.02168080359963608,77.50000000000006,0,90,3.0,5,1.172029254862021e-15
6.745,0.06433400338904088,77.50000000000003,0,90,3.0,5,5.860146274310105e-16
6.75,0.1593410769217493,77.50000000000001,0,90,3.0,5,2.9300731371550523e-16
6.755,0.3291989194808569,77.5,0,90,3.0,5,0.0
6.76,0.5672906802982638,77.5,0,90,3.0,5,0.0
6.765,0.815339152120446,77.5,0,90,3.0,5,0.0
6.77,0.9768711246313155,77.50000284866415,1,90,3.0,5,5.873534335187662e-08
6.775,0.9726380909165361,77.5000051058168,0,90,3.0,5,1.0527457313222953e-07
6.78,0.7921091683291741,77.50000957430125,0,90,3.0,5,1.9740827309592016e-07
6.785,0.49139090102639077,77.5000192818472,0,90,3.0,5,3.975638598261604e-07
6.79,0.15739335672107918,77.50004238154852,0,90,3.0,5,8.738463613375756e-07
6.795,-0.11102342218909485,77.50010098393257,0,90,3.0,5,2.0821429395662974e-06
6.8,-0.2314207883647528,77.50025390098935,0,90,3.0,5,5.235071945353224e-06
6.805,-0.2029124434754801,77.50065223244145,0,90,3.0,5,1.344809157635656e-05
6.81,-0.11151350554305876,77.50166776507878,0,90,3.0,5,3.438690884079208e-05
6.815,-0.039430666652076896,77.50417234055165,0,90,3.0,5,8.602764024016155e-05
6.82,-0.006087703519843621,77.510108421842,0,90,3.0,5,0.00020842106890733104
6.825,0.005350271385530551,77.52357843699788,0,90,3.0,5,0.00048615334016247844
6.83,0.010381647827441833,77.55277848453393,0,90,3.0,5,0.001088216175957344
6.835,0.015115203303506243,77.61316496400357,0,90,3.0,5,0.002333298226877799
6.84,0.021170964062928475,77.73218082230103,0,90,3.0,5,0.004787233449505819
6.845,0.029082821134029553,77.95555095968672,0,90,3.0,5,0.009392803292509654
6.85,0.03923107061708144,78.35445356436101,0,90,3.0,5,0.017617599265175442
6.855,0.051969043308817596,79.03174778384424,0,90,3.0,5,0.031582428532870896
6.86,0.06760532616283861,80.1240736075666,0,90,3.0,5,0.054104610465290734
6.865,0.08636519236693461,81.79555386436334,0,90,3.0,5,0.08856812091470807
6.87,0.10834733138818661,84.21884563394231,0,90,3.0,5,0.13853289966891358
6.875,0.1334809643017884,87.54128128862234,0,90,3.0,5,0.20703672760046068
6.88,0.16148868344343945,91.83821872914966,0,90,3.0,5,0.2956333758587559
6.885,0.191860907532018,97.06185531965835,0,90,3.0,5,0.40333722308573916
6.89,0.22384764873847726,102.99968719500932,0,90,3.0,5,0.5257667462888519
6.895,0.25647215537198226,109.25960362410099,0,90,3.0,5,0.6548371881257936
6.9,0.2885689161419028,115.29561625128811,0,90,3.0,5,0.7792910567275899
6.905,0.31884566517832524,120.47858111676223,0,90,3.0,5,0.8861563116858191
6.91,0.3459657668955683,124.20209954602316,0,90,3.0,5,0.9629298875468694
6.915,0.3686441789190902,126.0,0,90,3.0,5,1.0
6.92,0.3857476379544367,125.64429828531888,0,90,3.0,5,0.9926659440271934
6.925,0.3963882865005728,123.19538595966438,0,90,3.0,5,0.9421729063848325
6.93,0.4,118.98936513146,0,90,3.0,5,0.8554508274527836
6.935,0.39638828650057273,113.56635473578643,0,90,3.0,5,0.7436361801193079
6.94,0.38574763795443656,107.56103062609117,0,90,3.0,5,0.619815064455488
6.945,0.36864417891908974,101.5861011068479,0,90,3.0,5,0.49662064137830736
6.95,0.345965766895568,96.13795660346761,0,90,3.0,5,0.3842877650199508
6.955,0.3188456651783249,91.54311810108527,0,90,3.0,5,0.2895488268265004
6.96,0.28856891614190205,87.94947025429984,0,90,3.0,5,0.21545299493401732
6.965,0.2564721553719815,85.35341671541337,0,90,3.0,5,0.16192611784357472
6.97,0.22384764873847685,83.646989167333,0,90,3.0,5,0.12674204468727843
6.975,0.19186090753201765,82.66846492619491,0,90,3.0,5,0.10656628713803948
6.98,0.16148868344343878,82.24444734995778,0,90,3.0,5,0.09782365670016044
6.985,0.1334809643017881,82.21768642245108,0,90,3.0,5,0.09727188499899135
6.99,0.10834733138818531,82.46052458609033,0,90,3.0,5,0.10227885744516144
6.995,0.08636519236690572,82.8773024464563,0,90,3.0,5,0.1108722153908515
7.0,0.06760532616242629,83.40018792324622,0,90,3.0,5,0.12165335924219013
7.005,0.05196904332202373,83.98236408595713,0,90,3.0,5,0.13365699146303361
7.01,0.03923107185803287,84.5912275051745,0,90,3.0,5,0.14621087639535055
7.015,0.02908287038705761,85.20293090826489,0,90,3.0,5,0.1588233176961833
7.02,0.02117220077308346,85.79863121407236,0,90,3.0,5,0.17110579822829605
7.025,0.0151361834125735,86.36225875809158,0,90,3.0,5,0.1827269847029193
7.03,0.010626454858290009,86.87941776141984,0,90,3.0,5,0.19339005693649164
7.035,0.007326255555493652,87.3370239424003,0,90,3.0,5,0.20282523592577925
7.04,0.004960179211183015,87.72336626402566,0,90,3.0,5,0.21079105699021972
7.045,0.0032978759379303545,88.0283749476411,0,90,3.0,5,0.2170798958276515
7.05,0.002153242296767213,88.24395573178634,0,90,3.0,5,0.22152486044920294
7.055,0.001380616732225004,88.3643042981417,0,90,3.0,5,0.22400627418848873
7.06,0.0008693106590991584,88.38614919940129,0,90,3.0,5,0.2244566845237379
7.065,0.000537524815942247,88.30889337910872,0,90,3.0,5,0.22286378101255103
7.07,0.0003263951340288585,88.13463907974494,0,90,3.0,5,0.21927090886072048
7.075,0.00019463030985187395,87.86809205042462,0,90,3.0,5,0.21377509382318807
7.08,0.00011397219555062695,87.51635015716049,0,90,3.0,5,0.20652268365279358
7.085,6.55403863487943e-05,87.08858930151122,0,90,3.0,5,0.19770287219610763
7.09,3.701184389455385e-05,86.59566592728085,0,90,3.0,5,0.18753950365527522
7.095,2.0525516217290957e-05,86.04966009546001,0,90,3.0,5,0.17628165145278377
7.1,1.1178128483661116e-05,85.46338590027543,0,90,3.0,5,0.1641935237170191
7.105,5.978135409912517e-06,84.84989676778528,0,90,3.0,5,0.15154426325330478
7.11,3.1396702713238487e-06,84.2220119679011,0,90,3.0,5,0.13859818490517725
7.115,1.6192875458531019e-06,83.59188768943814,0,90,3.0,5,0.12560593174099255
7.12,8.201353897972012e-07,82.97065162366658,0,90,3.0,5,0.11279694069415636
7.125,4.0791415086824765e-07,82.36811462175282,0,90,3.0,5,0.10037349735572833
7.13,1.9923866938774793e-07,81.79256713225858,0,90,3.0,5,0.08850653880945532
7.135,9.556527981051257e-08,81.25066228233223,0,90,3.0,5,0.07733324293468513
7.14,4.501406988770349e-08,80.74738208861933,0,90,3.0,5,0.06695633172410995
7.145,0.0,80.28607873446397,0,90,3.0,5,0.05744492236008186
7.15,0.0,79.86857938189709,0,90,3.0,5,0.048836688286537984
7.155,0.0,79.49534073235793,0,90,3.0,5,0.04114104602799858
7.16,0.0,79.16563852258219,0,90,3.0,5,0.03434306232128217
7.165,0.0,78.87777725057971,0,90,3.0,5,0.028407778362468283
7.17,0.0,78.62930649821172,0,90,3.0,5,0.023284670066221005
7.175,0.0,78.41723202445405,0,90,3.0,5,0.018912000504207247
7.18,0.0,78.23821209460424,0,90,3.0,5,0.015220867929984254
7.185,0.0,78.08873203469501,0,90,3.0,5,0.01213880483907244
7.19,0.0,77.96525253041911,0,90,3.0,5,0.00959283567874448
7.195,0.0,77.86432953928083,0,90,3.0,5,0.007511949263522293
7.2,0.0,77.78270571628579,0,90,3.0,5,0.005828983840944119
7.205,0.0,77.71737488236141,0,90,3.0,5,0.004481956337348699
7.21,0.0,77.66562225546049,0,90,3.0,5,0.003414891865164761
7.215,0.0,77.62504392401856,0,90,3.0,5,0.0025782252374959933
7.22,0.0,77.59354941106356,0,90,3.0,5,0.001928853836362125
7.225,0.0,77.56935121694374,0,90,3.0,5,0.001429921998840083
7.23,0.0,77.55094501323765,0,90,3.0,6,0.0010504126440752874
7.235,0.0,77.53708376644407,0,90,3.0,6,0.0007646137411148447
7.24,0.0,77.52674856940591,0,90,3.0,6,0.000551516894967225
7.245,0.0,77.51911841333184,0,90,3.0,6,0.00039419408931626234
7.25,0.0,77.51354059343424,0,90,3.0,6,0.00027918749348954564
7.255,0.0,77.509502942787,0,90,3.0,6,0.00019593696468030093
7.26,0.0,77.50660865522913,0,90,3.0,6,0.00013626093255937252
7.265,0.0,77.50455410082121,0,90,3.0,6,9.38989860043252e-05
7.27,0.0,77.50310975912758,0,90,3.0,6,6.411874489860575e-05
7.275,0.0,77.50210419229508,0,90,3.0,6,4.338540814595119e-05
7.28,0.0,77.5014108429276,0,90,3.0,6,2.908954489892485e-05
7.285,0.0,77.5009373601135,0,90,3.0,6,1.932701264941785e-05
7.29,0.0,77.5006171188869,0,90,3.0,6,1.2724100760686775e-05
7.295,0.0,77.50040259258478,0,90,3.0,6,8.30087803663999e-06
7.3,0.0,77.50026025391386,0,90,3.0,6,5.3660600796901395e-06
7.305,0.0,77.50016671064509,0,90,3.0,6,3.437332888444365e-06
7.31,0.0,77.50010581907459,0,90,3.0,6,2.181836589501866e-06
7.315,0.0,77.50006655782953,0,90,3.0,6,1.372326381998232e-06
7.32,0.0,77.50004148288069,0,90,3.0,6,8.553171276209056e-07
7.325,0.0,77.50002561965213,0,90,3.0,6,5.282402502036779e-07
7.33,0.0,77.50001567877452,0,90,3.0,6,3.232737013796705e-07
7.335,0.0,77.500009507921,0,90,3.0,6,1.9603960839086754e-07
7.34,0.0,77.50000571338617,0,90,3.0,6,1.1780177676404698e-07
7.345,0.0,77.50000340201449,0,90,3.0,6,7.014462856148515e-08
7.35,0.0,77.50000200730472,0,90,3.0,6,4.138772608937345e-08
7.355,0.0,77.50000117361327,0,90,3.0,6,2.419821176425609e-08
7.36,0.001684486749771458,77.50000067994108,0,90,3.0,6,1.4019403736420292e-08
7.365,0.004172395771277602,77.50000039034815,0,90,3.0,6,8.048415432397436e-09
7.37,0.009438687428818865,77.50000022205856,0,90,3.0,6,4.5785270099868375e-09
7.375,0.019500507867137046,77.50000012517496,0,90,3.0,6,2.5809270871682247e-09
7.38,0.03679496976339974,77.50000006992009,0,90,3.0,6,1.441651361862578e-09
7.385,0.06340728953298436,77.5000000387009,0,90,3.0,6,7.979567796901017e-10
7.39,0.09979255396093453,77.50000002122633,0,90,3.0,6,4.376562342774387e-10
7.395,0.14343835518453557,77.5000000115362,0,90,3.0,6,2.3785982118648256e-10
7.4,0.18829581417209276,77.50000000621277,0,90,3.0,6,1.2809840244671315e-10
7.405,0.2257481735193119,77.50000000331545,0,90,3.0,6,6.835977831908223e-11
7.41,0.24718154073554727,77.50000000175321,0,90,3.0,6,3.61486053003956e-11
7.415,0.24718154074102772,77.50000000091867,0,90,3.0,6,1.8941750802452552e-11
7.42,0.22574817354072055,77.500000000477,0,90,3.0,6,9.835083492174649e-12
7.425,0.18829581422840957,77.50000000024542,0,90,3.0,6,5.060236307866776e-12
7.43,0.14343835532456656,77.50000000012513,0,90,3.0,6,2.5799293972650234e-12
7.435,0.09979255431561854,77.50000000006321,0,90,3.0,6,1.3032965314065673e-12
7.44,0.06340729067170194,77.50000000003165,0,90,3.0,6,6.525272876444302e-13
7.445,0.03679497683410042,77.5000000000157,0,90,3.0,6,3.237730816556333e-13
7.45,0.019500578284482293,77.50000000000772,0,90,3.0,6,1.5910297134751933e-13
7.455,0.009439396781978427,77.50000000000375,0,90,3.0,6,7.735393082089338e-14
7.46,0.004178588733610924,77.50000000000182,0,90,3.0,6,3.750493615558467e-14
7.465,0.0017299316936037381,77.50000000000087,0,90,3.0,6,1.787344613664582e-14
7.47,0.0008997325756988589,77.50000000000041,0,90,3.0,6,8.497212097749651e-15
7.475,0.001634769674224814,77.5000000000002,0,90,3.0,6,4.102102392017073e-15
7.48,0.00614904736476635,77.50000000000009,0,90,3.0,6,1.7580438822930315e-15
7.485,0.02168080359963608,77.50000000000004,0,90,3.0,6,8.790219411465157e-16
7.49,0.06433400338904088,77.50000000000001,0,90,3.0,6,2.9300731371550523e-16
7.495,0.1593410769217493,77.50000000000001,0,90,3.0,6,2.9300731371550523e-16
7.5,0.3291989194808569,77.5,0,90,3.0,6,0.0
7.505,0.5672906802982638,77.5,0,90,3.0,6,0.0
7.51,0.815339152120446,77.5,0,90,3.0,6,0.0
7.515,0.9768711246313155,77.50000285825222,1,90,3.0,6,5.8933035386440475e-08
7.52,0.9726380909165361,77.50000594036287,0,90,3.0,6,1.224817086241864e-07
7.525,0.7921091683291741,77.50001337402189,0,90,3.0,6,2.757530286586545e-07
7.53,0.49139090102639077,77.50003411114669,0,90,3.0,6,7.033226121545818e-07
7.535,0.15739335672107918,77.50009905101307,0,90,3.0,6,2.0422889292017928e-06
7.54,-0.11102342218909485,77.50031282604864,0,90,3.0,6,6.450021621485013e-06
7.545,-0.2314207883647528,77.50101180394222,0,90,3.0,6,2.0861936952980576e-05
7.55,-0.2029124434754801,77.50320628067372,0,90,3.0,6,6.610887987057675e-05
7.555,-0.11151350554305876,77.5097083342598,0,90,3.0,6,0.0002001718404082131
7.56,-0.039430666652076896,77.52773550414375,0,90,3.0,6,0.0005718660648195631
7.565,-0.006087703519843621,77.57430149812981,0,90,3.0,6,0.0015319896521610954
7.57,0.005350271385530551,77.68608776188607,0,90,3.0,6,0.0038368610698159018
7.575,0.010381647827441833,77.93505151613147,0,90,3.0,6,0.008970134353226106
7.58,0.015115203303506243,78.44869900131016,0,90,3.0,6,0.019560804150724958
7.585,0.021170964062928475,79.42886553050614,0,90,3.0,6,0.03977042330940503
7.59,0.029082821134029553,81.15564224728983,0,90,3.0,6,0.07537406695442955
7.595,0.03923107061708144,83.95743100629066,0,90,3.0,6,0.1331429073461992
7.6,0.051969043308817596,88.13067751083202,0,90,3.0,6,0.21918922702746424
7.605,0.06760532616283861,93.80996484958598,0,90,3.0,6,0.3362879350430099
7.61,0.08636519236693461,100.82021919530587,0,90,3.0,6,0.48082926175888385
7.615,0.10834733138818661,108.5746424352862,0,90,3.0,6,0.6407142770162102
7.62,0.1334809643017884,116.09149675272828,0,90,3.0,6,0.7957009639737789
7.625,0.16148868344343945,122.1708699381281,0,90,3.0,6,0.9210488647036723
7.63,0.191860907532018,125.70242168485359,0,90,3.0,6,0.9938643646361565
7.635,0.22384764873847726,126.0,0,90,3.0,6,1.0
7.64,0.25647215537198226,123.02595539656775,0,90,3.0,6,0.9386794927127372
7.645,0.2885689161419028,117.40540703112458,0,90,3.0,6,0.8227918975489604
7.65,0.31884566517832524,110.22390458902505,0,90,3.0,6,0.6747196822479392
7.655,0.3459657668955683,102.6988702200439,0,90,3.0,6,0.5195643344338948
7.66,0.3686441789190902,95.86131478539745,0,90,3.0,6,0.3785838100081949
7.665,0.3857476379544367,90.35920588711383,0,90,3.0,6,0.2651382657136872
7.67,0.3963882865005728,86.42147190082585,0,90,3.0,6,0.18394787424383197
7.675,0.4,83.94856219402728,0,90,3.0,6,0.13296004523767577
7.68,0.39638828650057273,82.65797428518042,0,90,3.0,6,0.10634998526145187
7.685,0.38574763795443656,82.2182852697095,0,90,3.0,6,0.09728423236514427
7.69,0.36864417891908974,82.33567972165656,0,90,3.0,6,0.09970473652900126
7.695,0.345965766895568,82.78912793599538,0,90,3.0,6,0.10905418424732745
7.7,0.3188456651783249,83.42948059532878,0,90,3.0,6,0.12225733186244914
7.705,0.28856891614190205,84.16183548499009,0,90,3.0,6,0.13735743268020809
7.71,0.2564721553719815,84.9254687356599,0,90,3.0,6,0.1531024481579362
7.715,0.22384764873847685,85.67831436291021,0,90,3.0,6,0.16862503841051987
7.72,0.19186090753201765,86.38751009403914,0,90,3.0,6,0.18324763080493078
7.725,0.16148868344343878,87.02485660821559,0,90,3.0,6,0.19638879604568218
7.73,0.1334809643017881,87.56539713454409,0,90,3.0,6,0.20753396153699144
7.735,0.10834733138818531,87.98762906708204,0,90,3.0,6,0.2162397745790111
7.74,0.08636519236690572,88.2743731604016,0,90,3.0,6,0.22215202392580607
7.745,0.06760532616242629,88.41373774873865,0,90,3.0,6,0.22502552059254957
7.75,0.05196904332202373,88.39987340594568,0,90,3.0,6,0.2247396578545502
7.755,0.03923107185803287,88.23336128795665,0,90,3.0,6,0.22130641830838463
7.76,0.02908287038705761,87.9211675222714,0,90,3.0,6,0.21486943344889492
7.765,0.02117220077308346,87.4761584369445,0,90,3.0,6,0.2056939883906083
7.77,0.0151361834125735,86.91622069331245,0,90,3.0,6,0.19414888027448357
7.775,0.010626454858290009,86.26306937829109,0,90,3.0,6,0.18068184285136274
7.78,0.007326255555493652,85.54085446501574,0,90,3.0,6,0.16579081371166476
7.785,0.004960179211183015,84.77468987273289,0,90,3.0,6,0.14999360562335862
7.79,0.0032978759379303545,83.98922893361755,0,90,3.0,6,0.133798534713764
7.795,0.002153242296767213,83.20739642000936,0,90,3.0,6,0.11767827670122391
7.8,0.001380616732225004,82.44936304617364,0,90,3.0,6,0.10204872260151844
7.805,0.0008693106590991584,81.73181734819437,0,90,3.0,6,0.08725396594215193
7.81,0.000537524815942247,81.06755640391896,0,90,3.0,6,0.073557863998329
7.815,0.0003263951340288585,80.46538517467127,0,90,3.0,6,0.06114196236435606
7.82,0.00019463030985187395,79.93028779670026,0,90,3.0,6,0.05010902673608775
7.825,0.00011397219555062695,79.46381526096127,0,90,3.0,6,0.04049103630847977
7.83,6.55403863487943e-05,79.06462363170958,0,90,3.0,6,0.032260281066176906
7.835,3.701184389455385e-05,78.72909505266246,0,90,3.0,6,0.025342166034277493
7.84,2.0525516217290957e-05,78.45197903888902,0,90,3.0,6,0.019628433791526217
7.845,1.1178128483661116e-05,78.22700204374355,0,90,3.0,6,0.014989732860691822
7.85,5.978135409912517e-06,78.04740682497273,0,90,3.0,6,0.01128673865923145
7.855,3.1396702713238487e-06,77.90639758097078,0,90,3.0,6,0.008379331566407744
7.86,1.6192875458531019e-06,77.79748039597577,0,90,3.0,6,0.006133616411871504
7.865,8.201353897972012e-07,77.71469993745711,0,90,3.0,6,0.004426802834167265
7.87,4.0791415086824765e-07,77.6527818678595,0,90,3.0,6,0.003150141605350568
7.875,1.9923866938774793e-07,77.60719586742373,0,90,3.0,6,0.0022102240705923
7.88,9.556527981051257e-08,77.5741567351036,0,90,3.0,6,0.0015290048474969002
7.885,4.501406988770349e-08,77.5505812420148,0,90,3.0,6,0.0010429122064907301
7.89,0.0,77.534016898,0,90,3.0,6,0.0007013793402062764
7.895,0.0,77.5225562166196,0,90,3.0,6,0.0004650766313320744
7.9,0.0,77.5147470154736,0,90,3.0,6,0.0003040621747134575
7.905,0.0,77.50950623060861,0,90,3.0,6,0.00019600475481665525
7.91,0.0,77.50604197446326,0,90,3.0,6,0.00012457679305687155
7.915,0.0,77.50378630640013,0,90,3.0,6,7.806817319855673e-05
7.92,0.0,77.50233947794905,0,90,3.0,6,4.8236658743303216e-05
7.925,0.0,77.50142524158959,0,90,3.0,6,2.9386424527562676e-05
7.93,0.0,77.50085609970625,0,90,3.0,6,1.765154033514544e-05
7.935,0.0,77.50050702169113,0,90,3.0,6,1.045405548731801e-05
7.94,0.0,77.50029607044829,0,90,3.0,6,6.104545325483413e-06
7.945,0.0,77.500170462916,0,90,3.0,6,3.5146992990327638e-06
7.95,0.0,77.50009676785085,0,90,3.0,6,1.9952134195624316e-06
7.955,0.0,77.50005416248834,0,90,3.0,6,1.1167523369004277e-06
7.96,0.001684486749771458,77.50002989044987,0,90,3.0,6,6.162979353885208e-07
7.965,0.004172395771277602,77.50001626419696,0,90,3.0,6,3.353442671774134e-07
7.97,0.009438687428818865,77.50000872567692,0,90,3.0,6,1.7991086434149204e-07
7.975,0.019500507867137046,77.50000461564036,0,90,3.0,6,9.516784255950923e-08
7.98,0.03679496976339974,77.50000240730505,0,90,3.0,6,4.963515560533422e-08
7.985,0.06340728953298436,77.50000123793151,0,90,3.0,6,2.5524361108088584e-08
7.99,0.09979255396093453,77.50000062766577,0,90,3.0,6,1.2941562268566748e-08
7.995,0.14343835518453557,77.50000031378097,0,90,3.0,6,6.469710778566371e-09
8.0,0.18829581417209276,77.50000015466466,0,90,3.0,6,3.1889620932468966e-09
8.005,0.2257481735193119,77.50000007516608,0,90,3.0,6,1.5498161837499115e-09
8.01,0.24718154073554727,77.50000003601795,0,90,3.0,6,7.426381708898692e-10
8.015,0.24718154074102772,77.50000001701699,0,90,3.0,6,3.5086570991102377e-10
8.02,0.22574817354072055,77.50000000792706,0,90,3.0,6,1.6344446071484199e-10
8.025,0.18829581422840957,77.50000000364089,0,90,3.0,6,7.506993881048102e-11
8.03,0.14343835532456656,77.50000000164881,0,90,3.0,6,3.399617357384149e-11
8.035,0.09979255431561854,77.50000000073621,0,90,3.0,6,1.5179536894345465e-11
8.04,0.06340729067170194,77.5000000003241,0,90,3.0,6,6.682617803909528e-12
8.045,0.03679497683410042,77.50000000014069,0,90,3.0,6,2.900772405783502e-12
8.05,0.019500578284482293,77.50000000006021,0,90,3.0,6,1.2414719882125956e-12
8.055,0.009439396781978427,77.50000000002541,0,90,3.0,6,5.238970769233233e-13
8.06,0.004178588733610924,77.50000000001057,0,90,3.0,6,2.179974414043359e-13
8.065,0.0017299316936037381,77.50000000000433,0,90,3.0,6,8.936723068322909e-14
8.07,0.0008997325756988589,77.50000000000175,0,90,3.0,6,3.603989958700714e-14
8.075,0.001634769674224814,77.5000000000007,0,90,3.0,6,1.4357358372059756e-14
8.08,0.00614904736476635,77.50000000000027,0,90,3.0,6,5.567138960594599e-15
8.085,0.02168080359963608,77.5000000000001,0,90,3.0,6,2.0510511960085364e-15
8.09,0.06433400338904088,77.50000000000004,0,90,3.0,6,8.790219411465157e-16
8.095,0.1593410769217493,77.50000000000001,0,90,3.0,6,2.9300731371550523e-16
8.1,0.3291989194808569,77.5,0,90,3.0,6,0.0
8.105,0.5672906802982638,77.5,0,90,3.0,6,0.0
8.11,0.815339152120446,77.5,0,90,3.0,6,0.0
8.115,0.9768711246313155,77.50000284586159,1,90,3.0,6,5.8677558500516847e-08
8.12,0.9726380909165361,77.50000570245213,0,90,3.0,6,1.1757633254176457e-07
8.125,0.7921091683291741,77.50001225806744,0,90,3.0,6,2.527436586159141e-07
8.13,0.49139090102639077,77.50002942758579,0,90,3.0,6,6.067543461202937e-07
8.135,0.15739335672107918,77.50007969525397,0,90,3.0,6,1.6432011128453615e-06
8.14,-0.11102342218909485,77.50023533387187,0,90,3.0,6,4.8522447808367e-06
8.145,-0.2314207883647528,77.50071883774795,0,90,3.0,6,1.4821396865024148e-05
8.15,-0.2029124434754801,77.50217579271153,0,90,3.0,6,4.4861705392288955e-05
8.155,-0.11151350554305876,77.50635725002037,0,90,3.0,6,0.00013107732000766818
8.16,-0.039430666652076896,77.51768141331813,0,90,3.0,6,0.0003645652230542177
8.165,-0.006087703519843621,77.54648137072928,0,90,3.0,6,0.0009583787779233389
8.17,0.005350271385530551,77.61508024410816,0,90,3.0,6,0.002372788538312508
8.175,0.010381647827441833,77.76784731218491,0,90,3.0,6,0.005522624993503347
8.18,0.015115203303506243,78.08549326951349,0,90,3.0,6,0.012072026175535917
8.185,0.021170964062928475,78.70138007120593,0,90,3.0,6,0.024770723117648087
8.19,0.029082821134029553,79.81333731768606,0,90,3.0,6,0.047697676653320885
8.195,0.03923107061708144,81.67953161509834,0,90,3.0,6,0.08617590958965651
8.2,0.051969043308817596,84.58445788628454,0,90,3.0,6,0.1460712966244235
8.205,0.06760532616283861,88.76559186610127,0,90,3.0,6,0.23228024466188196
8.21,0.08636519236693461,94.30580224572596,0,90,3.0,6,0.34651138650981356
8.215,0.10834733138818661,101.01908127568012,0,90,3.0,6,0.4849295108387654
8.22,0.1334809643017884,108.37758909741606,0,90,3.0,6,0.6366513215962075
8.225,0.16148868344343945,115.53155299925712,0,90,3.0,6,0.7841557319434457
8.23,0.191860907532018,121.44932005335616,0,90,3.0,6,0.9061715474918796
8.235,0.22384764873847726,125.15631195469562,0,90,3.0,6,0.9826043701999098
8.24,0.25647215537198226,126.0,0,90,3.0,6,1.0
8.245,0.2885689161419028,123.8427949295679,0,90,3.0,6,0.9555215449395443
8.25,0.31884566517832524,119.10508764276156,0,90,3.0,6,0.8578368586136405
8.255,0.3459657668955683,112.64051130847515,0,90,3.0,6,0.7245466249170135
8.26,0.3686441789190902,105.4947173494078,0,90,3.0,6,0.5772106669980989
8.265,0.3857476379544367,98.64157127935391,0,90,3.0,6,0.4359086861722456
8.27,0.3963882865005728,92.7872202864701,0,90,3.0,6,0.3152004182777341
8.275,0.4,88.29055850091387,0,90,3.0,6,0.222485742286884
8.28,0.39638828650057273,85.19499150634792,0,90,3.0,6,0.15865961868758593
8.285,0.38574763795443656,83.32841126591062,0,90,3.0,6,0.1201734281631055
8.29,0.36864417891908974,82.41862451624381,0,90,3.0,6,0.10141493847925381
8.295,0.345965766895568,82.1853521137011,0,90,3.0,6,0.09660519822064124
8.3,0.3188456651783249,82.39306572658664,0,90,3.0,6,0.10088795312549777
8.305,0.28856891614190205,82.86818610804693,0,90,3.0,6,0.11068424965045211
8.31,0.2564721553719815,83.49352503596295,0,90,3.0,6,0.12357783579305044
8.315,0.22384764873847685,84.19327652565775,0,90,3.0,6,0.13800570155995362
8.32,0.19186090753201765,84.91762339581283,0,90,3.0,6,0.1529406885734603
8.325,0.16148868344343878,85.63113017574868,0,90,3.0,6,0.16765216857213774
8.33,0.1334809643017881,86.30565243766684,0,90,3.0,6,0.18155984407560488
8.335,0.10834733138818531,86.91685513029627,0,90,3.0,6,0.19416196144940762
8.34,0.08636519236690572,87.44305757969148,0,90,3.0,6,0.2050114964884842
8.345,0.06760532616242629,87.86533772288807,0,90,3.0,6,0.2137183035647025
8.35,0.05196904332202373,88.16817973634383,0,90,3.0,6,0.21996246879059445
8.355,0.03923107185803287,88.3402384667518,0,90,3.0,6,0.22351007147941854
8.36,0.02908287038705761,88.37498162664085,0,90,3.0,6,0.22422642529156384
8.365,0.02117220077308346,88.27108106749418,0,90,3.0,6,0.22208414572152949
8.37,0.0151361834125735,88.03249098378444,0,90,3.0,6,0.21716476255225653
8.375,0.010626454858290009,87.66819648788929,0,90,3.0,6,0.20965353583276886
8.38,0.007326255555493652,87.19165162443677,0,90,3.0,6,0.1998278685450881
8.385,0.004960179211183015,86.61995488836745,0,90,3.0,6,0.18804030697664836
8.39,0.0032978759379303545,85.97283240911523,0,90,3.0,6,0.1746975754456748
8.395,0.002153242296767213,85.27151291372265,0,90,3.0,6,0.16023737966438445
8.4,0.001380616732225004,84.53758349445417,0,90,3.0,6,0.14510481431864264
8.405,0.0008693106590991584,83.79191110989592,0,90,3.0,6,0.1297301259772355
8.41,0.000537524815942247,83.05370269529314,0,90,3.0,6,0.11450933392356989
8.415,0.0003263951340288585,82.33975866855332,0,90,3.0,6,0.09978883852687248
8.42,0.00019463030985187395,81.66395297564524,0,90,3.0,6,0.08585470052876794
8.425,0.00011397219555062695,81.03695029627794,0,90,3.0,6,0.07292681023253478
8.43,6.55403863487943e-05,80.46615012462807,0,90,3.0,6,0.06115773452841386
8.435,3.701184389455385e-05,79.95583016691808,0,90,3.0,7,0.05063567354470261
8.44,2.0525516217290957e-05,79.50744919237871,0,90,3.0,7,0.04139070499749928
8.445,1.1178128483661116e-05,79.12006270877623,0,90,3.0,7,0.03340335482012848
8.45,5.978135409912517e-06,78.7908034547283,0,90,3.0,7,0.02661450422120217
8.455,3.1396702713238487e-06,78.51538196065025,0,90,3.0,7,0.020935710528871037
8.46,1.6192875458531019e-06,78.28856917829346,0,90,3.0,7,0.016259158315329016
8.465,8.201353897972012e-07,78.1046320774523,0,90,3.0,7,0.012466640772212247
8.47,4.0791415086824765e-07,77.95770283268605,0,90,3.0,7,0.009437171807959853
8.475,1.9923866938774793e-07,77.8420716221398,0,90,3.0,7,0.007053023136903054
8.48,9.556527981051257e-08,77.75240126350023,0,90,3.0,7,0.005204149762891385
8.485,4.501406988770349e-08,77.68386837283725,0,90,3.0,7,0.0037911004708711957
8.49,0.0,77.63224022257143,0,90,3.0,7,0.0027266025272458896
8.495,0.0,77.593899037566,0,90,3.0,7,0.0019360626302268875
8.5,0.0,77.56582634489853,0,90,3.0,7,0.0013572442247118605
8.505,0.0,77.54555954431204,0,90,3.0,7,0.0009393720476709601
8.51,0.0,77.53113149901236,0,90,3.0,7,0.0006418865775744446
8.515,0.0,77.5210020517766,0,90,3.0,7,0.00043303199539392604
8.52,0.0,77.51398828420264,0,90,3.0,7,0.0002884182309822584
8.525,0.0,77.50919831335803,0,90,3.0,7,0.00018965594552633241
8.53,0.0,77.50597163128171,0,90,3.0,7,0.0001231264181795915
8.535,0.0,77.50382753172264,0,90,3.0,7,7.891817984814552e-05
8.54,0.0,77.50242206416318,0,90,3.0,7,4.9939467282149394e-05
8.545,0.0,77.50151319019876,0,90,3.0,7,3.119979791266787e-05
8.55,0.0,77.5009333454743,0,90,3.0,7,1.9244236583388782e-05
8.555,0.0,77.50056837159171,0,90,3.0,7,1.171900189095928e-05
8.56,0.0,77.50034171443933,0,90,3.0,7,7.045658542878787e-06
8.565,0.0,77.50020283146561,0,90,3.0,7,4.182092074523604e-06
8.57,0.0,77.50011886345717,0,90,3.0,7,2.450792931437352e-06
8.575,0.0,77.50006877053725,0,90,3.0,7,1.4179492217356982e-06
8.58,0.0,77.50003928235421,0,90,3.0,7,8.099454475996026e-07
8.585,0.0,77.50002215305511,0,90,3.0,7,4.567640229483398e-07
8.59,0.001684486749771458,77.50001233419412,0,90,3.0,7,2.5431328092204194e-07
8.595,0.004172395771277602,77.50000677998857,0,90,3.0,7,1.39793578701409e-07
8.6,0.009438687428818865,77.50000367949464,0,90,3.0,7,7.586586885858215e-08
8.605,0.019500507867137046,77.50000197146203,0,90,3.0,7,4.064870157768363e-08
8.61,0.03679496976339974,77.50000104286885,0,90,3.0,7,2.150245042272574e-08
8.615,0.06340728953298436,77.50000054464309,0,90,3.0,7,1.1229754354363397e-08
8.62,0.09979255396093453,77.50000028082472,0,90,3.0,7,5.7902004474018806e-09
8.625,0.14343835518453557,77.50000014295512,0,90,3.0,7,2.9475281688477126e-09
8.63,0.18829581417209276,77.50000007184642,0,90,3.0,7,1.481369382258656e-09
8.635,0.2257481735193119,77.50000003564934,0,90,3.0,7,7.350378541794027e-10
8.64,0.24718154073554727,77.5000000174638,0,90,3.0,7,3.6007844586886665e-10
8.645,0.24718154074102772,77.50000000844632,0,90,3.0,7,1.7415094795800654e-10
8.65,0.22574817354072055,77.50000000403308,0,90,3.0,7,8.315635465440153e-11
8.655,0.18829581422840957,77.50000000190128,0,90,3.0,7,3.920174150931116e-11
8.66,0.14343835532456656,77.50000000088491,0,90,3.0,7,1.824556542506451e-11
8.665,0.09979255431561854,77.50000000040662,0,90,3.0,7,8.383818267341751e-12
8.67,0.06340729067170194,77.50000000018447,0,90,3.0,7,3.803527939340973e-12
8.675,0.03679497683410042,77.50000000008262,0,90,3.0,7,1.7035445219419474e-12
8.68,0.019500578284482293,77.50000000003654,0,90,3.0,7,7.53321803562564e-13
8.685,0.009439396781978427,77.50000000001594,0,90,3.0,7,3.2875420598879686e-13
8.69,0.004178588733610924,77.50000000000688,0,90,3.0,7,1.4181553983830453e-13
8.695,0.0017299316936037381,77.50000000000293,0,90,3.0,7,6.035950662539408e-14
8.7,0.0008997325756988589,77.50000000000122,0,90,3.0,7,2.519862897953345e-14
