Time,ECG,Pressure,R_Peaks,mean_hr,hrv_scale,Phase_Bin,Normalized_Pressure
0.0,0.001684486749771458,77.5,0,90,1.0,0,0.0
0.005,0.004172395771277602,77.5,0,90,1.0,0,0.0
0.01,0.009438687428818865,77.5,0,90,1.0,0,0.0
0.015,0.019500507867137046,77.5,0,90,1.0,0,0.0
0.02,0.03679496976339974,77.5,0,90,1.0,0,0.0
0.025,0.06340728953298436,77.5,0,90,1.0,0,0.0
0.03,0.09979255396093453,77.5,0,90,1.0,0,0.0
0.035,0.14343835518453557,77.5,0,90,1.0,0,0.0
0.04,0.18829581417209276,77.5,0,90,1.0,0,0.0
0.045,0.2257481735193119,77.5,0,90,1.0,0,0.0
0.05,0.24718154073554727,77.5,0,90,1.0,0,0.0
0.055,0.24718154074102772,77.5,0,90,1.0,0,0.0
0.06,0.22574817354072055,77.5,0,90,1.0,0,0.0
0.065,0.18829581422840957,77.5,0,90,1.0,0,0.0
0.07,0.14343835532456656,77.5,0,90,1.0,0,0.0
0.075,0.09979255431561854,77.5,0,90,1.0,0,0.0
0.08,0.06340729067170194,77.5,0,90,1.0,0,0.0
0.085,0.03679497683410042,77.5,0,90,1.0,0,0.0
0.09,0.019500578284482293,77.5,0,90,1.0,0,0.0
0.095,0.009439396781978427,77.5,0,90,1.0,0,0.0
0.1,0.004178588733610924,77.5,0,90,1.0,0,0.0
0.105,0.0017299316936037381,77.5,0,90,1.0,0,0.0
0.11,0.0008997325756988589,77.5,0,90,1.0,0,0.0
0.115,0.001634769674224814,77.5,0,90,1.0,0,0.0
0.12,0.00614904736476635,77.5,0,90,1.0,0,0.0
0.125,0.02168080359963608,77.5,0,90,1.0,0,0.0
0.13,0.06433400338904088,77.5,0,90,1.0,0,0.0
0.135,0.1593410769217493,77.5,0,90,1.0,0,0.0
0.14,0.3291989194808569,77.5,0,90,1.0,0,0.0
0.145,0.5672906802982638,77.5,0,90,1.0,0,0.0
0.15,0.815339152120446,77.5,0,90,1.0,0,0.0
0.155,0.9768711246313155,77.5,0,90,1.0,0,0.0
0.16,0.9726380909165361,77.5,0,90,1.0,0,0.0
0.165,0.7921091683291741,77.5,0,90,1.0,0,0.0
0.17,0.49139090102639077,77.5,0,90,1.0,0,0.0
0.175,0.15739335672107918,77.5,0,90,1.0,0,0.0
0.18,-0.11102342218909485,77.5,0,90,1.0,0,0.0
0.185,-0.2314207883647528,77.5,0,90,1.0,0,0.0
0.19,-0.2029124434754801,77.5,0,90,1.0,0,0.0
0.195,-0.11151350554305876,77.5,0,90,1.0,0,0.0
0.2,-0.039430666652076896,77.5,0,90,1.0,0,0.0
0.205,-0.006087703519843621,77.5,0,90,1.0,0,0.0
0.21,0.005350271385530551,77.5,0,90,1.0,0,0.0
0.215,0.010381647827441833,77.5,0,90,1.0,0,0.0
0.22,0.015115203303506243,77.5,0,90,1.0,0,0.0
0.225,0.021170964062928475,77.5,0,90,1.0,0,0.0
0.23,0.029082821134029553,77.5,0,90,1.0,0,0.0
0.235,0.03923107061708144,77.5,0,90,1.0,0,0.0
0.24,0.051969043308817596,77.5,0,90,1.0,0,0.0
0.245,0.06760532616283861,77.5,0,90,1.0,0,0.0
0.25,0.08636519236693461,77.5,0,90,1.0,0,0.0
0.255,0.10834733138818661,77.5,0,90,1.0,0,0.0
0.26,0.1334809643017884,77.5,0,90,1.0,0,0.0
0.265,0.16148868344343945,77.5,0,90,1.0,0,0.0
0.27,0.191860907532018,77.5,0,90,1.0,0,0.0
0.275,0.22384764873847726,77.5,0,90,1.0,0,0.0
0.28,0.25647215537198226,77.5,0,90,1.0,0,0.0
0.285,0.2885689161419028,77.5,0,90,1.0,0,0.0
0.29,0.31884566517832524,77.5,0,90,1.0,0,0.0
0.295,0.3459657668955683,77.5,0,90,1.0,0,0.0
0.3,0.3686441789190902,77.5,0,90,1.0,0,0.0
0.305,0.3857476379544367,77.5,0,90,1.0,0,0.0
0.31,0.3963882865005728,77.5,0,90,1.0,0,0.0
0.315,0.4,77.5,0,90,1.0,0,0.0
0.32,0.39638828650057273,77.5,0,90,1.0,0,0.0
0.325,0.38574763795443656,77.5,0,90,1.0,0,0.0
0.33,0.36864417891908974,77.5,0,90,1.0,0,0.0
0.335,0.345965766895568,77.5,0,90,1.0,0,0.0
0.34,0.3188456651783249,77.5,0,90,1.0,0,0.0
0.345,0.28856891614190205,77.5,0,90,1.0,0,0.0
0.35,0.2564721553719815,77.5,0,90,1.0,0,0.0
0.355,0.22384764873847685,77.5,0,90,1.0,0,0.0
0.36,0.19186090753201765,77.5,0,90,1.0,0,0.0
0.365,0.16148868344343878,77.5,0,90,1.0,0,0.0
0.37,0.1334809643017881,77.5,0,90,1.0,0,0.0
0.375,0.10834733138818531,77.5,0,90,1.0,0,0.0
0.38,0.08636519236690572,77.5,0,90,1.0,0,0.0
0.385,0.06760532616242629,77.5,0,90,1.0,0,0.0
0.39,0.05196904332202373,77.5,0,90,1.0,0,0.0
0.395,0.03923107185803287,77.5,0,90,1.0,0,0.0
0.4,0.02908287038705761,77.5,0,90,1.0,0,0.0
0.405,0.02117220077308346,77.5,0,90,1.0,0,0.0
0.41,0.0151361834125735,77.5,0,90,1.0,0,0.0
0.415,0.010626454858290009,77.5,0,90,1.0,0,0.0
0.42,0.007326255555493652,77.5,0,90,1.0,0,0.0
0.425,0.004960179211183015,77.5,0,90,1.0,0,0.0
0.43,0.0032978759379303545,77.5,0,90,1.0,0,0.0
0.435,0.002153242296767213,77.5,0,90,1.0,0,0.0
0.44,0.001380616732225004,77.5,0,90,1.0,0,0.0
0.445,0.0008693106590991584,77.5,0,90,1.0,0,0.0
0.45,0.000537524815942247,77.5,0,90,1.0,0,0.0
0.455,0.0003263951340288585,77.5,0,90,1.0,0,0.0
0.46,0.00019463030985187395,77.5,0,90,1.0,0,0.0
0.465,0.00011397219555062695,77.5,0,90,1.0,0,0.0
0.47,6.55403863487943e-05,77.5,0,90,1.0,0,0.0
0.475,3.701184389455385e-05,77.5,0,90,1.0,0,0.0
0.48,2.0525516217290957e-05,77.5,0,90,1.0,0,0.0
0.485,1.1178128483661116e-05,77.5,0,90,1.0,0,0.0
0.49,5.978135409912517e-06,77.5,0,90,1.0,0,0.0
0.495,3.1396702713238487e-06,77.5,0,90,1.0,0,0.0
0.5,1.6192875458531019e-06,77.5,0,90,1.0,0,0.0
0.505,8.201353897972012e-07,77.5,0,90,1.0,0,0.0
0.51,4.0791415086824765e-07,77.5,0,90,1.0,0,0.0
0.515,1.9923866938774793e-07,77.5,0,90,1.0,0,0.0
0.52,9.556527981051257e-08,77.5,0,90,1.0,0,0.0
0.525,4.501406988770349e-08,77.5,0,90,1.0,0,0.0
0.53,0.0,77.5,0,90,1.0,0,0.0
0.535,0.0,77.5,0,90,1.0,0,0.0
0.54,0.0,77.5,0,90,1.0,0,0.0
0.545,0.0,77.5,0,90,1.0,0,0.0
0.55,0.0,77.5,0,90,1.0,0,0.0
0.555,0.0,77.5,0,90,1.0,0,0.0
0.56,0.0,77.5,0,90,1.0,0,0.0
0.565,0.0,77.5,0,90,1.0,0,0.0
0.57,0.0,77.5,0,90,1.0,0,0.0
0.575,0.0,77.5,0,90,1.0,0,0.0
0.58,0.0,77.5,0,90,1.0,0,0.0
0.585,0.0,77.5,0,90,1.0,0,0.0
0.59,0.0,77.5,0,90,1.0,0,0.0
0.595,0.0,77.5,0,90,1.0,0,0.0
0.6,0.0,77.5,0,90,1.0,0,0.0
0.605,0.0,77.5,0,90,1.0,0,0.0
0.61,0.0,77.5,0,90,1.0,0,0.0
0.615,0.0,77.5,0,90,1.0,0,0.0
0.62,0.0,77.5,0,90,1.0,0,0.0
0.625,0.0,77.5,0,90,1.0,0,0.0
0.63,0.0,77.5,0,90,1.0,0,0.0
0.635,0.0,77.5,0,90,1.0,0,0.0
0.64,0.0,77.5,0,90,1.0,0,0.0
0.645,0.0,77.5,0,90,1.0,0,0.0
0.65,0.0,77.5,0,90,1.0,0,0.0
0.655,0.0,77.5,0,90,1.0,0,0.0
0.66,0.001684486749771458,77.5,0,90,1.0,0,0.0
0.665,0.004172395771277602,77.5,0,90,1.0,0,0.0
0.67,0.009438687428818865,77.5,0,90,1.0,0,0.0
0.675,0.019500507867137046,77.5,0,90,1.0,0,0.0
0.68,0.03679496976339974,77.5,0,90,1.0,0,0.0
0.685,0.06340728953298436,77.5,0,90,1.0,0,0.0
0.69,0.09979255396093453,77.5,0,90,1.0,0,0.0
0.695,0.14343835518453557,77.5,0,90,1.0,0,0.0
0.7,0.18829581417209276,77.5,0,90,1.0,0,0.0
0.705,0.2257481735193119,77.5,0,90,1.0,0,0.0
0.71,0.24718154073554727,77.5,0,90,1.0,0,0.0
0.715,0.24718154074102772,77.5,0,90,1.0,0,0.0
0.72,0.22574817354072055,77.5,0,90,1.0,0,0.0
0.725,0.18829581422840957,77.5,0,90,1.0,0,0.0
0.73,0.14343835532456656,77.5,0,90,1.0,0,0.0
0.735,0.09979255431561854,77.5,0,90,1.0,0,0.0
0.74,0.06340729067170194,77.5,0,90,1.0,0,0.0
0.745,0.03679497683410042,77.5,0,90,1.0,0,0.0
0.75,0.019500578284482293,77.5,0,90,1.0,0,0.0
0.755,0.009439396781978427,77.5,0,90,1.0,0,0.0
0.76,0.004178588733610924,77.5,0,90,1.0,0,0.0
0.765,0.0017299316936037381,77.5,0,90,1.0,0,0.0
0.77,0.0008997325756988589,77.5,0,90,1.0,0,0.0
0.775,0.001634769674224814,77.5,0,90,1.0,0,0.0
0.78,0.00614904736476635,77.5,0,90,1.0,0,0.0
0.785,0.02168080359963608,77.5,0,90,1.0,0,0.0
0.79,0.06433400338904088,77.5,0,90,1.0,0,0.0
0.795,0.1593410769217493,77.5,0,90,1.0,0,0.0
0.8,0.3291989194808569,77.5,0,90,1.0,0,0.0
0.805,0.5672906802982638,77.5,0,90,1.0,0,0.0
0.81,0.815339152120446,77.5,0,90,1.0,0,0.0
0.815,0.9768711246313155,77.50000284403532,1,90,1.0,0,5.8639903544616635e-08
0.82,0.9726380909165361,77.50000563434857,0,90,1.0,0,1.161721354257923e-07
0.825,0.7921091683291741,77.50001194034442,0,90,1.0,0,2.4619266848754496e-07
0.83,0.49139090102639077,77.50002813743002,0,90,1.0,0,5.801531963196297e-07
0.835,0.15739335672107918,77.50007456926916,0,90,1.0,0,1.5375107043195215e-06
0.84,-0.11102342218909485,77.50021555237494,0,90,1.0,0,4.444378864730322e-06
0.845,-0.2314207883647528,77.50064634651709,0,90,1.0,0,1.332673231106653e-05
0.85,-0.2029124434754801,77.50192715835341,0,90,1.0,0,3.973522378166224e-05
0.855,-0.11151350554305876,77.50556436458237,0,90,1.0,0,0.00011472916664678985
0.86,-0.039430666652076896,77.5153360380951,0,90,1.0,0,0.0003162069710329893
0.865,-0.006087703519843621,77.54004933030063,0,90,1.0,0,0.0008257593876419144
0.87,0.005350271385530551,77.59872426259801,0,90,1.0,0,0.002035551806144569
0.875,0.010381647827441833,77.72927397114614,0,90,1.0,0,0.004727298374147262
0.88,0.015115203303506243,78.0011213460085,0,90,1.0,0,0.01033239888677326
0.885,0.021170964062928475,78.53026214977955,0,90,1.0,0,0.02124251855215558
0.89,0.029082821134029553,79.49175422945842,0,90,1.0,0,0.041067097514606646
0.895,0.03923107061708144,81.12018821167895,0,90,1.0,0,0.0746430559109062
0.9,0.051969043308817596,83.68572301825407,0,90,1.0,0,0.12754068078874364
0.905,0.06760532616283861,87.43548636982642,0,90,1.0,0,0.204855389068586
0.91,0.08636519236693461,92.5008021671065,0,90,1.0,0,0.30929489004343297
0.915,0.10834733138818661,98.78935026029112,0,90,1.0,0,0.4389556754699199
0.92,0.1334809643017884,105.90117170753103,0,90,1.0,0,0.585591169227444
0.925,0.16148868344343945,113.11621193300405,0,90,1.0,0,0.7343548852165784
0.93,0.191860907532018,119.48749438013431,0,90,1.0,0,0.8657215336110167
0.935,0.22384764873847726,124.03653874510518,0,90,1.0,0,0.9595162627856737
0.94,0.25647215537198226,126.0,0,90,1.0,0,1.0
0.945,0.2885689161419028,125.04326482741723,0,90,1.0,0,0.9802735015962316
0.95,0.31884566517832524,121.35937653466117,0,90,1.0,0,0.9043170419517766
0.955,0.3459657668955683,115.61360140385835,0,90,1.0,0,0.7858474516259455
0.96,0.3686441789190902,108.75594891707162,0,90,1.0,0,0.6444525549911674
0.965,0.3857476379544367,101.77461151529064,0,90,1.0,0,0.5005074539235185
0.97,0.3963882865005728,95.47810717617381,0,90,1.0,0,0.37068262218915066
0.975,0.4,90.36949924832,0,90,1.0,0,0.26535049996536075
0.98,0.39638828650057273,86.62992216347705,0,90,1.0,0,0.18824581780365046
0.985,0.38574763795443656,84.18612234560806,0,90,1.0,0,0.1378581926929496
0.99,0.36864417891908974,82.81567309579101,0,90,1.0,0,0.1096015071297116
0.995,0.345965766895568,82.24668045311486,0,90,1.0,0,0.09786970006422396
1.0,0.3188456651783249,82.22677563441158,0,90,1.0,0,0.09745929143116662
1.005,0.28856891614190205,82.55618463062414,0,90,1.0,0,0.10425122949740505
1.01,0.2564721553719815,83.09295775268306,0,90,1.0,0,0.11531871655016625
1.015,0.22384764873847685,83.74288099322293,0,90,1.0,0,0.12871919573655516
1.02,0.19186090753201765,84.44470761789947,0,90,1.0,0,0.1431898477917416
1.025,0.16148868344343878,85.15701212826306,0,90,1.0,0,0.15787653872707344
1.03,0.1334809643017881,85.84902108131057,0,90,1.0,0,0.17214476456310449
1.035,0.10834733138818531,86.49535961413758,0,90,1.0,0,0.18547133225025947
1.04,0.08636519236690572,87.07368281210313,0,90,1.0,0,0.1973955218990336
1.045,0.06760532616242629,87.56407233300035,0,90,1.0,0,0.2075066460412444
1.05,0.05196904332202373,87.94934169797176,0,90,1.0,0,0.21545034428807755
1.055,0.03923107185803287,88.21569761819234,0,90,1.0,0,0.22094221893180077
1.06,0.02908287038705761,88.35343302302121,0,90,1.0,0,0.22378212418600435
1.065,0.02117220077308346,88.35747043745516,0,90,1.0,0,0.22386536984443636
1.07,0.0151361834125735,88.22765859398775,0,90,1.0,0,0.22118883698943825
1.075,0.010626454858290009,87.96877763919233,0,90,1.0,0,0.21585108534417166
1.08,0.007326255555493652,87.59024579975109,0,90,1.0,0,0.20804630514950698
1.085,0.004960179211183015,87.10555038207744,0,90,1.0,0,0.19805258519747296
1.09,0.0032978759379303545,86.53145038403952,0,90,1.0,0,0.18621547183586631
1.095,0.002153242296767213,85.88701624442398,0,90,1.0,0,0.17292816998812321
1.1,0.001380616732225004,85.1925832624303,0,90,1.0,0,0.1586099641738207
1.105,0.0008693106590991584,84.46869833167638,0,90,1.0,0,0.14368450168404903
1.11,0.000537524815942247,83.73513500639436,0,90,1.0,0,0.1285594846679249
1.115,0.0003263951340288585,83.0100405618299,0,90,1.0,0,0.11360908374907003
1.12,0.00019463030985187395,82.30926233944837,0,90,1.0,0,0.09916004823604879
1.125,0.00011397219555062695,81.6458814331628,0,90,1.0,0,0.08548209140541854
1.13,6.55403863487943e-05,81.02996195780577,0,90,1.0,0,0.07278272077950036
1.135,3.701184389455385e-05,80.46850585648903,0,90,1.0,0,0.06120630631936147
1.14,2.0525516217290957e-05,79.96558814237727,0,90,1.0,0,0.05083686891499528
1.145,1.1178128483661116e-05,79.52263674653703,0,90,1.0,0,0.04170385044406251
1.15,5.978135409912517e-06,79.13881522901951,0,90,1.0,0,0.03379000472205183
1.155,3.1396702713238487e-06,78.81146536827063,0,90,1.0,0,0.02704052305712643
1.16,1.6192875458531019e-06,78.53656943790337,0,90,1.0,0,0.02137256572996633
1.165,8.201353897972012e-07,78.30919783276481,0,90,1.0,0,0.016684491397212564
1.17,4.0791415086824765e-07,78.12391547782335,0,90,1.0,0,0.012864236656151455
1.175,1.9923866938774793e-07,77.97512900761184,0,90,1.0,0,0.009796474383749296
1.18,9.556527981051257e-08,77.85736504432592,0,90,1.0,0,0.007368351429400348
1.185,4.501406988770349e-08,77.76547726284619,0,90,1.0,0,0.005473757996828657
1.19,0.0,77.69478581665143,0,90,1.0,0,0.00401620240518417
1.195,0.0,77.6411568854654,0,90,1.0,0,0.00291045124670941
1.2,0.0,77.60103260291042,0,90,1.0,0,0.002083146451761279
1.205,0.0,77.57142261616407,0,90,1.0,1,0.0014726312611148655
1.21,0.0,77.54986831612662,0,90,1.0,1,0.0010282127036416499
1.215,0.0,77.53438970032784,0,90,1.0,1,0.0007090659861409428
1.22,0.0,77.52342323181401,0,90,1.0,1,0.00048295323327850095
1.225,0.0,77.5157572338132,0,90,1.0,1,0.0003248914188289516
1.23,0.0,77.5104695467323,0,90,1.0,1,0.0002158669429339278
1.235,0.0,77.50687053439142,0,90,1.0,1,0.0001416605029159711
1.24,0.0,77.50445315583923,0,90,1.0,1,9.18176461696771e-05
1.245,0.0,77.50285075573734,0,90,1.0,1,5.8778468811167315e-05
1.25,0.0,77.50180246507347,0,90,1.0,1,3.7164228318914934e-05
1.255,0.0,77.50112561130648,0,90,1.0,1,2.320848054592744e-05
1.26,0.0,77.50069426420308,0,90,1.0,1,1.4314725836628867e-05
1.265,0.0,77.50042293715272,0,90,1.0,1,8.720353664334793e-06
1.27,0.0,77.50025447295847,0,90,1.0,1,5.246865123178123e-06
1.275,0.0,77.5001512245073,0,90,1.0,1,3.1180310784715326e-06
1.28,0.0,77.50008876003304,0,90,1.0,1,1.8301037739641372e-06
1.285,0.0,77.50005145498665,0,90,1.0,1,1.0609275597237956e-06
1.29,0.0,77.50002946132142,0,90,1.0,1,6.074499261445715e-07
1.295,0.0,77.50001666064122,0,90,1.0,1,3.4351837571521924e-07
1.3,0.001684486749771458,77.50000930563341,0,90,1.0,1,1.9186873015014592e-07
1.305,0.004172395771277602,77.50000513351583,0,90,1.0,1,1.0584568716572885e-07
1.31,0.009438687428818865,77.50000279703956,0,90,1.0,1,5.767091868891811e-08
1.315,0.019500507867137046,77.50000150520984,0,90,1.0,1,3.103525438474236e-08
1.32,0.03679496976339974,77.50000080003728,0,90,1.0,1,1.649561411176899e-08
1.325,0.06340728953298436,77.50000041998922,0,90,1.0,1,8.659571552381805e-09
1.33,0.09979255396093453,77.50000021776135,0,90,1.0,1,4.48992482139972e-09
1.335,0.14343835518453557,77.50000011151626,0,90,1.0,1,2.2993042796198217e-09
1.34,0.18829581417209276,77.50000005640405,0,90,1.0,1,1.162970054736565e-09
1.345,0.2257481735193119,77.50000002817715,0,90,1.0,1,5.809722645692803e-10
1.35,0.24718154073554727,77.50000001390269,0,90,1.0,1,2.866534501175845e-10
1.355,0.24718154074102772,77.5000000067751,0,90,1.0,1,1.396927018504357e-10
1.36,0.22574817354072055,77.50000000326096,0,90,1.0,1,6.723638827829698e-11
1.365,0.18829581422840957,77.50000000155022,0,90,1.0,1,3.196328883128332e-11
1.37,0.14343835532456656,77.50000000072787,0,90,1.0,1,1.5007541601194463e-11
1.375,0.09979255431561854,77.50000000033754,0,90,1.0,1,6.9595097153706806e-12
1.38,0.06340729067170194,77.5000000001546,0,90,1.0,1,3.1876265659109813e-12
1.385,0.03679497683410042,77.50000000006995,0,90,1.0,1,1.4421819981077167e-12
1.39,0.019500578284482293,77.50000000003125,0,90,1.0,1,6.44323082860396e-13
1.395,0.009439396781978427,77.50000000001378,0,90,1.0,1,2.8421709430404007e-13
1.4,0.004178588733610924,77.50000000000601,0,90,1.0,1,1.239420937016587e-13
1.405,0.0017299316936037381,77.50000000000259,0,90,1.0,1,5.332733109622195e-14
1.41,0.0008997325756988589,77.5000000000011,0,90,1.0,1,2.25615631560939e-14
1.415,0.001634769674224814,77.50000000000045,0,90,1.0,1,9.376234038896167e-15
1.42,0.00614904736476635,77.50000000000018,0,90,1.0,1,3.809095078301568e-15
1.425,0.02168080359963608,77.50000000000007,0,90,1.0,1,1.465036568577526e-15
1.43,0.06433400338904088,77.50000000000003,0,90,1.0,1,5.860146274310105e-16
1.435,0.1593410769217493,77.50000000000001,0,90,1.0,1,2.9300731371550523e-16
1.44,0.3291989194808569,77.5,0,90,1.0,1,0.0
1.445,0.5672906802982638,77.5,0,90,1.0,1,0.0
1.45,0.815339152120446,77.5,0,90,1.0,1,0.0
1.455,0.9768711246313155,77.50000284154457,1,90,1.0,1,5.8588547859734405e-08
1.46,0.9726380909165361,77.5000053717146,0,90,1.0,1,1.1075700192038508e-07
1.465,0.7921091683291741,77.50001074298208,0,90,1.0,1,2.2150478524466606e-07
1.47,0.49139090102639077,77.50002348679206,0,90,1.0,1,4.842637538073627e-07
1.475,0.15739335672107918,77.50005697009982,0,90,1.0,1,1.1746412333992601e-06
1.48,-0.11102342218909485,77.50015058918197,0,90,1.0,1,3.1049315870189172e-06
1.485,-0.2314207883647528,77.50041701098533,0,90,1.0,1,8.598164645990409e-06
1.49,-0.2029124434754801,77.50116397212096,0,90,1.0,1,2.3999425174501196e-05
1.495,-0.11151350554305876,77.50318753865302,0,90,1.0,1,6.572244645408506e-05
1.5,-0.039430666652076896,77.5084286730719,0,90,1.0,1,0.00017378707364751163
1.505,-0.006087703519843621,77.52133349932207,0,90,1.0,1,0.0004398659654034723
1.51,0.005350271385530551,77.55144481044628,0,90,1.0,1,0.001060717741160502
1.515,0.010381647827441833,77.61790113559184,0,90,1.0,1,0.002430951249316211
1.52,0.015115203303506243,77.75645242828497,0,90,1.0,1,0.005287678933710787
1.525,0.021170964062928475,78.02903573913586,0,90,1.0,1,0.010907953384244619
1.53,0.029082821134029553,78.53459389389398,0,90,1.0,1,0.02133183286379348
1.535,0.03923107061708144,79.41759052329515,0,90,1.0,1,0.03953794893392055
1.54,0.051969043308817596,80.86806634460993,0,90,1.0,1,0.0694446668991738
1.545,0.06760532616283861,83.10540651559467,0,90,1.0,1,0.11557539207411682
1.55,0.08636519236693461,86.3392095926369,0,90,1.0,1,0.18225174417808052
1.555,0.10834733138818661,90.70649228025296,0,90,1.0,1,0.27229880990212285
1.56,0.1334809643017884,96.1949399697833,0,90,1.0,1,0.3854626797893465
1.565,0.16148868344343945,102.57400864906828,0,90,1.0,1,0.5169898690529542
1.57,0.191860907532018,109.36346526476575,0,90,1.0,1,0.656978665252902
1.575,0.22384764873847726,115.86591368470812,0,90,1.0,1,0.7910497666950127
1.58,0.25647215537198226,121.27294452158014,0,90,1.0,1,0.9025349385892814
1.585,0.2885689161419028,124.82763298613727,0,90,1.0,1,0.9758274842502531
1.59,0.31884566517832524,126.0,0,90,1.0,1,1.0
1.595,0.3459657668955683,124.61989252433693,0,90,1.0,1,0.9715441757595243
1.6,0.3686441789190902,120.92169697246845,0,90,1.0,1,0.8952927210818238
1.605,0.3857476379544367,115.48501558588413,0,90,1.0,1,0.7831961976470954
1.61,0.3963882865005728,109.09225998185437,0,90,1.0,1,0.6513868037495746
1.615,0.4,102.5515725266867,0,90,1.0,1,0.5165272685914784
1.62,0.39638828650057273,96.54013006952228,0,90,1.0,1,0.392580001433449
1.625,0.38574763795443656,91.50802050032742,0,90,1.0,1,0.2888251649552045
1.63,0.36864417891908974,87.65583209467765,0,90,1.0,1,0.2093985998902608
1.635,0.345965766895568,84.9730956654149,0,90,1.0,1,0.15408444670958563
1.64,0.3188456651783249,83.30975988570115,0,90,1.0,1,0.11978886362270422
1.645,0.28856891614190205,82.45172028278404,0,90,1.0,1,0.10209732541822758
1.65,0.2564721553719815,82.18025697684484,0,90,1.0,1,0.09650014385247103
1.655,0.22384764873847685,82.30741319769757,0,90,1.0,1,0.09912192160201176
1.66,0.19186090753201765,82.68926270610598,0,90,1.0,1,0.1069951073423913
1.665,0.16148868344343878,83.2241320744651,0,90,1.0,1,0.11802334174154852
1.67,0.1334809643017881,83.8435168279006,0,90,1.0,1,0.13079416140001238
1.675,0.10834733138818531,84.50150236715587,0,90,1.0,1,0.14436087354960547
1.68,0.08636519236690572,85.16587686988788,0,90,1.0,1,0.15805931690490477
1.685,0.06760532616242629,85.81199492104422,0,90,1.0,1,0.1713813385782313
1.69,0.05196904332202373,86.41920641796344,0,90,1.0,1,0.18390116325697808
1.695,0.03923107185803287,86.96917992923366,0,90,1.0,1,0.19524082328316827
1.7,0.02908287038705761,87.44541920646472,0,90,1.0,1,0.20506018982401486
1.705,0.02117220077308346,87.83342707600346,0,90,1.0,1,0.21306035208254556
1.71,0.0151361834125735,88.1211518756908,0,90,1.0,1,0.21899282217919175
1.715,0.010626454858290009,88.29949305211028,0,90,1.0,1,0.22266995983732535
1.72,0.007326255555493652,88.36273532154763,0,90,1.0,1,0.22397392415562128
1.725,0.004960179211183015,88.30883732354,0,90,1.0,1,0.22286262522762895
1.73,0.0032978759379303545,88.13953589889951,0,90,1.0,1,0.2193718742041136
1.735,0.002153242296767213,87.86025153974062,0,90,1.0,1,0.21361343380908487
1.74,0.001380616732225004,87.47979971200948,0,90,1.0,1,0.2057690662269996
1.745,0.0008693106590991584,87.00992868416755,0,90,1.0,1,0.19608100379726903
1.75,0.000537524815942247,86.46471740998916,0,90,1.0,1,0.18483953422658067
1.755,0.0003263951340288585,85.85987641344444,0,90,1.0,1,0.17236858584421524
1.76,0.00019463030985187395,85.21199997402755,0,90,1.0,1,0.15901030874283606
1.765,0.00011397219555062695,84.53781895883367,0,90,1.0,1,0.14510966925430244
1.77,6.55403863487943e-05,83.85350054309895,0,90,1.0,1,0.1310000111979164
1.775,3.701184389455385e-05,83.17403435574212,0,90,1.0,1,0.11699039908746645
1.78,2.0525516217290957e-05,82.51273515971924,0,90,1.0,1,0.10335536411792251
1.785,1.1178128483661116e-05,81.88088111637717,0,90,1.0,1,0.09032744569849831
1.79,5.978135409912517e-06,81.28749514724962,0,90,1.0,1,0.07809268344844567
1.795,3.1396702713238487e-06,80.73926599081013,0,90,1.0,1,0.0667889895012397
1.8,1.6192875458531019e-06,80.24059617216766,0,90,1.0,1,0.05650713757046714
1.805,8.201353897972012e-07,79.79375691779815,0,90,1.0,1,0.047293957068003066
1.81,4.0791415086824765e-07,79.39912541232576,0,90,1.0,1,0.039157224996407405
1.815,1.9923866938774793e-07,79.05547776723587,0,90,1.0,1,0.032071706540945794
1.82,9.556527981051257e-08,78.76031144478318,0,90,1.0,1,0.025985802985220293
1.825,4.501406988770349e-08,78.51017324373844,0,90,1.0,1,0.02082831430388527
1.83,0.0,78.30097276926729,0,90,1.0,1,0.016514902459119376
1.835,0.0,78.12826599064017,0,90,1.0,1,0.01295393795134378
1.84,0.0,77.98749847302761,0,90,1.0,1,0.010051514907785854
1.845,0.0,77.87420266617133,0,90,1.0,1,0.007715518890130479
1.85,0.0,77.78414786970576,0,90,1.0,1,0.005858718963005411
1.855,0.0,77.71344492859065,0,90,1.0,1,0.004400926362693753
1.86,0.0,77.6586102266577,0,90,1.0,1,0.0032703139517051565
1.865,0.0,77.61659513782196,0,90,1.0,1,0.0024040234602466038
1.87,0.0,77.58478784625699,0,90,1.0,1,0.0017482030156079722
1.875,0.0,77.56099450010981,0,90,1.0,1,0.001257618558965237
1.88,0.0,77.54340618910628,0,90,1.0,1,0.000894972971263469
1.885,0.0,77.53055741054968,0,90,1.0,1,0.0006300497020551748
1.89,0.0,77.521280672553,0,90,1.0,1,0.0004387767536701931
1.895,0.0,77.51466081314214,0,90,1.0,1,0.0003022848070544963
1.9,0.0,77.50999159166291,0,90,1.0,1,0.0002060121992352594
1.905,0.0,77.5067362035906,0,90,1.0,1,0.00013889079568259346
1.91,0.0,77.50449261953548,0,90,1.0,1,9.263133062852165e-05
1.915,0.0,77.50296406680117,0,90,1.0,1,6.11147794055557e-05
1.92,0.0,77.50193455126167,0,90,1.0,1,3.988765487978404e-05
1.925,0.0,77.5012490401714,0,90,1.0,1,2.5753405595913737e-05
1.93,0.0,77.50079776775692,0,90,1.0,1,1.644881973034083e-05
1.935,0.0,77.50050405794217,0,90,1.0,1,1.0392947261154929e-05
1.94,0.0,77.50031505643443,0,90,1.0,1,6.496008957339617e-06
1.945,0.0,77.5001948050246,0,90,1.0,1,4.016598445477752e-06
1.95,0.0,77.5001191559859,0,90,1.0,1,2.456824451536301e-06
1.955,0.0,77.5000721000363,0,90,1.0,1,1.4865986867166095e-06
1.96,0.0,77.50004315777153,0,90,1.0,1,8.898509593601591e-07
1.965,0.0,77.5000255556216,0,90,1.0,1,5.269200330859189e-07
1.97,0.0,77.50001496986195,0,90,1.0,1,3.086569474418735e-07
1.975,0.0,77.50000867467178,0,90,1.0,1,1.788592118673384e-07
1.98,0.0,77.5000049726995,0,90,1.0,1,1.0252988660148421e-07
1.985,0.001684486749771458,77.50000281991028,0,90,1.0,1,5.8142479971494826e-08
1.99,0.004172395771277602,77.50000158191183,0,90,1.0,1,3.261673879895864e-08
1.995,0.009438687428818865,77.50000087787598,0,90,1.0,1,1.810053559499475e-08
2.0,0.019500507867137046,77.50000048193445,0,90,1.0,1,9.936792776926202e-09
2.005,0.03679496976339974,77.50000026172589,0,90,1.0,1,5.3964100450534765e-09
2.01,0.06340728953298436,77.50000014060777,0,90,1.0,1,2.899129220768185e-09
2.015,0.09979255396093453,77.5000000747267,0,90,1.0,1,1.540756690617142e-09
2.02,0.14343835518453557,77.50000003928676,0,90,1.0,1,8.100362992053372e-10
2.025,0.18829581417209276,77.50000002043245,0,90,1.0,1,4.212876737040357e-10
2.03,0.2257481735193119,77.50000001051232,0,90,1.0,1,2.1674893724059412e-10
2.035,0.24718154073554727,77.50000000535033,0,90,1.0,1,1.1031608158463286e-10
2.04,0.24718154074102772,77.50000000269381,0,90,1.0,1,5.5542466387911174e-11
2.045,0.22574817354072055,77.5000000013417,0,90,1.0,1,2.766399251713571e-11
2.05,0.18829581422840957,77.50000000066107,0,90,1.0,1,1.3630407226731589e-11
2.055,0.14343835532456656,77.50000000032222,0,90,1.0,1,6.643647831185366e-12
2.06,0.09979255431561854,77.50000000015537,0,90,1.0,1,3.2034489608516187e-12
2.065,0.06340729067170194,77.50000000007411,0,90,1.0,1,1.5280331410263597e-12
2.07,0.03679497683410042,77.50000000003497,0,90,1.0,1,7.210909990538583e-13
2.075,0.019500578284482293,77.50000000001633,0,90,1.0,1,3.3666540345911553e-13
2.08,0.009439396781978427,77.50000000000753,0,90,1.0,1,1.5529387626921778e-13
2.085,0.004178588733610924,77.50000000000344,0,90,1.0,1,7.090776991915227e-14
2.09,0.0017299316936037381,77.50000000000155,0,90,1.0,1,3.193779719499007e-14
2.095,0.0008997325756988589,77.5000000000007,0,90,1.0,1,1.4357358372059756e-14
2.1,0.001634769674224814,77.50000000000031,0,90,1.0,1,6.446160901741115e-15
2.105,0.00614904736476635,77.50000000000013,0,90,1.0,1,2.637065823439547e-15
2.11,0.02168080359963608,77.50000000000006,0,90,1.0,1,1.172029254862021e-15
2.115,0.06433400338904088,77.50000000000003,0,90,1.0,1,5.860146274310105e-16
2.12,0.1593410769217493,77.50000000000001,0,90,1.0,1,2.9300731371550523e-16
2.125,0.3291989194808569,77.5,0,90,1.0,1,0.0
2.13,0.5672906802982638,77.5,0,90,1.0,1,0.0
2.135,0.815339152120446,77.5,0,90,1.0,1,0.0
2.14,0.9768711246313155,77.50000284150002,1,90,1.0,1,5.858762928180591e-08
2.145,0.9726380909165361,77.5000055087254,0,90,1.0,1,1.1358196688794948e-07
2.15,0.7921091683291741,77.50001136395807,0,90,1.0,1,2.3430841373428661e-07
2.155,0.49139090102639077,77.50002585890292,0,90,1.0,1,5.331732559967612e-07
2.16,0.15739335672107918,77.50006577270929,0,90,1.0,1,1.356138335905626e-06
2.165,-0.11102342218909485,77.50018247875063,0,90,1.0,1,3.76244846661487e-06
2.17,-0.2314207883647528,77.50052776496497,0,90,1.0,1,1.0881751855078582e-05
2.175,-0.2029124434754801,77.50152756139154,0,90,1.0,1,3.1496111165786474e-05
2.18,-0.11151350554305876,77.50430755613382,0,90,1.0,1,8.88155903881271e-05
2.185,-0.039430666652076896,77.5116563600092,0,90,1.0,1,0.00024033731977727622
2.19,-0.006087703519843621,77.53002739545968,0,90,1.0,1,0.0006191215558697577
2.195,0.005350271385530551,77.57333096905042,0,90,1.0,1,0.0015119787433075698
2.2,0.010381647827441833,77.66940490223725,0,90,1.0,1,0.0034928845822112743
2.205,0.015115203303506243,77.86976747664984,0,90,1.0,1,0.007624071683501874
2.21,0.021170964062928475,78.26211431813414,0,90,1.0,1,0.01571369728111625
2.215,0.029082821134029553,78.98267513398078,0,90,1.0,1,0.03057062131919128
2.22,0.03923107061708144,80.22218766058688,0,90,1.0,1,0.05612758063065738
2.225,0.051969043308817596,82.21612057642412,0,90,1.0,1,0.09723959951389932
2.23,0.06760532616283861,85.20932922752098,0,90,1.0,1,0.15895524180455634
2.235,0.08636519236693461,89.39039798617173,0,90,1.0,1,0.24516284507570588
2.24,0.10834733138818661,94.8028006534978,0,90,1.0,1,0.35675877636077935
2.245,0.1334809643017884,101.25612781731577,0,90,1.0,1,0.48981706839826333
2.25,0.16148868344343945,108.27370857382006,0,90,1.0,1,0.6345094551303105
2.255,0.191860907532018,115.11341104223824,0,90,1.0,1,0.775534248293572
2.26,0.22384764873847726,120.88000833622657,0,90,1.0,1,0.8944331615716817
2.265,0.25647215537198226,124.71329532894552,0,90,1.0,1,0.9734700067823818
2.27,0.2885689161419028,126.0,0,90,1.0,1,1.0
2.275,0.31884566517832524,124.53834900968857,0,90,1.0,1,0.9698628661791459
2.28,0.3459657668955683,120.59493192202842,0,90,1.0,1,0.8885552973614108
2.285,0.3686441789190902,114.83222413300682,0,90,1.0,1,0.7697365800619963
2.29,0.3857476379544367,108.13422420586735,0,90,1.0,1,0.6316334887807702
2.295,0.3963882865005728,101.3936098555063,0,90,1.0,1,0.492651749598068
2.3,0.4,95.33064507931,0,90,1.0,1,0.3676421665837114
2.305,0.39638828650057273,90.39185276201252,0,90,1.0,1,0.2658113971548973
2.31,0.38574763795443656,86.73955542986523,0,90,1.0,1,0.19050629752299453
2.315,0.36864417891908974,84.31059562557269,0,90,1.0,1,0.14042465207366367
2.32,0.345965766895568,82.9065602268215,0,90,1.0,1,0.11147546859425768
2.325,0.3188456651783249,82.28033336831763,0,90,1.0,1,0.09856357460448717
2.33,0.28856891614190205,82.19778113694667,0,90,1.0,1,0.09686146674116852
2.335,0.2564721553719815,82.46927305071628,0,90,1.0,1,0.1024592381590986
2.34,0.22384764873847685,82.95682150774277,0,90,1.0,1,0.11251178366479946
2.345,0.19186090753201765,83.56687754099825,0,90,1.0,1,0.12509025857728348
2.35,0.16148868344343878,84.23787322707521,0,90,1.0,1,0.1389252211768085
2.355,0.1334809643017881,84.92832444149448,0,90,1.0,1,0.15316132869060786
2.36,0.10834733138818531,85.60801881012263,0,90,1.0,1,0.16717564556953876
2.365,0.08636519236690572,86.25260772478875,0,90,1.0,1,0.18046613865543806
2.37,0.06760532616242629,86.84089403560439,0,90,1.0,1,0.19259575331143078
2.375,0.05196904332202373,87.35388295636871,0,90,1.0,1,0.20317284446121045
2.38,0.03923107185803287,87.77481720348132,0,90,1.0,1,0.21185190110270763
2.385,0.02908287038705761,88.08966243795557,0,90,1.0,1,0.21834355542176428
2.39,0.02117220077308346,88.28771551986046,0,90,1.0,1,0.22242712412083412
2.395,0.0151361834125735,88.36214631799686,0,90,1.0,1,0.22396177975251258
2.4,0.010626454858290009,88.31036736727964,0,90,1.0,1,0.22289417252122967
2.405,0.007326255555493652,88.13417633763018,0,90,1.0,1,0.21926136778618927
2.41,0.004960179211183015,87.83965035915766,0,90,1.0,2,0.213188667199127
2.415,0.0032978759379303545,87.43679744267308,0,90,1.0,2,0.20488242149841407
2.42,0.002153242296767213,86.9389917989111,0,90,1.0,2,0.1946183876064145
2.425,0.001380616732225004,86.36223716698538,0,90,1.0,2,0.18272653952547177
2.43,0.0008693106590991584,85.72431461211428,0,90,1.0,2,0.16957349715699555
2.435,0.000537524815942247,85.04387789533241,0,90,1.0,2,0.15554387413056525
2.44,0.0003263951340288585,84.33956014461978,0,90,1.0,2,0.14102185865195427
2.445,0.00019463030985187395,83.62915046826862,0,90,1.0,2,0.1263742364591468
2.45,0.00011397219555062695,82.92888923969679,0,90,1.0,2,0.11193586061230489
2.455,6.55403863487943e-05,82.25291740154772,0,90,1.0,2,0.09799829693912823
2.46,3.701184389455385e-05,81.61289990625842,0,90,1.0,2,0.08480205992285401
2.465,2.0525516217290957e-05,81.01782800176962,0,90,1.0,2,0.07253253611896114
2.47,1.1178128483661116e-05,80.47399100328275,0,90,1.0,2,0.0613194021295412
2.475,5.978135409912517e-06,79.9850966673004,0,90,1.0,2,0.05123910654227622
2.48,3.1396702713238487e-06,79.55251108450634,0,90,1.0,2,0.04231981617538835
2.485,1.6192875458531019e-06,79.17558445710158,0,90,1.0,2,0.034548133136115024
2.49,8.201353897972012e-07,78.85202811529082,0,90,1.0,2,0.027876868356511774
2.495,4.0791415086824765e-07,78.57831019218708,0,90,1.0,2,0.022233199838908767
2.5,1.9923866938774793e-07,78.35004180586505,0,90,1.0,2,0.01752663517247519
2.505,9.556527981051257e-08,78.16233155760507,0,90,1.0,2,0.013656320775362298
2.51,4.501406988770349e-08,78.01009280593172,0,90,1.0,2,0.01051737744189113
2.515,0.0,77.88829476616297,0,90,1.0,2,0.008006077652844772
2.52,0.0,77.79215442099877,0,90,1.0,2,0.006023802494820002
2.525,0.0,77.71727110655786,0,90,1.0,2,0.004479816630058962
2.53,0.0,77.65970925268655,0,90,1.0,2,0.003292974282196985
2.535,0.0,77.61603707332719,0,90,1.0,2,0.0023925169758183882
2.54,0.0,77.58333012691409,0,90,1.0,2,0.0017181469466823053
2.545,0.0,77.55914879585012,0,90,1.0,2,0.0012195628010334112
2.55,0.0,77.54149811404007,0,90,1.0,2,0.0008556312173209687
2.555,0.0,77.52877725728622,0,90,1.0,2,0.0005933455110561316
2.56,0.0,77.51972463735181,0,90,1.0,2,0.0004066935536456509
2.565,0.0,77.51336310074132,0,90,1.0,2,0.00027552785033640716
2.57,0.0,77.50894837231351,0,90,1.0,2,0.0001845025219280774
2.575,0.0,77.50592269592266,0,90,1.0,2,0.00012211744170440163
2.58,0.0,77.50387465835057,0,90,1.0,2,7.988986289831832e-05
2.585,0.0,77.50250545138663,0,90,1.0,2,5.1658791476807595e-05
2.59,0.0,77.50160131633649,0,90,1.0,2,3.301683168021236e-05
2.595,0.0,77.50101159546982,0,90,1.0,2,2.0857638552975802e-05
2.6,0.0,77.5006316481158,0,90,1.0,2,1.3023672490711779e-05
2.605,0.0,77.50038983616128,0,90,1.0,2,8.037858995371654e-06
2.61,0.0,77.50023780863849,0,90,1.0,2,4.903270896659603e-06
2.615,0.0,77.50014338764066,0,90,1.0,2,2.9564461992214493e-06
2.62,0.0,77.50008545439401,0,90,1.0,2,1.7619462682629541e-06
2.625,0.0,77.5000503379664,0,90,1.0,2,1.0378962144255338e-06
2.63,0.0,77.50002930863025,0,90,1.0,2,6.04301654562995e-07
2.635,0.0,77.50001686684932,0,90,1.0,2,3.47770089106656e-07
2.64,0.0,77.50000959424924,0,90,1.0,2,1.9781957185729233e-07
2.645,0.001684486749771458,77.50000539419466,0,90,1.0,2,1.1122050843190777e-07
2.65,0.004172395771277602,77.50000299764929,0,90,1.0,2,6.180720184911667e-08
2.655,0.009438687428818865,77.50000164654504,0,90,1.0,2,3.394938235689233e-08
2.66,0.019500507867137046,77.50000089393305,0,90,1.0,2,1.8431609246878916e-08
2.665,0.03679496976339974,77.50000047970579,0,90,1.0,2,9.890841025930826e-09
2.67,0.06340728953298436,77.5000002544389,0,90,1.0,2,5.246162926755695e-09
2.675,0.09979255396093453,77.50000013339228,0,90,1.0,2,2.750356222265706e-09
2.68,0.14343835518453557,77.50000006912201,0,90,1.0,2,1.4251960711243151e-09
2.685,0.18829581417209276,77.50000003540305,0,90,1.0,2,7.299597444253993e-10
2.69,0.2257481735193119,77.5000000179227,0,90,1.0,2,3.695402380433678e-10
2.695,0.24718154073554727,77.5000000089682,0,90,1.0,2,1.8491134854689477e-10
2.7,0.24718154074102772,77.50000000443552,0,90,1.0,2,9.145402877151092e-11
2.705,0.22574817354072055,77.50000000216832,0,90,1.0,2,4.4707641941339216e-11
2.71,0.18829581422840957,77.50000000104771,0,90,1.0,2,2.160225721098934e-11
2.715,0.14343835532456656,77.50000000050038,0,90,1.0,2,1.0317080523236655e-11
2.72,0.09979255431561854,77.5000000002362,0,90,1.0,2,4.870074561265413e-12
2.725,0.06340729067170194,77.5000000001102,0,90,1.0,2,2.272271717863743e-12
2.73,0.03679497683410042,77.50000000005083,0,90,1.0,2,1.0480871611603622e-12
2.735,0.019500578284482293,77.50000000002316,0,90,1.0,2,4.776019213562735e-13
2.74,0.009439396781978427,77.50000000001044,0,90,1.0,2,2.1536037558089634e-13
2.745,0.004178588733610924,77.50000000000465,0,90,1.0,2,9.581339158497021e-14
2.75,0.0017299316936037381,77.50000000000205,0,90,1.0,2,4.2193053175032755e-14
2.755,0.0008997325756988589,77.5000000000009,0,90,1.0,2,1.845946076407683e-14
2.76,0.001634769674224814,77.50000000000038,0,90,1.0,2,7.911197470318642e-15
2.765,0.00614904736476635,77.50000000000016,0,90,1.0,2,3.2230804508705575e-15
2.77,0.02168080359963608,77.50000000000007,0,90,1.0,2,1.465036568577526e-15
2.775,0.06433400338904088,77.50000000000003,0,90,1.0,2,5.860146274310105e-16
2.78,0.1593410769217493,77.50000000000001,0,90,1.0,2,2.9300731371550523e-16
2.785,0.3291989194808569,77.5,0,90,1.0,2,0.0
2.79,0.5672906802982638,77.5,0,90,1.0,2,0.0
2.795,0.815339152120446,77.5,0,90,1.0,2,0.0
2.8,0.9768711246313155,77.50000285066528,1,90,1.0,2,5.8776603762772095e-08
2.805,0.9726380909165361,77.50000533774794,0,90,1.0,2,1.1005665847620811e-07
2.81,0.7921091683291741,77.50001055134113,0,90,1.0,2,2.1755342544631426e-07
2.815,0.49139090102639077,77.50002272509559,0,90,1.0,2,4.685586719629616e-07
2.82,0.15739335672107918,77.50005414678377,0,90,1.0,2,1.1164285312949602e-06
2.825,-0.11102342218909485,77.500140505292,0,90,1.0,2,2.8970163297926024e-06
2.83,-0.2314207883647528,77.50038258369432,0,90,1.0,2,7.888323594182947e-06
2.835,-0.2029124434754801,77.5010527695429,0,90,1.0,2,2.1706588513294712e-05
2.84,-0.11151350554305876,77.50284972513398,0,90,1.0,2,5.875721925740811e-05
2.845,-0.039430666652076896,77.50746597756105,0,90,1.0,2,0.00015393768167121978
2.85,-0.006087703519843621,77.51876169890194,0,90,1.0,2,0.0003868391526173268
2.855,0.005350271385530551,77.54500396355465,0,90,1.0,2,0.000927916774322657
2.86,0.010381647827441833,77.60277510805538,0,90,1.0,2,0.0021190743928944885
2.865,0.015115203303506243,77.72313394409493,0,90,1.0,2,0.004600699878245889
2.87,0.021170964062928475,77.96019364845812,0,90,1.0,2,0.009488528834187958
2.875,0.029082821134029553,78.40119339193035,0,90,1.0,2,0.018581307050110282
2.88,0.03923107061708144,79.17526941030879,0,90,1.0,2,0.034541637325954354
2.885,0.051969043308817596,80.45579048450003,0,90,1.0,2,0.06094413370103151
2.89,0.06760532616283861,82.44931195947832,0,90,1.0,2,0.10204766926759427
2.895,0.08636519236693461,85.36455622127653,0,90,1.0,2,0.16215579837683566
2.9,0.10834733138818661,89.35900055276574,0,90,1.0,2,0.24451547531475742
2.905,0.1334809643017884,94.46913761169944,0,90,1.0,2,0.3498791260144214
2.91,0.16148868344343945,100.54136540845477,0,90,1.0,2,0.47507969914339726
2.915,0.191860907532018,107.18914743882308,0,90,1.0,2,0.612147369872641
2.92,0.22384764873847726,113.8027021799891,0,90,1.0,2,0.7485093232987443
2.925,0.25647215537198226,119.62609966806052,0,90,1.0,2,0.868579374599186
2.93,0.2885689161419028,123.89459021136328,0,90,1.0,2,0.9565894888940882
2.935,0.31884566517832524,126.0,0,90,1.0,2,1.0
2.94,0.3459657668955683,125.63555232071732,0,90,1.0,2,0.992485614860151
2.945,0.3686441789190902,122.8728829839707,0,90,1.0,2,0.9355233604942412
2.95,0.3857476379544367,118.14488894980822,0,90,1.0,2,0.8380389474187262
2.955,0.3963882865005728,112.14032116465883,0,90,1.0,2,0.7142334260754398
2.96,0.4,105.64571806451514,0,90,1.0,2,0.5803240838044358
2.965,0.39638828650057273,99.38474665898676,0,90,1.0,2,0.4512318898760156
2.97,0.38574763795443656,93.89946334087666,0,90,1.0,2,0.3381332647603436
2.975,0.36864417891908974,89.49722210145336,0,90,1.0,2,0.24736540415367753
2.98,0.345965766895568,86.26179009897115,0,90,1.0,2,0.18065546595816798
2.985,0.3188456651783249,84.10837075711324,0,90,1.0,2,0.1362550671569739
2.99,0.28856891614190205,82.85525798893129,0,90,1.0,2,0.11041769049342856
2.995,0.2564721553719815,82.28893368935184,0,90,1.0,2,0.09874090081137807
3.0,0.22384764873847685,82.20954302821511,0,90,1.0,2,0.09710397996319811
3.005,0.19186090753201765,82.45412614899202,0,90,1.0,2,0.1021469309070519
3.01,0.16148868344343878,82.9020248457851,0,90,1.0,2,0.11138195558319808
3.015,0.1334809643017881,83.46956389310165,0,90,1.0,2,0.1230837916103433
3.02,0.10834733138818531,84.1004855952502,0,90,1.0,2,0.13609248650000424
3.025,0.08636519236690572,84.75645137662403,0,90,1.0,2,0.14961755415719646
3.03,0.06760532616242629,85.40966434514888,0,90,1.0,2,0.16308586278657491
3.035,0.05196904332202373,86.0380544133898,0,90,1.0,2,0.17604235903896498
3.04,0.03923107185803287,86.62263152761466,0,90,1.0,2,0.18809549541473522
3.045,0.02908287038705761,87.14635512742458,0,90,1.0,2,0.1988939201530842
3.05,0.02117220077308346,87.59392038235315,0,90,1.0,2,0.20812206973924013
3.055,0.0151361834125735,87.95201971947535,0,90,1.0,2,0.21550556122629577
3.06,0.010626454858290009,88.20979239540345,0,90,1.0,2,0.22082046176089595
3.065,0.007326255555493652,88.35928803931012,0,90,1.0,2,0.2239028461713426
3.07,0.004960179211183015,88.3958424677883,0,90,1.0,2,0.22465654572759378
3.075,0.0032978759379303545,88.31830826653777,0,90,1.0,2,0.22305790240284062
3.08,0.002153242296767213,88.12911092076266,0,90,1.0,2,0.21915692620129187
3.085,0.001380616732225004,87.83412164429782,0,90,1.0,2,0.21307467307830563
3.09,0.0008693106590991584,87.44235443924178,0,90,1.0,2,0.20499699874725325
3.095,0.000537524815942247,86.96550861191454,0,90,1.0,2,0.19516512601885658
3.1,0.0003263951340288585,86.41738895346812,0,90,1.0,2,0.18386368976222928
3.105,0.00019463030985187395,85.81324358973214,0,90,1.0,2,0.171407084324374
3.11,0.00011397219555062695,85.16906367666229,0,90,1.0,2,0.15812502426107813
3.115,6.55403863487943e-05,84.5008894969962,0,90,1.0,2,0.14434823705146793
3.12,3.701184389455385e-05,83.82416428298873,0,90,1.0,2,0.1303951398554378
3.125,2.0525516217290957e-05,83.15317077049401,0,90,1.0,2,0.11656022207204154
3.13,1.1178128483661116e-05,82.50057687127921,0,90,1.0,2,0.10310467775833418
3.135,5.978135409912517e-06,81.8771068894783,0,90,1.0,2,0.09024962658718141
3.14,3.1396702713238487e-06,81.29134441020258,0,90,1.0,2,0.07817204969489863
3.145,1.6192875458531019e-06,80.74966329577829,0,90,1.0,2,0.06700336692326372
3.15,8.201353897972012e-07,80.25627492189922,0,90,1.0,2,0.05683041076080865
3.155,4.0791415086824765e-07,79.81337343151264,0,90,1.0,2,0.04769842126830195
3.16,1.9923866938774793e-07,79.42135668043277,0,90,1.0,2,0.03961560165840754
3.165,9.556527981051257e-08,79.07909874103451,0,90,1.0,2,0.032558736928546675
3.17,4.501406988770349e-08,78.78425013843707,0,90,1.0,2,0.026479384297671618
3.175,0.0,78.5335440627456,0,90,1.0,2,0.021310186860734128
3.18,0.0,78.32309016640502,0,90,1.0,2,0.016970931266082963
3.185,0.0,78.14864170879353,0,90,1.0,2,0.013374055851413066
3.19,0.0,78.00582625821215,0,90,1.0,2,0.010429407385817584
3.195,0.0,77.89033447553675,0,90,1.0,2,0.008048133516221589
3.2,0.0,77.79806535061086,0,90,1.0,2,0.006145677332182583
3.205,0.0,77.72522941908457,0,90,1.0,2,0.0046439055481354696
3.21,0.0,77.66841384122971,0,90,1.0,2,0.0034724503346331417
3.215,0.0,77.62461476063879,0,90,1.0,2,0.0025693765080163334
3.22,0.0,77.59124314265756,0,90,1.0,2,0.001881301910465172
3.225,0.0,77.5661104364004,0,90,1.0,2,0.0013631017814514075
3.23,0.0,77.54740005593854,0,90,1.0,2,0.0009773207410008
3.235,0.0,77.53362998903987,0,90,1.0,2,0.0006934018358735332
3.24,0.0,77.52361095963337,0,90,1.0,2,0.00048682390996646063
3.245,0.0,77.51640361595736,0,90,1.0,2,0.00033821888571872985
3.25,0.0,77.51127728584574,0,90,1.0,2,0.00023252135764404482
3.255,0.0,77.50767200055635,0,90,1.0,2,0.0001581855784815344
3.26,0.0,77.50516477853803,0,90,1.0,2,0.00010649027913466187
3.265,0.0,77.503440597138,0,90,1.0,2,7.094014717516253e-05
3.27,0.0,77.5022680623265,0,90,1.0,2,4.676417168027292e-05
3.275,0.0,77.50147950074185,0,90,1.0,2,3.0505169935078867e-05
3.28,0.0,77.50095502431975,0,90,1.0,2,1.9691223087647813e-05
3.285,0.0,77.50061003213925,0,90,1.0,2,1.2577982252566668e-05
3.29,0.0,77.50038559380044,0,90,1.0,2,7.95038763803906e-06
3.295,0.0,77.50024118284321,0,90,1.0,2,4.9728421280745995e-06
3.3,0.0,77.50014928006648,0,90,1.0,2,3.0779395150644987e-06
3.305,0.0,77.50009143158961,0,90,1.0,2,1.8851874146323622e-06
3.31,0.0,77.50005541530939,0,90,1.0,2,1.1425836987655202e-06
3.315,0.0,77.50003323550604,0,90,1.0,2,6.852681657310126e-07
3.32,0.0,77.50001972485731,0,90,1.0,2,4.06698088869403e-07
3.325,0.0,77.50001158415837,0,90,1.0,2,2.3884862622891006e-07
3.33,0.0,77.50000673215557,0,90,1.0,2,1.388073313198229e-07
3.335,0.0,77.5000038715319,0,90,1.0,2,7.982540004489884e-08
3.34,0.001684486749771458,77.50000220318306,0,90,1.0,2,4.542645480852894e-08
3.345,0.004172395771277602,77.5000012406731,0,90,1.0,2,2.5580888665065207e-08
3.35,0.009438687428818865,77.50000069135831,0,90,1.0,2,1.4254810500376349e-08
3.355,0.019500507867137046,77.50000038123086,0,90,1.0,2,7.860430144122352e-09
3.36,0.03679496976339974,77.50000020802328,0,90,1.0,2,4.289139801632287e-09
3.365,0.06340728953298436,77.5000001123246,0,90,1.0,2,2.315971121638587e-09
3.37,0.09979255396093453,77.50000006001736,0,90,1.0,2,1.237471266351124e-09
3.375,0.14343835518453557,77.50000003173349,0,90,1.0,2,6.542988098631541e-10
3.38,0.18829581417209276,77.50000001660344,0,90,1.0,2,3.4233890407458886e-10
3.385,0.2257481735193119,77.50000000859642,0,90,1.0,2,1.772456912054697e-10
3.39,0.24718154073554727,77.50000000440428,0,90,1.0,2,9.080999869596425e-11
3.395,0.24718154074102772,77.50000000223291,0,90,1.0,2,4.603936018217619e-11
3.4,0.22574817354072055,77.50000000112023,0,90,1.0,2,2.3097473532879562e-11
3.405,0.18829581422840957,77.50000000055614,0,90,1.0,2,1.1466841222256297e-11
3.41,0.14343835532456656,77.5000000002732,0,90,1.0,2,5.633065606180588e-12
3.415,0.09979255431561854,77.50000000013281,0,90,1.0,2,2.738446353985112e-12
3.42,0.06340729067170194,77.50000000006389,0,90,1.0,2,1.3173608824649115e-12
3.425,0.03679497683410042,77.50000000003041,0,90,1.0,2,6.270356513511812e-13
3.43,0.019500578284482293,77.50000000001432,0,90,1.0,2,2.953513722252293e-13
3.435,0.009439396781978427,77.50000000000668,0,90,1.0,2,1.3771343744628745e-13
3.44,0.004178588733610924,77.50000000000308,0,90,1.0,2,6.358258707626464e-14
3.445,0.0017299316936037381,77.5000000000014,0,90,1.0,2,2.9007724057835016e-14
3.45,0.0008997325756988589,77.50000000000064,0,90,1.0,2,1.3185329117197736e-14
3.455,0.001634769674224814,77.50000000000028,0,90,1.0,2,5.860146274310104e-15
3.46,0.00614904736476635,77.50000000000013,0,90,1.0,2,2.637065823439547e-15
3.465,0.02168080359963608,77.50000000000006,0,90,1.0,2,1.172029254862021e-15
3.47,0.06433400338904088,77.50000000000003,0,90,1.0,2,5.860146274310105e-16
3.475,0.1593410769217493,77.50000000000001,0,90,1.0,2,2.9300731371550523e-16
3.48,0.3291989194808569,77.5,0,90,1.0,2,0.0
3.485,0.5672906802982638,77.5,0,90,1.0,2,0.0
3.49,0.815339152120446,77.5,0,90,1.0,2,0.0
3.495,0.9768711246313155,77.50000285066528,1,90,1.0,2,5.8776603762772095e-08
3.5,0.9726380909165361,77.50000533774794,0,90,1.0,2,1.1005665847620811e-07
3.505,0.7921091683291741,77.50001055134113,0,90,1.0,2,2.1755342544631426e-07
3.51,0.49139090102639077,77.50002272509559,0,90,1.0,2,4.685586719629616e-07
3.515,0.15739335672107918,77.50005414678377,0,90,1.0,2,1.1164285312949602e-06
3.52,-0.11102342218909485,77.500140505292,0,90,1.0,2,2.8970163297926024e-06
3.525,-0.2314207883647528,77.50038258369432,0,90,1.0,2,7.888323594182947e-06
3.53,-0.2029124434754801,77.5010527695429,0,90,1.0,2,2.1706588513294712e-05
3.535,-0.11151350554305876,77.50284972513398,0,90,1.0,2,5.875721925740811e-05
3.54,-0.039430666652076896,77.50746597756105,0,90,1.0,2,0.00015393768167121978
3.545,-0.006087703519843621,77.51876169890194,0,90,1.0,2,0.0003868391526173268
3.55,0.005350271385530551,77.54500396355465,0,90,1.0,2,0.000927916774322657
3.555,0.010381647827441833,77.60277510805538,0,90,1.0,2,0.0021190743928944885
3.56,0.015115203303506243,77.72313394409493,0,90,1.0,2,0.004600699878245889
3.565,0.021170964062928475,77.96019364845812,0,90,1.0,2,0.009488528834187958
3.57,0.029082821134029553,78.40119339193035,0,90,1.0,2,0.018581307050110282
3.575,0.03923107061708144,79.17526941030879,0,90,1.0,2,0.034541637325954354
3.58,0.051969043308817596,80.45579048450003,0,90,1.0,2,0.06094413370103151
3.585,0.06760532616283861,82.44931195947832,0,90,1.0,2,0.10204766926759427
3.59,0.08636519236693461,85.36455622127653,0,90,1.0,2,0.16215579837683566
3.595,0.10834733138818661,89.35900055276574,0,90,1.0,2,0.24451547531475742
3.6,0.1334809643017884,94.46913761169944,0,90,1.0,2,0.3498791260144214
3.605,0.16148868344343945,100.54136540845477,0,90,1.0,2,0.47507969914339726
3.61,0.191860907532018,107.18914743882308,0,90,1.0,2,0.612147369872641
3.615,0.22384764873847726,113.8027021799891,0,90,1.0,3,0.7485093232987443
3.62,0.25647215537198226,119.62609966806052,0,90,1.0,3,0.868579374599186
3.625,0.2885689161419028,123.89459021136328,0,90,1.0,3,0.9565894888940882
3.63,0.31884566517832524,126.0,0,90,1.0,3,1.0
3.635,0.3459657668955683,125.63555232071732,0,90,1.0,3,0.992485614860151
3.64,0.3686441789190902,122.8728829839707,0,90,1.0,3,0.9355233604942412
3.645,0.3857476379544367,118.14488894980822,0,90,1.0,3,0.8380389474187262
3.65,0.3963882865005728,112.14032116465883,0,90,1.0,3,0.7142334260754398
3.655,0.4,105.64571806451514,0,90,1.0,3,0.5803240838044358
3.66,0.39638828650057273,99.38474665898676,0,90,1.0,3,0.4512318898760156
3.665,0.38574763795443656,93.89946334087666,0,90,1.0,3,0.3381332647603436
3.67,0.36864417891908974,89.49722210145336,0,90,1.0,3,0.24736540415367753
3.675,0.345965766895568,86.26179009897115,0,90,1.0,3,0.18065546595816798
3.68,0.3188456651783249,84.10837075711324,0,90,1.0,3,0.1362550671569739
3.685,0.28856891614190205,82.85525798893129,0,90,1.0,3,0.11041769049342856
3.69,0.2564721553719815,82.28893368935184,0,90,1.0,3,0.09874090081137807
3.695,0.22384764873847685,82.20954302821511,0,90,1.0,3,0.09710397996319811
3.7,0.19186090753201765,82.45412614899202,0,90,1.0,3,0.1021469309070519
3.705,0.16148868344343878,82.9020248457851,0,90,1.0,3,0.11138195558319808
3.71,0.1334809643017881,83.46956389310165,0,90,1.0,3,0.1230837916103433
3.715,0.10834733138818531,84.1004855952502,0,90,1.0,3,0.13609248650000424
3.72,0.08636519236690572,84.75645137662403,0,90,1.0,3,0.14961755415719646
3.725,0.06760532616242629,85.40966434514888,0,90,1.0,3,0.16308586278657491
3.73,0.05196904332202373,86.0380544133898,0,90,1.0,3,0.17604235903896498
3.735,0.03923107185803287,86.62263152761466,0,90,1.0,3,0.18809549541473522
3.74,0.02908287038705761,87.14635512742458,0,90,1.0,3,0.1988939201530842
3.745,0.02117220077308346,87.59392038235315,0,90,1.0,3,0.20812206973924013
3.75,0.0151361834125735,87.95201971947535,0,90,1.0,3,0.21550556122629577
3.755,0.010626454858290009,88.20979239540345,0,90,1.0,3,0.22082046176089595
3.76,0.007326255555493652,88.35928803931012,0,90,1.0,3,0.2239028461713426
3.765,0.004960179211183015,88.3958424677883,0,90,1.0,3,0.22465654572759378
3.77,0.0032978759379303545,88.31830826653777,0,90,1.0,3,0.22305790240284062
3.775,0.002153242296767213,88.12911092076266,0,90,1.0,3,0.21915692620129187
3.78,0.001380616732225004,87.83412164429782,0,90,1.0,3,0.21307467307830563
3.785,0.0008693106590991584,87.44235443924178,0,90,1.0,3,0.20499699874725325
3.79,0.000537524815942247,86.96550861191454,0,90,1.0,3,0.19516512601885658
3.795,0.0003263951340288585,86.41738895346812,0,90,1.0,3,0.18386368976222928
3.8,0.00019463030985187395,85.81324358973214,0,90,1.0,3,0.171407084324374
3.805,0.00011397219555062695,85.16906367666229,0,90,1.0,3,0.15812502426107813
3.81,6.55403863487943e-05,84.5008894969962,0,90,1.0,3,0.14434823705146793
3.815,3.701184389455385e-05,83.82416428298873,0,90,1.0,3,0.1303951398554378
3.82,2.0525516217290957e-05,83.15317077049401,0,90,1.0,3,0.11656022207204154
3.825,1.1178128483661116e-05,82.50057687127921,0,90,1.0,3,0.10310467775833418
3.83,5.978135409912517e-06,81.8771068894783,0,90,1.0,3,0.09024962658718141
3.835,3.1396702713238487e-06,81.29134441020258,0,90,1.0,3,0.07817204969489863
3.84,1.6192875458531019e-06,80.74966329577829,0,90,1.0,3,0.06700336692326372
3.845,8.201353897972012e-07,80.25627492189922,0,90,1.0,3,0.05683041076080865
3.85,4.0791415086824765e-07,79.81337343151264,0,90,1.0,3,0.04769842126830195
3.855,1.9923866938774793e-07,79.42135668043277,0,90,1.0,3,0.03961560165840754
3.86,9.556527981051257e-08,79.07909874103451,0,90,1.0,3,0.032558736928546675
3.865,4.501406988770349e-08,78.78425013843707,0,90,1.0,3,0.026479384297671618
3.87,0.0,78.5335440627456,0,90,1.0,3,0.021310186860734128
3.875,0.0,78.32309016640502,0,90,1.0,3,0.016970931266082963
3.88,0.0,78.14864170879353,0,90,1.0,3,0.013374055851413066
3.885,0.0,78.00582625821215,0,90,1.0,3,0.010429407385817584
3.89,0.0,77.89033447553675,0,90,1.0,3,0.008048133516221589
3.895,0.0,77.79806535061086,0,90,1.0,3,0.006145677332182583
3.9,0.0,77.72522941908457,0,90,1.0,3,0.0046439055481354696
3.905,0.0,77.66841384122971,0,90,1.0,3,0.0034724503346331417
3.91,0.0,77.62461476063879,0,90,1.0,3,0.0025693765080163334
3.915,0.0,77.59124314265756,0,90,1.0,3,0.001881301910465172
3.92,0.0,77.5661104364004,0,90,1.0,3,0.0013631017814514075
3.925,0.0,77.54740005593854,0,90,1.0,3,0.0009773207410008
3.93,0.0,77.53362998903987,0,90,1.0,3,0.0006934018358735332
3.935,0.0,77.52361095963337,0,90,1.0,3,0.00048682390996646063
3.94,0.0,77.51640361595736,0,90,1.0,3,0.00033821888571872985
3.945,0.0,77.51127728584574,0,90,1.0,3,0.00023252135764404482
3.95,0.0,77.50767200055635,0,90,1.0,3,0.0001581855784815344
3.955,0.0,77.50516477853803,0,90,1.0,3,0.00010649027913466187
3.96,0.0,77.503440597138,0,90,1.0,3,7.094014717516253e-05
3.965,0.0,77.5022680623265,0,90,1.0,3,4.676417168027292e-05
3.97,0.0,77.50147950074185,0,90,1.0,3,3.0505169935078867e-05
3.975,0.0,77.50095502431975,0,90,1.0,3,1.9691223087647813e-05
3.98,0.0,77.50061003213925,0,90,1.0,3,1.2577982252566668e-05
3.985,0.0,77.50038559380044,0,90,1.0,3,7.95038763803906e-06
3.99,0.0,77.50024118284321,0,90,1.0,3,4.9728421280745995e-06
3.995,0.0,77.50014928006648,0,90,1.0,3,3.0779395150644987e-06
4.0,0.0,77.50009143158961,0,90,1.0,3,1.8851874146323622e-06
4.005,0.0,77.50005541530939,0,90,1.0,3,1.1425836987655202e-06
4.01,0.0,77.50003323550604,0,90,1.0,3,6.852681657310126e-07
4.015,0.0,77.50001972485731,0,90,1.0,3,4.06698088869403e-07
4.02,0.0,77.50001158415837,0,90,1.0,3,2.3884862622891006e-07
4.025,0.0,77.50000673215557,0,90,1.0,3,1.388073313198229e-07
4.03,0.0,77.5000038715319,0,90,1.0,3,7.982540004489884e-08
4.035,0.001684486749771458,77.50000220318306,0,90,1.0,3,4.542645480852894e-08
4.04,0.004172395771277602,77.5000012406731,0,90,1.0,3,2.5580888665065207e-08
4.045,0.009438687428818865,77.50000069135831,0,90,1.0,3,1.4254810500376349e-08
4.05,0.019500507867137046,77.50000038123086,0,90,1.0,3,7.860430144122352e-09
4.055,0.03679496976339974,77.50000020802328,0,90,1.0,3,4.289139801632287e-09
4.06,0.06340728953298436,77.5000001123246,0,90,1.0,3,2.315971121638587e-09
4.065,0.09979255396093453,77.50000006001736,0,90,1.0,3,1.237471266351124e-09
4.07,0.14343835518453557,77.50000003173349,0,90,1.0,3,6.542988098631541e-10
4.075,0.18829581417209276,77.50000001660344,0,90,1.0,3,3.4233890407458886e-10
4.08,0.2257481735193119,77.50000000859642,0,90,1.0,3,1.772456912054697e-10
4.085,0.24718154073554727,77.50000000440428,0,90,1.0,3,9.080999869596425e-11
4.09,0.24718154074102772,77.50000000223291,0,90,1.0,3,4.603936018217619e-11
4.095,0.22574817354072055,77.50000000112023,0,90,1.0,3,2.3097473532879562e-11
4.1,0.18829581422840957,77.50000000055614,0,90,1.0,3,1.1466841222256297e-11
4.105,0.14343835532456656,77.5000000002732,0,90,1.0,3,5.633065606180588e-12
4.11,0.09979255431561854,77.50000000013281,0,90,1.0,3,2.738446353985112e-12
4.115,0.06340729067170194,77.50000000006389,0,90,1.0,3,1.3173608824649115e-12
4.12,0.03679497683410042,77.50000000003041,0,90,1.0,3,6.270356513511812e-13
4.125,0.019500578284482293,77.50000000001432,0,90,1.0,3,2.953513722252293e-13
4.13,0.009439396781978427,77.50000000000668,0,90,1.0,3,1.3771343744628745e-13
4.135,0.004178588733610924,77.50000000000308,0,90,1.0,3,6.358258707626464e-14
4.14,0.0017299316936037381,77.5000000000014,0,90,1.0,3,2.9007724057835016e-14
4.145,0.0008997325756988589,77.50000000000064,0,90,1.0,3,1.3185329117197736e-14
4.15,0.001634769674224814,77.50000000000028,0,90,1.0,3,5.860146274310104e-15
4.155,0.00614904736476635,77.50000000000013,0,90,1.0,3,2.637065823439547e-15
4.16,0.02168080359963608,77.50000000000006,0,90,1.0,3,1.172029254862021e-15
4.165,0.06433400338904088,77.50000000000003,0,90,1.0,3,5.860146274310105e-16
4.17,0.1593410769217493,77.50000000000001,0,90,1.0,3,2.9300731371550523e-16
4.175,0.3291989194808569,77.5,0,90,1.0,3,0.0
4.18,0.5672906802982638,77.5,0,90,1.0,3,0.0
4.185,0.815339152120446,77.5,0,90,1.0,3,0.0
4.19,0.9768711246313155,77.50000284359693,1,90,1.0,3,5.8630864561995826e-08
4.195,0.9726380909165361,77.50000548419933,0,90,1.0,3,1.1307627494144193e-07
4.2,0.7921091683291741,77.50001124088986,0,90,1.0,3,2.317709249813767e-07
4.205,0.49139090102639077,77.50002536697961,0,90,1.0,3,5.230305075000024e-07
4.21,0.15739335672107918,77.50006389056809,0,90,1.0,3,1.3173313007395262e-06
4.215,-0.11102342218909485,77.50017550461766,0,90,1.0,3,3.6186519104816886e-06
4.22,-0.2314207883647528,77.50050312573545,0,90,1.0,3,1.037372650410024e-05
4.225,-0.2029124434754801,77.50144560488555,0,90,1.0,3,2.9806286299926985e-05
4.23,-0.11151350554305876,77.50405253381912,0,90,1.0,3,8.355739833237495e-05
4.235,-0.039430666652076896,77.51091584732082,0,90,1.0,3,0.0002250690169240588
4.24,-0.006087703519843621,77.52802210333864,0,90,1.0,3,0.0005777753265699489
4.245,0.005350271385530551,77.56826624200473,0,90,1.0,3,0.0014075513815407234
4.25,0.010381647827441833,77.65747108052543,0,90,1.0,3,0.003246826402586094
4.255,0.015115203303506243,77.84353029025743,0,90,1.0,3,0.007083098768194506
4.26,0.021170964062928475,78.208294728616,0,90,1.0,3,0.014604015023010236
4.265,0.029082821134029553,78.87971080766134,0,90,1.0,3,0.02844764551879051
4.27,0.03923107061708144,80.03860769687986,0,90,1.0,3,0.052342426739791025
4.275,0.051969043308817596,81.9114678020172,0,90,1.0,3,0.0909580990106639
4.28,0.06760532616283861,84.73967911802492,0,90,1.0,3,0.14927173439226646
4.285,0.08636519236693461,88.71983424376735,0,90,1.0,3,0.23133678853128561
4.29,0.10834733138818661,93.92009701837561,0,90,1.0,3,0.3385587014098065
4.295,0.1334809643017884,100.19265177353559,0,90,1.0,3,0.46788972728939354
4.3,0.16148868344343945,107.11553201194583,0,90,1.0,3,0.6106295260195017
4.305,0.191860907532018,113.99980843728613,0,90,1.0,3,0.7525733698409512
4.31,0.22384764873847726,119.98355460807562,0,90,1.0,3,0.8759495795479509
4.315,0.25647215537198226,124.2034706308707,0,90,1.0,3,0.9629581573375402
4.32,0.2885689161419028,126.0,0,90,1.0,3,1.0
4.325,0.31884566517832524,125.0896730388076,0,90,1.0,3,0.9812303719341774
4.33,0.3459657668955683,121.64309031720336,0,90,1.0,3,0.9101668106639867
4.335,0.3686441789190902,116.23941024525399,0,90,1.0,3,0.7987507267062679
4.34,0.3857476379544367,109.71438740562652,0,90,1.0,3,0.6642141733118871
4.345,0.3963882865005728,102.95711288915504,0,90,1.0,3,0.5248889255495884
4.35,0.4,96.72341910788755,0,90,1.0,3,0.39635915686366086
4.355,0.39638828650057273,91.51813811820595,0,90,1.0,3,0.28903377563311244
4.36,0.38574763795443656,87.5651096594767,0,90,1.0,3,0.2075280342160145
4.365,0.36864417891908974,84.85055753012354,0,90,1.0,3,0.15155788721904204
4.37,0.345965766895568,83.20599367449054,0,90,1.0,3,0.11764935411320707
4.375,0.3188456651783249,82.39522658019695,0,90,1.0,3,0.10093250680818448
4.38,0.28856891614190205,82.18134970860318,0,90,1.0,3,0.09652267440418925
4.385,0.2564721553719815,82.36490781207327,0,90,1.0,3,0.10030737756852103
4.39,0.22384764873847685,82.79649701173709,0,90,1.0,3,0.10920612395334202
4.395,0.19186090753201765,83.37281201706614,0,90,1.0,3,0.12108890756837398
4.4,0.16148868344343878,84.02539184144003,0,90,1.0,3,0.1345441616791758
4.405,0.1334809643017881,84.70859251846929,0,90,1.0,3,0.14863077357668636
4.41,0.10834733138818531,85.39005201648826,0,90,1.0,3,0.1626814848760465
4.415,0.08636519236690572,86.044472758779,0,90,1.0,3,0.17617469605729885
4.42,0.06760532616242629,86.65025529584166,0,90,1.0,3,0.1886650576462198
4.425,0.05196904332202373,87.18810890053072,0,90,1.0,3,0.19975482269135508
4.43,0.03923107185803287,87.64083038423249,0,90,1.0,3,0.2090892862728348
4.435,0.02908287038705761,87.99366494888493,0,90,1.0,3,0.21636422575020467
4.44,0.02117220077308346,88.23487689607546,0,90,1.0,3,0.2213376679603188
4.445,0.0151361834125735,88.35631072246048,0,90,1.0,3,0.2238414581950614
4.45,0.010626454858290009,88.35381801207184,0,90,1.0,3,0.22379006210457403
4.455,0.007326255555493652,88.22748246937488,0,90,1.0,3,0.22118520555412116
4.46,0.004960179211183015,87.98161207029037,0,90,1.0,3,0.21611571278949213
4.465,0.0032978759379303545,87.62449423525337,0,90,1.0,3,0.20875245845883228
4.47,0.002153242296767213,87.1679318019965,0,90,1.0,3,0.199338800041165
4.475,0.001380616732225004,86.62659553682514,0,90,1.0,3,0.18817722756340485
4.48,0.0008693106590991584,86.01724256371354,0,90,1.0,3,0.1756132487363616
4.485,0.000537524815942247,85.35785865287932,0,90,1.0,3,0.16201770418307868
4.49,0.0003263951340288585,84.66678530372789,0,90,1.0,3,0.1477687691490287
4.495,0.00019463030985187395,83.96189001381458,0,90,1.0,3,0.1332348456456615
4.5,0.00011397219555062695,83.25983064690726,0,90,1.0,3,0.11875939478159302
4.505,6.55403863487943e-05,82.57545348721757,0,90,1.0,3,0.10464852550964067
4.51,3.701184389455385e-05,81.92135081114074,0,90,1.0,3,0.09116187239465445
4.515,2.0525516217290957e-05,81.30758917718623,0,90,1.0,3,0.07850699334404598
4.52,1.1178128483661116e-05,80.74160562584288,0,90,1.0,3,0.06683722939882226
4.525,5.978135409912517e-06,80.22825686325584,0,90,1.0,3,0.05625271883001725
4.53,3.1396702713238487e-06,79.76999719568829,0,90,1.0,3,0.046804065890480216
4.535,1.6192875458531019e-06,79.36715499256925,0,90,1.0,3,0.03849804108390215
4.54,8.201353897972012e-07,79.01827487455601,0,90,1.0,3,0.03130463658878378
4.545,4.0791415086824765e-07,78.72049337182925,0,90,1.0,3,0.0251648117902938
4.55,1.9923866938774793e-07,78.46991891897598,0,90,1.0,3,0.01999832822630882
4.555,9.556527981051257e-08,78.26199201676988,0,90,1.0,3,0.015711175603502697
4.56,4.501406988770349e-08,78.09180740822781,0,90,1.0,3,0.01220221460263522
4.565,0.0,77.95438643595452,0,90,1.0,3,0.009368792493907593
4.57,0.0,77.8448937347729,0,90,1.0,3,0.007111211026245273
4.575,0.0,77.75879759554243,0,90,1.0,3,0.005336032897782116
4.58,0.0,77.69197742146481,0,90,1.0,3,0.003958297349789957
4.585,0.0,77.640784569316,0,90,1.0,3,0.0029027746250721038
4.59,0.0,77.60206455450907,0,90,1.0,3,0.0021044238043107246
4.595,0.0,77.5731492398329,0,90,1.0,3,0.0015082317491319794
4.6,0.0,77.55182743021956,0,90,1.0,3,0.0010686068086507364
4.605,0.0,77.53630149568863,0,90,1.0,3,0.0007484844471883127
4.61,0.0,77.52513647346169,0,90,1.0,3,0.0005182778033337254
4.615,0.0,77.51720676241366,0,90,1.0,3,0.0003547786064673088
4.62,0.0,77.511644181374,0,90,1.0,3,0.00024008621389681167
4.625,0.0,77.50778993342809,0,90,1.0,3,0.00016061718408424248
4.63,0.0,77.50515197226336,0,90,1.0,3,0.00010622623223428528
4.635,0.0,77.50336843577756,0,90,1.0,3,6.945228407339903e-05
4.64,0.0,77.50217719842811,0,90,1.0,3,4.489068923947381e-05
4.645,0.0,77.50139117811788,0,90,1.0,3,2.868408490484136e-05
4.65,0.0,77.50087878462313,0,90,1.0,3,1.8119270579912145e-05
4.655,0.0,77.50054877857231,0,90,1.0,3,1.1315022109465176e-05
4.66,0.0,77.50033878707026,0,90,1.0,3,6.985300417782878e-06
4.665,0.0,77.50020676236647,0,90,1.0,3,4.263141576790151e-06
4.67,0.0,77.50012474729766,0,90,1.0,3,2.5721092301349007e-06
4.675,0.0,77.50007440562757,0,90,1.0,3,1.5341366509712372e-06
4.68,0.0,77.5000438728055,0,90,1.0,3,9.045939279563829e-07
4.685,0.0,77.50002557407974,0,90,1.0,3,5.273006132535284e-07
4.69,0.0,77.50001473735715,0,90,1.0,3,3.038630339786548e-07
4.695,0.0,77.50000839564733,0,90,1.0,3,1.7310613046545994e-07
4.7,0.001684486749771458,77.50000472828614,0,90,1.0,3,9.74904359394451e-08
4.705,0.004172395771277602,77.50000263249952,0,90,1.0,3,5.4278340539238665e-08
4.71,0.009438687428818865,77.50000144893144,0,90,1.0,3,2.987487510067366e-08
4.715,0.019500507867137046,77.50000078839227,0,90,1.0,3,1.6255510733581387e-08
4.72,0.03679496976339974,77.50000042408398,0,90,1.0,3,8.743999558777732e-09
4.725,0.06340728953298436,77.50000022551548,0,90,1.0,3,4.649803676113958e-09
4.73,0.09979255396093453,77.5000001185539,0,90,1.0,3,2.4444102915911515e-09
4.735,0.14343835518453557,77.50000006161271,0,90,1.0,3,1.270365146410768e-09
4.74,0.18829581417209276,77.5000000316548,0,90,1.0,3,6.526764283671113e-10
4.745,0.2257481735193119,77.5000000160777,0,90,1.0,3,3.3149909850368374e-10
4.75,0.24718154073554727,77.50000000807279,0,90,1.0,3,1.664492507169945e-10
4.755,0.24718154074102772,77.50000000400718,0,90,1.0,3,8.262220232149817e-11
4.76,0.22574817354072055,77.50000000196638,0,90,1.0,3,4.054400801344189e-11
4.765,0.18829581422840957,77.50000000095392,0,90,1.0,3,1.9668408940467004e-11
4.77,0.14343835532456656,77.50000000045748,0,90,1.0,3,9.432491443129545e-12
4.775,0.09979255431561854,77.50000000021689,0,90,1.0,3,4.471877621926041e-12
4.78,0.06340729067170194,77.50000000010165,0,90,1.0,3,2.095881315007009e-12
4.785,0.03679497683410042,77.5000000000471,0,90,1.0,3,9.710262376531843e-13
4.79,0.019500578284482293,77.50000000002157,0,90,1.0,3,4.4478510222013693e-13
4.795,0.009439396781978427,77.50000000000976,0,90,1.0,3,2.0129602452255209e-13
4.8,0.004178588733610924,77.50000000000438,0,90,1.0,3,9.02462526243756e-14
4.805,0.0017299316936037381,77.50000000000193,0,90,1.0,3,3.984899466530871e-14
4.81,0.0008997325756988589,77.50000000000085,0,90,1.0,3,1.7580438822930315e-14
4.815,0.001634769674224814,77.50000000000037,0,90,1.0,3,7.618190156603136e-15
4.82,0.00614904736476635,77.50000000000016,0,90,1.0,4,3.2230804508705575e-15
4.825,0.02168080359963608,77.50000000000007,0,90,1.0,4,1.465036568577526e-15
4.83,0.06433400338904088,77.50000000000003,0,90,1.0,4,5.860146274310105e-16
4.835,0.1593410769217493,77.50000000000001,0,90,1.0,4,2.9300731371550523e-16
4.84,0.3291989194808569,77.5,0,90,1.0,4,0.0
4.845,0.5672906802982638,77.5,0,90,1.0,4,0.0
4.85,0.815339152120446,77.5,0,90,1.0,4,0.0
4.855,0.9768711246313155,77.50000285328441,1,90,1.0,4,5.883060647572643e-08
4.86,0.9726380909165361,77.50000562140409,0,90,1.0,4,1.1590523887282392e-07
4.865,0.7921091683291741,77.50001183073464,0,90,1.0,4,2.4393267289710397e-07
4.87,0.49139090102639077,77.50002762917026,0,90,1.0,4,5.696736136471992e-07
4.875,0.15739335672107918,77.50007245443882,0,90,1.0,4,1.4939059550923367e-06
4.88,-0.11102342218909485,77.50020725996767,0,90,1.0,4,4.273401395187075e-06
4.885,-0.2314207883647528,77.50061582704151,0,90,1.0,4,1.269746477348854e-05
4.89,-0.2029124434754801,77.50182248868452,0,90,1.0,4,3.757708627885804e-05
4.895,-0.11151350554305876,77.5052310715901,0,90,1.0,4,0.00010785714618768954
4.9,-0.039430666652076896,77.51435172175279,0,90,1.0,4,0.0002959117887172917
4.905,-0.006087703519843621,77.53735285072946,0,90,1.0,4,0.0007701618707105621
4.91,0.005350271385530551,77.5918691803079,0,90,1.0,4,0.0018942099032555814
4.915,0.010381647827441833,77.71309481986977,0,90,1.0,4,0.004393707626180756
4.92,0.015115203303506243,77.96566482587883,0,90,1.0,4,0.009601336616058397
4.925,0.021170964062928475,78.45812550344493,0,90,1.0,4,0.01975516501948315
4.93,0.029082821134029553,79.35558674678168,0,90,1.0,4,0.03825952055219964
4.935,0.03923107061708144,80.88198151748664,0,90,1.0,4,0.06973157768013682
4.94,0.051969043308817596,83.30025257051231,0,90,1.0,4,0.11959283650540853
4.945,0.06760532616283861,86.86014114836432,0,90,1.0,4,0.19299260099720247
4.95,0.08636519236693461,91.71228864363101,0,90,1.0,4,0.29303687925012395
4.955,0.10834733138818661,97.80423612993579,0,90,1.0,4,0.4186440439162018
4.96,0.1334809643017884,104.79307462662686,0,90,1.0,4,0.5627438067345745
4.965,0.16148868344343945,112.02004978372179,0,90,1.0,4,0.7117536037880781
4.97,0.191860907532018,118.58316466468419,0,90,1.0,4,0.8470755600965812
4.975,0.22384764873847726,123.51148828718976,0,90,1.0,4,0.9486904801482425
4.98,0.25647215537198226,126.0,0,90,1.0,4,1.0
4.985,0.2885689161419028,125.62830221298329,0,90,1.0,4,0.9923361281027482
4.99,0.31884566517832524,122.48203243932362,0,90,1.0,4,0.9274645863778066
4.995,0.3459657668955683,117.12925074937131,0,90,1.0,4,0.8170979535952847
5.0,0.3686441789190902,110.46116941721593,0,90,1.0,4,0.6796117405611531
5.005,0.3857476379544367,103.45897551850818,0,90,1.0,4,0.5352366086290347
5.01,0.3963882865005728,96.97065636772538,0,90,1.0,4,0.4014568323242347
5.015,0.4,91.56589466519785,0,90,1.0,4,0.29001844670511023
5.02,0.39638828650057273,87.49604796974954,0,90,1.0,4,0.206104081850506
5.025,0.38574763795443656,84.74329427423734,0,90,1.0,4,0.14934627369561532
5.03,0.36864417891908974,83.11746244254847,0,90,1.0,4,0.11582396788759737
5.035,0.345965766895568,82.3568848664176,0,90,1.0,4,0.10014195600861034
5.04,0.3188456651783249,82.20419486948393,0,90,1.0,4,0.09699370864915315
5.045,0.28856891614190205,82.4474226772088,0,90,1.0,4,0.102008714993996
5.05,0.2564721553719815,82.93146838815557,0,90,1.0,4,0.11198903893104258
5.055,0.22384764873847685,83.55144100802794,0,90,1.0,4,0.12477197954696775
5.06,0.19186090753201765,84.23890517799641,0,90,1.0,4,0.13894649851539
5.065,0.16148868344343878,84.94831218827366,0,90,1.0,4,0.15357344718090024
5.07,0.1334809643017881,85.64686744660881,0,90,1.0,4,0.16797664838368678
5.075,0.10834733138818531,86.30832747591782,0,90,1.0,4,0.18161499950346022
5.08,0.08636519236690572,86.90992131114385,0,90,1.0,4,0.19401899610605872
5.085,0.06760532616242629,87.43130093518502,0,90,1.0,4,0.20476909144711383
5.09,0.05196904332202373,87.85460739278714,0,90,1.0,4,0.21349705964509577
5.095,0.03923107185803287,88.16503318602679,0,90,1.0,4,0.21989759146446988
5.1,0.02908287038705761,88.35150634707973,0,90,1.0,4,0.2237423989088605
5.105,0.02117220077308346,88.40728293523891,0,90,1.0,4,0.22489243165441053
5.11,0.0151361834125735,88.33033092317498,0,90,1.0,4,0.22330579223041203
5.115,0.010626454858290009,88.12344658788109,0,90,1.0,4,0.21904013583259982
5.12,0.007326255555493652,87.79408397232552,0,90,1.0,4,0.2122491540685675
5.125,0.004960179211183015,87.35390857822988,0,90,1.0,4,0.20317337274700778
5.13,0.0032978759379303545,86.81811153597118,0,90,1.0,4,0.19212601105095226
5.135,0.002153242296767213,86.20454017631614,0,90,1.0,4,0.17947505518177614
5.14,0.001380616732225004,85.5327142396845,0,90,1.0,4,0.1656229740141133
5.145,0.0008693106590991584,84.82280306012088,0,90,1.0,4,0.15098563010558508
5.15,0.000537524815942247,84.09463776038064,0,90,1.0,4,0.13597191258516775
5.155,0.0003263951340288585,83.36682439710084,0,90,1.0,4,0.1209654514866153
5.16,0.00019463030985187395,82.65601043153745,0,90,1.0,4,0.10630949343376192
5.165,0.00011397219555062695,81.97633972309383,0,90,1.0,4,0.09229566439368721
5.17,6.55403863487943e-05,81.33911255053565,0,90,1.0,4,0.07915695980485868
5.175,3.701184389455385e-05,80.75264902476607,0,90,1.0,4,0.0670649283456922
5.18,2.0525516217290957e-05,80.22233844465784,0,90,1.0,4,0.05613068958057395
5.185,1.1178128483661116e-05,79.75084496649728,0,90,1.0,4,0.04640917456695429
5.19,5.978135409912517e-06,79.33843213578254,0,90,1.0,4,0.03790581723262969
5.195,3.1396702713238487e-06,78.9833655092204,0,90,1.0,4,0.030584855860214546
5.2,1.6192875458531019e-06,78.682353399043,0,90,1.0,4,0.02437842059882464
5.205,8.201353897972012e-07,78.43098993416538,0,90,1.0,4,0.019195668745677973
5.21,4.0791415086824765e-07,78.22417115200214,0,90,1.0,4,0.014931363958807063
5.215,1.9923866938774793e-07,78.05646263625866,0,90,1.0,4,0.011473456417704288
5.22,9.556527981051257e-08,77.92240529264143,0,90,1.0,4,0.008709387477142862
5.225,4.501406988770349e-08,77.81675337219069,0,90,1.0,4,0.006530997364756479
5.23,0.0,77.73464521201578,0,90,1.0,4,0.004838045608572738
5.235,0.0,77.6717120211314,0,90,1.0,4,0.0035404540439463563
5.24,0.0,77.62413328746686,0,90,1.0,4,0.002559449226120855
5.245,0.0,77.58864910755129,0,90,1.0,4,0.0018278166505420771
5.25,0.0,77.56254016636984,0,90,1.0,4,0.0012894879663885074
5.255,0.0,77.54358552186387,0,90,1.0,4,0.0008986705538943297
5.26,0.0,77.53000709975734,0,90,1.0,4,0.0006187030877802349
5.265,0.0,77.52040818335705,0,90,1.0,4,0.00042078728571233844
5.27,0.0,77.51371144502332,0,90,1.0,4,0.00028271020666635973
5.275,0.0,77.50910040372447,0,90,1.0,4,0.00018763719019534853
5.28,0.0,77.50596673357165,0,90,1.0,4,0.00012302543446709286
5.285,0.0,77.5038646590576,0,90,1.0,4,7.968369190923545e-05
5.29,0.0,77.50247277317126,0,90,1.0,4,5.098501384047511e-05
5.295,0.0,77.50156298902219,0,90,1.0,4,3.222657777711771e-05
5.3,0.0,77.50097594676535,0,90,1.0,4,2.0122613718576384e-05
5.305,0.0,77.50060199777202,0,90,1.0,4,1.2412325196347533e-05
5.31,0.0,77.50036682775895,0,90,1.0,4,7.563458947475906e-06
5.315,0.0,77.50022081473722,0,90,1.0,4,4.552881179766775e-06
5.32,0.0,77.50013130838836,0,90,1.0,4,2.707389450754996e-06
5.325,0.0,77.50007713570277,0,90,1.0,4,1.5904268611824797e-06
5.33,0.0,77.50004476277108,0,90,1.0,4,9.229437336633748e-07
5.335,0.0,77.5000256612047,0,90,1.0,4,5.290970041749967e-07
5.34,0.0,77.50001453234408,0,90,1.0,4,2.996359604512503e-07
5.345,0.001684486749771458,77.50000813004326,0,90,1.0,4,1.6762975784547157e-07
5.35,0.004172395771277602,77.50000449312597,0,90,1.0,4,9.264177259462213e-08
5.355,0.009438687428818865,77.50000245303015,0,90,1.0,4,5.057794121207688e-08
5.36,0.019500507867137046,77.50000132298747,0,90,1.0,4,2.7278092215731037e-08
5.365,0.03679496976339974,77.50000070486692,0,90,1.0,4,1.4533338564677289e-08
5.37,0.06340728953298436,77.50000037098563,0,90,1.0,4,7.64918827934304e-09
5.375,0.09979255396093453,77.50000019288817,0,90,1.0,4,3.97707558524004e-09
5.38,0.14343835518453557,77.5000000990724,0,90,1.0,4,2.042729788299016e-09
5.385,0.18829581417209276,77.50000005026877,0,90,1.0,4,1.0364694211715425e-09
5.39,0.2257481735193119,77.50000002519663,0,90,1.0,4,5.195180826198451e-10
5.395,0.24718154073554727,77.50000001247628,0,90,1.0,4,2.572428410033907e-10
5.4,0.24718154074102772,77.50000000610277,0,90,1.0,4,1.2583023283124142e-10
5.405,0.22574817354072055,77.50000000294894,0,90,1.0,4,6.080282669104563e-11
5.41,0.18829581422840957,77.50000000140768,0,90,1.0,4,2.90244254747168e-11
5.415,0.14343835532456656,77.5000000006638,0,90,1.0,4,1.3686664630964965e-11
5.42,0.09979255431561854,77.50000000030923,0,90,1.0,4,6.375839146449394e-12
5.425,0.06340729067170194,77.50000000014231,0,90,1.0,4,2.9341752395470693e-12
5.43,0.03679497683410042,77.50000000006469,0,90,1.0,4,1.3337692920329797e-12
5.435,0.019500578284482293,77.50000000002905,0,90,1.0,4,5.989069492344927e-13
5.44,0.009439396781978427,77.50000000001289,0,90,1.0,4,2.6575763353996326e-13
5.445,0.004178588733610924,77.50000000000564,0,90,1.0,4,1.1632390354505557e-13
5.45,0.0017299316936037381,77.50000000000244,0,90,1.0,4,5.03972579590669e-14
5.455,0.0008997325756988589,77.50000000000105,0,90,1.0,4,2.1682541214947386e-14
5.46,0.001634769674224814,77.50000000000044,0,90,1.0,4,9.083226725180661e-15
5.465,0.00614904736476635,77.50000000000018,0,90,1.0,4,3.809095078301568e-15
5.47,0.02168080359963608,77.50000000000007,0,90,1.0,4,1.465036568577526e-15
5.475,0.06433400338904088,77.50000000000003,0,90,1.0,4,5.860146274310105e-16
5.48,0.1593410769217493,77.50000000000001,0,90,1.0,4,2.9300731371550523e-16
5.485,0.3291989194808569,77.5,0,90,1.0,4,0.0
5.49,0.5672906802982638,77.5,0,90,1.0,4,0.0
5.495,0.815339152120446,77.5,0,90,1.0,4,0.0
5.5,0.9768711246313155,77.50000285700571,1,90,1.0,4,5.890733424991792e-08
5.505,0.9726380909165361,77.5000055981037,0,90,1.0,4,1.1542481851411701e-07
5.51,0.7921091683291741,77.50001170193522,0,90,1.0,4,2.412770148805872e-07
5.515,0.49139090102639077,77.5000270882034,0,90,1.0,4,5.585196576478281e-07
5.52,0.15739335672107918,77.50007030382385,0,90,1.0,4,1.4495633782883385e-06
5.525,-0.11102342218909485,77.50019904185636,0,90,1.0,4,4.1039558012827685e-06
5.53,-0.2314207883647528,77.50058607134292,0,90,1.0,4,1.2083945214904703e-05
5.535,-0.2029124434754801,77.50172157287263,0,90,1.0,4,3.549634788918851e-05
5.54,-0.11151350554305876,77.50491227303426,0,90,1.0,4,0.00010128398008792904
5.545,-0.039430666652076896,77.51341548520728,0,90,1.0,4,0.00027660794241804996
5.55,-0.006087703519843621,77.53479767151332,0,90,1.0,4,0.0007174777631611781
5.555,0.005350271385530551,77.58538694566,0,90,1.0,4,0.001760555580618663
5.56,0.010381647827441833,77.69780421918405,0,90,1.0,4,0.004078437508949487
5.565,0.015115203303506243,77.93212374321509,0,90,1.0,4,0.008909767901341991
5.57,0.021170964062928475,78.38971621807644,0,90,1.0,4,0.018344664290235957
5.575,0.029082821134029553,79.22592550239746,0,90,1.0,4,0.035586092832937295
5.58,0.03923107061708144,80.65382694330745,0,90,1.0,4,0.06502735965582372
5.585,0.051969043308817596,82.92814688244911,0,90,1.0,4,0.1119205542773013
5.59,0.06760532616283861,86.29905479142072,0,90,1.0,4,0.1814238101323859
5.595,0.08636519236693461,90.93310591840898,0,90,1.0,4,0.27697125604966977
5.6,0.10834733138818661,96.81375736041753,0,90,1.0,4,0.3982218012457222
5.605,0.1334809643017884,103.65218979533569,0,90,1.0,4,0.5392204081512513
5.61,0.16148868344343945,110.85098906485283,0,90,1.0,4,0.6876492590691304
5.615,0.191860907532018,117.55776115670236,0,90,1.0,4,0.8259332197258218
5.62,0.22384764873847726,122.81835656489098,0,90,1.0,4,0.9343991044307418
5.625,0.25647215537198226,125.79775358536652,0,90,1.0,4,0.9958299708322994
5.63,0.2885689161419028,126.0,0,90,1.0,4,1.0
5.635,0.31884566517832524,123.40809829602208,0,90,1.0,4,0.9465587277530325
5.64,0.3459657668955683,118.49003065599916,0,90,1.0,4,0.8451552712577147
5.645,0.3686441789190902,112.06852813875727,0,90,1.0,4,0.71275315750015
5.65,0.3857476379544367,105.10477932098621,0,90,1.0,4,0.5691707076492002
5.655,0.3963882865005728,98.47443100842273,0,90,1.0,4,0.4324624950190253
5.66,0.4,92.8066072912793,0,90,1.0,4,0.3156001503356558
5.665,0.39638828650057273,88.42148372327156,0,90,1.0,4,0.2251852314076611
5.67,0.38574763795443656,85.35990241659837,0,90,1.0,4,0.16205984364120357
5.675,0.36864417891908974,83.46944358620377,0,90,1.0,4,0.12308131105574777
5.68,0.345965766895568,82.50409108932574,0,90,1.0,4,0.1031771358623864
5.685,0.3188456651783249,82.20538889595129,0,90,1.0,4,0.09701832775157294
5.69,0.28856891614190205,82.35118221387862,0,90,1.0,4,0.10002437554388899
5.695,0.2564721553719815,82.77370137387766,0,90,1.0,4,0.10873611080160117
5.7,0.22384764873847685,83.35697885227354,0,90,1.0,4,0.12076245056234107
5.705,0.19186090753201765,84.0246919330554,0,90,1.0,4,0.13452973057846174
5.71,0.16148868344343878,84.72653191551647,0,90,1.0,4,0.1490006580518861
5.715,0.1334809643017881,85.42725699479512,0,90,1.0,4,0.16344859783082713
5.72,0.10834733138818531,86.09955203844497,0,90,1.0,4,0.17731035130814368
5.725,0.08636519236690572,86.72019234262434,0,90,1.0,4,0.1901070586108112
5.73,0.06760532616242629,87.26848870696234,0,90,1.0,4,0.20141213828788337
5.735,0.05196904332202373,87.72606423286395,0,90,1.0,4,0.21084668521368966
5.74,0.03923107185803287,88.07728034294114,0,90,1.0,4,0.2180882544936317
5.745,0.02908287038705761,88.30988433026353,0,90,1.0,4,0.22288421299512431
5.75,0.02117220077308346,88.41562988670005,0,90,1.0,4,0.2250645337463927
5.755,0.0151361834125735,88.39073171494468,0,90,1.0,4,0.22455116938030265
5.76,0.010626454858290009,88.23608061227844,0,90,1.0,4,0.2213624868511019
5.765,0.007326255555493652,87.95718762032197,0,90,1.0,4,0.2156121158829273
5.77,0.004960179211183015,87.56385719193653,0,90,1.0,4,0.20750221014302134
5.775,0.0032978759379303545,87.06961485035202,0,90,1.0,4,0.19731164639901083
5.78,0.002153242296767213,86.49093547163766,0,90,1.0,4,0.18538011281727124
5.785,0.001380616732225004,85.84633343081921,0,90,1.0,4,0.17208934908905596
5.79,0.0008693106590991584,85.15538449808108,0,90,1.0,4,0.15784297934187785
5.795,0.000537524815942247,84.43775108996621,0,90,1.0,4,0.14304641422610748
5.8,0.0003263951340288585,83.71227751571944,0,90,1.0,4,0.12808819620040074
5.805,0.00019463030985187395,82.99621117057644,0,90,1.0,4,0.11332394166136998
5.81,0.00011397219555062695,82.30459074772966,0,90,1.0,4,0.09906372675731262
5.815,6.55403863487943e-05,81.64982534565863,0,90,1.0,4,0.08556340918883767
5.82,3.701184389455385e-05,81.04147079905813,0,90,1.0,4,0.0730200164754254
5.825,2.0525516217290957e-05,80.4861934573874,0,90,1.0,4,0.06157099912138971
5.83,1.1178128483661116e-05,79.98789840738041,0,90,1.0,4,0.05129687437897759
5.835,5.978135409912517e-06,79.54798972143004,0,90,1.0,4,0.04222659219443386
5.84,3.1396702713238487e-06,79.1657251050575,0,90,1.0,4,0.03434484752695885
5.845,1.6192875458531019e-06,78.83862619104653,0,90,1.0,4,0.027600540021577923
5.85,8.201353897972012e-07,78.5629081394647,0,90,1.0,4,0.021915631741540122
5.855,4.0791415086824765e-07,78.33389731528789,0,90,1.0,4,0.017193759078100723
5.86,1.9923866938774793e-07,78.14641264967727,0,90,1.0,4,0.013328095869634505
5.865,9.556527981051257e-08,77.9950938659425,0,90,1.0,4,0.010208120947267908
5.87,4.501406988770349e-08,77.87466719823882,0,90,1.0,4,0.007725096870903608
5.875,0.0,77.78014587226397,0,90,1.0,4,0.00577620355183448
5.88,0.0,77.7069680038797,0,90,1.0,4,0.004267381523292672
5.885,0.0,77.651078485453,0,90,1.0,4,0.0031150203186185305
5.89,0.0,77.6089638555516,0,90,1.0,4,0.0022466774340534693
5.895,0.0,77.57765022693218,0,90,1.0,4,0.0016010356068490341
5.9,0.0,77.55467432434818,0,90,1.0,4,0.0011273056566635917
5.905,0.0,77.53803685039938,0,90,1.0,4,0.0007842649566882334
5.91,0.0,77.52614605077103,0,90,1.0,4,0.0005390938303305668
5.915,0.0,77.5177577558228,0,90,1.0,4,0.0003661392953154532
5.92,0.0,77.51191654857978,0,90,1.0,4,0.000245702032572712
5.925,0.0,77.507901204888,0,90,1.0,4,0.0001629114409896965
5.93,0.0,77.5051762660216,0,90,1.0,4,0.00010672713446612442
5.935,0.0,77.50335058222204,0,90,1.0,4,6.908416952660915e-05
5.94,0.0,77.50214291231161,0,90,1.0,4,4.4183759002311787e-05
5.945,0.0,77.50135415677913,0,90,1.0,4,2.792075833256313e-05
5.95,0.0,77.50084550060859,0,90,1.0,4,1.7433002238989895e-05
5.955,0.0,77.50052160209725,0,90,1.0,4,1.075468241754972e-05
5.96,0.0,77.50031793999378,0,90,1.0,4,6.555463789233549e-06
5.965,0.0,77.50019148352861,0,90,1.0,4,3.948113991960669e-06
5.97,0.0,77.50011394574456,0,90,1.0,4,2.3493967950292517e-06
5.975,0.0,77.50006699543745,0,90,1.0,4,1.381349225776202e-06
5.98,0.0,77.50003891999467,0,90,1.0,4,8.024741168107361e-07
5.985,0.0,77.50002233987531,0,90,1.0,4,4.6061598587565985e-07
5.99,0.0,77.5000126697821,0,90,1.0,4,2.6123262050673147e-07
5.995,0.001684486749771458,77.50000709966693,0,90,1.0,4,1.4638488517110878e-07
6.0,0.004172395771277602,77.50000393085688,0,90,1.0,4,8.104859540891112e-08
6.005,0.009438687428818865,77.50000215038844,0,90,1.0,4,4.433790597441029e-08
6.01,0.019500507867137046,77.50000116232353,0,90,1.0,4,2.3965433568911375e-08
6.015,0.03679496976339974,77.50000062075121,0,90,1.0,4,1.2798993992939508e-08
6.02,0.06340728953298436,77.50000032755825,0,90,1.0,4,6.7537784391404165e-09
6.025,0.09979255396093453,77.50000017078115,0,90,1.0,5,3.52126080870971e-09
6.03,0.14343835518453557,77.50000008797753,0,90,1.0,5,1.8139696022472824e-09
6.035,0.18829581417209276,77.50000004478,0,90,1.0,5,9.232988623366931e-10
6.04,0.2257481735193119,77.50000002252042,0,90,1.0,5,4.6433865229362745e-10
6.045,0.24718154073554727,77.50000001119051,0,90,1.0,5,2.3073212527303918e-10
6.05,0.24718154074102772,77.50000000549419,0,90,1.0,5,1.1328219462137492e-10
6.055,0.22574817354072055,77.50000000266525,0,90,1.0,5,5.495352168734301e-11
6.06,0.18829581422840957,77.50000000127747,0,90,1.0,5,2.6339599459141628e-11
6.065,0.14343835532456656,77.50000000060498,0,90,1.0,5,1.247390735949649e-11
6.07,0.09979255431561854,77.5000000002831,0,90,1.0,5,5.83699869652658e-12
6.075,0.06340729067170194,77.50000000013088,0,90,1.0,5,2.698597359319803e-12
6.08,0.03679497683410042,77.50000000005979,0,90,1.0,5,1.2326817688011305e-12
6.085,0.019500578284482293,77.50000000002699,0,90,1.0,5,5.564208887457445e-13
6.09,0.009439396781978427,77.50000000001204,0,90,1.0,5,2.481771947170329e-13
6.095,0.004178588733610924,77.5000000000053,0,90,1.0,5,1.0929172801588345e-13
6.1,0.0017299316936037381,77.5000000000023,0,90,1.0,5,4.746718482191185e-14
6.105,0.0008997325756988589,77.500000000001,0,90,1.0,5,2.0510511960085366e-14
6.11,0.001634769674224814,77.50000000000043,0,90,1.0,5,8.790219411465157e-15
6.115,0.00614904736476635,77.50000000000017,0,90,1.0,5,3.516087764586063e-15
6.12,0.02168080359963608,77.50000000000007,0,90,1.0,5,1.465036568577526e-15
6.125,0.06433400338904088,77.50000000000003,0,90,1.0,5,5.860146274310105e-16
6.13,0.1593410769217493,77.50000000000001,0,90,1.0,5,2.9300731371550523e-16
6.135,0.3291989194808569,77.5,0,90,1.0,5,0.0
6.14,0.5672906802982638,77.5,0,90,1.0,5,0.0
6.145,0.815339152120446,77.5,0,90,1.0,5,0.0
6.15,0.9768711246313155,77.50000284322633,1,90,1.0,5,5.862322322426144e-08
6.155,0.9726380909165361,77.50000534910116,0,90,1.0,5,1.102907455352232e-07
6.16,0.7921091683291741,77.50001063505204,0,90,1.0,5,2.1927942341171353e-07
6.165,0.49139090102639077,77.50002307583767,0,90,1.0,5,4.757904675148218e-07
6.17,0.15739335672107918,77.5000554713907,0,90,1.0,5,1.143740014331155e-06
6.175,-0.11102342218909485,77.50014526993121,0,90,1.0,5,2.9952563136014092e-06
6.18,-0.2314207883647528,77.5003988898635,0,90,1.0,5,8.224533268130659e-06
6.185,-0.2029124434754801,77.5011054659756,0,90,1.0,5,2.279311289893738e-05
6.19,-0.11151350554305876,77.50300976888175,0,90,1.0,5,6.205709034543127e-05
6.195,-0.039430666652076896,77.50792185780857,0,90,1.0,5,0.00016333727440347813
6.2,-0.006087703519843621,77.51997904089026,0,90,1.0,5,0.0004119389874281015
6.205,0.005350271385530551,77.54805187102536,0,90,1.0,5,0.000990760227327109
6.21,0.010381647827441833,77.60993273918042,0,90,1.0,5,0.0022666544160911822
6.215,0.015115203303506243,77.73890414692885,0,90,1.0,5,0.0049258586995638304
6.22,0.021170964062928475,77.99279598451152,0,90,1.0,5,0.01016074194869107
6.225,0.029082821134029553,78.46442565053172,0,90,1.0,5,0.01988506495941697
6.23,0.03923107061708144,79.29027244272471,0,90,1.0,5,0.03691283387061265
6.235,0.051969043308817596,80.65176405432197,0,90,1.0,5,0.06498482586230872
6.24,0.06760532616283861,82.76179436299392,0,90,1.0,5,0.10849060542255515
6.245,0.08636519236693461,85.82984126010565,0,90,1.0,5,0.1717493043320753
6.25,0.10834733138818661,90.00401066771741,0,90,1.0,5,0.257814652942627
6.255,0.1334809643017884,95.29777724070067,0,90,1.0,5,0.3669644791897045
6.26,0.16148868344343945,101.52070486511198,0,90,1.0,5,0.4952722652600408
6.265,0.191860907532018,108.24076061437154,0,90,1.0,5,0.633830115760238
6.27,0.22384764873847726,114.80477932285345,0,90,1.0,5,0.7691707076877
6.275,0.25647215537198226,120.42962228136281,0,90,1.0,5,0.8851468511621198
6.28,0.2885689161419028,124.35209848293255,0,90,1.0,5,0.9660226491326298
6.285,0.31884566517832524,126.0,0,90,1.0,5,1.0
6.29,0.3459657668955683,125.13199699060715,0,90,1.0,5,0.982103030734168
6.295,0.3686441789190902,121.89956504594475,0,90,1.0,5,0.9154549494009228
6.3,0.3857476379544367,116.80934959217932,0,90,1.0,5,0.8105020534469962
6.305,0.3963882865005728,110.59911497723489,0,90,1.0,5,0.6824559789120596
6.31,0.4,104.06935062625563,0,90,1.0,5,0.5478216623970232
6.315,0.39638828650057273,97.92347769263611,0,90,1.0,5,0.421102632837858
6.32,0.38574763795443656,92.65949215512845,0,90,1.0,5,0.3125668485593494
6.325,0.36864417891908974,88.53181629485155,0,90,1.0,5,0.22746012979075364
6.33,0.345965766895568,85.57626122980984,0,90,1.0,5,0.16652085009917206
6.335,0.3188456651783249,83.67383914290984,0,90,1.0,5,0.12729565243113075
6.34,0.28856891614190205,82.62499201165721,0,90,1.0,5,0.1056699383846848
6.345,0.2564721553719815,82.2123239726345,0,90,1.0,5,0.09716131902339162
6.35,0.22384764873847685,82.24122011682826,0,90,1.0,5,0.09775711581089194
6.355,0.19186090753201765,82.5580522820505,0,90,1.0,5,0.10428973777423704
6.36,0.16148868344343878,83.05182219454407,0,90,1.0,5,0.11447056071224893
6.365,0.1334809643017881,83.64676889072895,0,90,1.0,5,0.12673750290162783
6.37,0.10834733138818531,84.29215130262087,0,90,1.0,5,0.1400443567550694
6.375,0.08636519236690572,84.95297587109219,0,90,1.0,5,0.15366960558952975
6.38,0.06760532616242629,85.6032141410097,0,90,1.0,5,0.16707658022700414
6.385,0.05196904332202373,86.22161625213593,0,90,1.0,5,0.17982713921929755
6.39,0.03923107185803287,86.78956826301784,0,90,1.0,5,0.19153748995913075
6.395,0.02908287038705761,87.29030500025087,0,90,1.0,5,0.20186195876805912
6.4,0.02117220077308346,87.70890109634271,0,90,1.0,5,0.21049280611015905
6.405,0.0151361834125735,88.03263653005703,0,90,1.0,5,0.21716776350633057
6.41,0.010626454858290009,88.25148247455117,0,90,1.0,5,0.22168005102167357
6.415,0.007326255555493652,88.35855638009744,0,90,1.0,5,0.22388776041438022
6.42,0.004960179211183015,88.35045923154104,0,90,1.0,5,0.22372080889775336
6.425,0.0032978759379303545,88.22744713680183,0,90,1.0,5,0.2211844770474604
6.43,0.002153242296767213,87.99341542663203,0,90,1.0,5,0.21635908096148507
6.435,0.001380616732225004,87.65569305578572,0,90,1.0,5,0.20939573310898388
6.44,0.0008693106590991584,87.22466123620943,0,90,1.0,5,0.20050847909710162
6.445,0.000537524815942247,86.71322360224083,0,90,1.0,5,0.189963373242079
6.45,0.0003263951340288585,86.13616550482689,0,90,1.0,5,0.17806526814076065
6.455,0.00019463030985187395,85.50944672085147,0,90,1.0,5,0.1651432313577623
6.46,0.00011397219555062695,84.84947457720351,0,90,1.0,5,0.15153555829285587
6.465,6.55403863487943e-05,84.17240320268115,0,90,1.0,5,0.1375753237666217
6.47,3.701184389455385e-05,83.49349969202193,0,90,1.0,5,0.12357731323756552
6.475,2.0525516217290957e-05,82.8266100918151,0,90,1.0,5,0.10982701220237316
6.48,1.1178128483661116e-05,82.18374823881719,0,90,1.0,5,0.09657212863540593
6.485,5.978135409912517e-06,81.57481966179543,0,90,1.0,5,0.08401690024320475
6.49,3.1396702713238487e-06,81.00748205938964,0,90,1.0,5,0.07231921771937412
6.495,1.6192875458531019e-06,80.48713423047259,0,90,1.0,5,0.061590396504589515
6.5,8.201353897972012e-07,80.01701749313209,0,90,1.0,5,0.051897267899630665
6.505,4.0791415086824765e-07,79.59840805263835,0,90,1.0,5,0.04326614541522367
6.51,1.9923866938774793e-07,79.23087565482302,0,90,1.0,5,0.03568815783140255
6.515,9.556527981051257e-08,78.91258311223406,0,90,1.0,5,0.029125424994516702
6.52,4.501406988770349e-08,78.64060262096777,0,90,1.0,5,0.023517579813768435
6.525,0.0,78.41122774696173,0,90,1.0,5,0.018788200968283056
6.53,0.0,78.22026402057521,0,90,1.0,5,0.01485080454794257
6.535,0.0,78.06328569392375,0,90,1.0,5,0.0116141380190463
6.54,0.0,77.93585088962875,0,90,1.0,5,0.00898661628100522
6.545,0.0,77.83367169477451,0,90,1.0,5,0.006879828758237296
6.55,0.0,77.75273943637394,0,90,1.0,5,0.005211122399462747
6.555,0.0,77.68940824197168,0,90,1.0,5,0.0039053245767356024
6.56,0.0,77.64044198158881,0,90,1.0,5,0.0028957109605939712
6.565,0.0,77.60303083963844,0,90,1.0,5,0.00212434720903991
6.57,0.0,77.57478418147271,0,90,1.0,5,0.0015419418860352196
6.575,0.0,77.55370620498225,0,90,1.0,5,0.001107344432623672
6.58,0.0,77.53816026664151,0,90,1.0,5,0.0007868096214744733
6.585,0.0,77.5268269037557,0,90,1.0,5,0.0005531320362000976
6.59,0.0,77.51865958225872,0,90,1.0,5,0.00038473365481898506
6.595,0.0,77.51284119666562,0,90,1.0,5,0.00026476694155915014
6.6,0.0,77.50874341903805,0,90,1.0,5,0.00018027668119700757
6.605,0.0,77.505890189993,0,90,1.0,5,0.00012144721635044119
6.61,0.0,77.50392599307456,0,90,1.0,5,8.09483108156721e-05
6.615,0.0,77.50258905913398,0,90,1.0,5,5.338266255632296e-05
6.62,0.0,77.5016892993909,0,90,1.0,5,3.483091527636903e-05
6.625,0.0,77.50109054476202,0,90,1.0,5,2.2485459010757733e-05
6.63,0.0,77.50069655045753,0,90,1.0,5,1.436186510378067e-05
6.635,0.0,77.50044018362493,0,90,1.0,5,9.075951029515017e-06
6.64,0.0,77.50027522469445,0,90,1.0,5,5.674735968003793e-06
6.645,0.0,77.50017026019599,0,90,1.0,5,3.510519504872493e-06
6.65,0.0,77.50010421040284,0,90,1.0,5,2.1486680997647275e-06
6.655,0.0,77.50006310753771,0,90,1.0,5,1.3011863445954827e-06
6.66,0.0,77.5000378114743,0,90,1.0,5,7.796180268049977e-07
6.665,0.0,77.50002241497207,0,90,1.0,5,4.6216437247672616e-07
6.67,0.0,77.5000131469499,0,90,1.0,5,2.710711318914693e-07
6.675,0.0,77.50000762928833,0,90,1.0,5,1.57304914093458e-07
6.68,0.0,77.50000438041506,0,90,1.0,5,9.031783636216751e-08
6.685,0.001684486749771458,77.50000248839153,0,90,1.0,5,5.1307041859058467e-08
6.69,0.004172395771277602,77.50000139860276,0,90,1.0,5,2.8837170360667496e-08
6.695,0.009438687428818865,77.50000077775401,0,90,1.0,5,1.6036165165526644e-08
6.7,0.019500507867137046,77.50000042791977,0,90,1.0,5,8.823088092895821e-09
6.705,0.03679496976339974,77.50000023294568,0,90,1.0,5,4.803003722119365e-09
6.71,0.06340728953298436,77.50000012546401,0,90,1.0,5,2.586886855929198e-09
6.715,0.09979255396093453,77.50000006685839,0,90,1.0,5,1.3785235221371999e-09
6.72,0.14343835518453557,77.50000003525047,0,90,1.0,5,7.268137248980359e-10
6.725,0.18829581417209276,77.50000001838849,0,90,1.0,5,3.791441387650209e-10
6.73,0.2257481735193119,77.50000000949072,0,90,1.0,5,1.9568493446490017e-10
6.735,0.24718154073554727,77.50000000484647,0,90,1.0,5,9.99272142695359e-11
6.74,0.24718154074102772,77.50000000244863,0,90,1.0,5,5.048721120437756e-11
6.745,0.22574817354072055,77.50000000122404,0,90,1.0,5,2.5237891959571327e-11
6.75,0.18829581422840957,77.50000000060538,0,90,1.0,5,1.2482111564280523e-11
6.755,0.14343835532456656,77.50000000029624,0,90,1.0,5,6.108030461713422e-12
6.76,0.09979255431561854,77.50000000014343,0,90,1.0,5,2.9573228173305944e-12
6.765,0.06340729067170194,77.50000000006871,0,90,1.0,5,1.4166903618144677e-12
6.77,0.03679497683410042,77.50000000003256,0,90,1.0,5,6.712797557222225e-13
6.775,0.019500578284482293,77.50000000001526,0,90,1.0,5,3.146898549304526e-13
6.78,0.009439396781978427,77.50000000000708,0,90,1.0,5,1.4591764223032162e-13
6.785,0.004178588733610924,77.50000000000325,0,90,1.0,5,6.70986748408507e-14
6.79,0.0017299316936037381,77.50000000000148,0,90,1.0,5,3.047276062641254e-14
6.795,0.0008997325756988589,77.50000000000067,0,90,1.0,5,1.3771343744628746e-14
6.8,0.001634769674224814,77.5000000000003,0,90,1.0,5,6.15315358802561e-15
6.805,0.00614904736476635,77.50000000000013,0,90,1.0,5,2.637065823439547e-15
6.81,0.02168080359963608,77.50000000000006,0,90,1.0,5,1.172029254862021e-15
6.815,0.06433400338904088,77.50000000000003,0,90,1.0,5,5.860146274310105e-16
6.82,0.1593410769217493,77.50000000000001,0,90,1.0,5,2.9300731371550523e-16
6.825,0.3291989194808569,77.5,0,90,1.0,5,0.0
6.83,0.5672906802982638,77.5,0,90,1.0,5,0.0
6.835,0.815339152120446,77.5,0,90,1.0,5,0.0
6.84,0.9768711246313155,77.50000284586159,1,90,1.0,5,5.8677558500516847e-08
6.845,0.9726380909165361,77.50000554640805,0,90,1.0,5,1.1435892881458993e-07
6.85,0.7921091683291741,77.50001151682932,0,90,1.0,5,2.374603983045426e-07
6.855,0.49139090102639077,77.50002643002445,0,90,1.0,5,5.449489576934416e-07
6.86,0.15739335672107918,77.50006790101995,0,90,1.0,5,1.4000210298195504e-06
6.865,-0.11102342218909485,77.50019028911501,0,90,1.0,5,3.923486907442379e-06
6.87,-0.2314207883647528,77.50055528372543,0,90,1.0,5,1.1449148977995606e-05
6.875,-0.2029124434754801,77.5016191003873,0,90,1.0,5,3.338351314024416e-05
6.88,-0.11151350554305876,77.50459268016454,0,90,1.0,5,9.469443638216635e-05
6.885,-0.039430666652076896,77.51248521717368,0,90,1.0,5,0.00025742715822012853
6.89,-0.006087703519843621,77.53227388620262,0,90,1.0,5,0.0006654409526312796
6.895,0.005350271385530551,77.57900721106344,0,90,1.0,5,0.0016290146611018807
6.9,0.010381647827441833,77.68277725789753,0,90,1.0,5,0.003768603255619115
6.905,0.015115203303506243,77.89914273187748,0,90,1.0,5,0.008229747049020112
6.91,0.021170964062928475,78.32227751227126,0,90,1.0,5,0.01695417551074755
6.915,0.029082821134029553,79.09751100293126,0,90,1.0,5,0.03293837119445889
6.92,0.03923107061708144,80.42630442384339,0,90,1.0,5,0.06033617368749259
6.925,0.051969043308817596,82.55354337917821,0,90,1.0,5,0.10419677070470533
6.93,0.06760532616283861,85.72706210298368,0,90,1.0,5,0.16963014645327176
6.935,0.08636519236693461,90.12554414875623,0,90,1.0,5,0.26032049791249967
6.94,0.10834733138818661,95.76438236317041,0,90,1.0,5,0.3765852033643384
6.945,0.1334809643017884,102.40631247838554,0,90,1.0,5,0.5135322160491865
6.95,0.16148868344343945,109.51624731799802,0,90,1.0,5,0.6601288106803715
6.955,0.191860907532018,116.29749655462248,0,90,1.0,5,0.7999483825695357
6.96,0.22384764873847726,121.82388594751711,0,90,1.0,5,0.9138945556189095
6.965,0.25647215537198226,125.24436869130892,0,90,1.0,5,0.9844199730166788
6.97,0.2885689161419028,126.0,0,90,1.0,5,1.0
6.975,0.31884566517832524,123.97778706854874,0,90,1.0,5,0.9583048880113142
6.98,0.3459657668955683,119.54358950815404,0,90,1.0,5,0.8668781341887432
6.985,0.3686441789190902,113.44132554854066,0,90,1.0,5,0.7410582587327972
6.99,0.3857476379544367,106.59703250521925,0,90,1.0,5,0.599938814540603
6.995,0.3963882865005728,99.89899699454637,0,90,1.0,5,0.46183498957827557
7.0,0.4,94.02516929242782,0,90,1.0,5,0.3407251400500581
7.005,0.39638828650057273,89.3603322958374,0,90,1.0,5,0.24454293393479165
7.01,0.38574763795443656,86.00561321118767,0,90,1.0,5,0.1753734682719106
7.015,0.36864417891908974,83.85152120488316,0,90,1.0,5,0.13095920010068363
7.02,0.345965766895568,82.67378992307566,0,90,1.0,5,0.10667608088815793
7.025,0.3188456651783249,82.21795644486333,0,90,1.0,5,0.09727745247140893
7.03,0.28856891614190205,82.25491311032039,0,90,1.0,5,0.09803944557361624
7.035,0.2564721553719815,82.60568848479885,0,90,1.0,5,0.10527192752162572
7.04,0.22384764873847685,83.14350119463039,0,90,1.0,5,0.11636084937382245
7.045,0.19186090753201765,83.78381880877807,0,90,1.0,5,0.12956327440779516
7.05,0.16148868344343878,84.47111934410529,0,90,1.0,5,0.14373441946608845
7.055,0.1334809643017881,85.16736816282359,0,90,1.0,5,0.15809006521285757
7.06,0.10834733138818531,85.84401473859923,0,90,1.0,5,0.17204154100204594
7.065,0.08636519236690572,86.47738375513784,0,90,1.0,5,0.18510069598222342
7.07,0.06760532616242629,87.04656798666497,0,90,1.0,5,0.1968364533332983
7.075,0.05196904332202373,87.53286735530213,0,90,1.0,5,0.2068632444392192
7.08,0.03923107185803287,87.92003875076709,0,90,1.0,5,0.21484615980963073
7.085,0.02908287038705761,88.1948762403954,0,90,1.0,5,0.22051291217310107
7.09,0.02117220077308346,88.34783554716185,0,90,1.0,5,0.22366671231261545
7.095,0.0151361834125735,88.37354028569607,0,90,1.0,5,0.22419670692156837
7.1,0.010626454858290009,88.27108106749418,0,90,1.0,5,0.22208414572152949
7.105,0.007326255555493652,88.04406438191086,0,90,1.0,5,0.21740338931774963
7.11,0.004960179211183015,87.70040053904515,0,90,1.0,5,0.21031753688752883
7.115,0.0032978759379303545,87.25184573884796,0,90,1.0,5,0.20106898430614353
7.12,0.002153242296767213,86.71333452777212,0,90,1.0,5,0.18996566036643545
7.125,0.001380616732225004,86.10215528685912,0,90,1.0,5,0.17736402653317765
7.13,0.0008693106590991584,85.43703209507676,0,90,1.0,5,0.16365014629024247
7.135,0.000537524815942247,84.73718067857484,0,90,1.0,5,0.14922022017680092
7.14,0.0003263951340288585,84.02140412721407,0,90,1.0,5,0.1344619407673004
7.145,0.00019463030985187395,83.30728624532938,0,90,1.0,5,0.11973786072844081
7.15,0.00011397219555062695,82.61052800894745,0,90,1.0,5,0.10537171152468978
7.155,6.55403863487943e-05,81.94445724555983,0,90,1.0,5,0.09163829372288314
7.16,3.701184389455385e-05,81.31972513974611,0,90,1.0,5,0.07875721937620848
7.165,2.0525516217290957e-05,80.74418725350604,0,90,1.0,5,0.06689045883517611
7.17,1.1178128483661116e-05,80.22295293316265,0,90,1.0,5,0.056143359446652476
7.175,5.978135409912517e-06,79.75857634759942,0,90,1.0,5,0.046568584486585886
7.18,3.1396702713238487e-06,79.35135557138227,0,90,1.0,5,0.038172279822314865
7.185,1.6192875458531019e-06,78.9997032039245,0,90,1.0,5,0.030921715544834992
7.19,8.201353897972012e-07,78.70055267993662,0,90,1.0,5,0.02475366350384785
7.195,4.0791415086824765e-07,78.44976802421002,0,90,1.0,5,0.01958284586000033
7.2,1.9923866938774793e-07,78.24253048240675,0,90,1.0,5,0.015309906853747415
7.205,9.556527981051257e-08,78.07368229950097,0,90,1.0,5,0.011828501020638621
7.21,4.501406988770349e-08,77.93801505095327,0,90,1.0,5,0.009031238163984913
7.215,0.0,77.8304966317818,0,90,1.0,5,0.006814363541892754
7.22,0.0,77.74643674394598,0,90,1.0,5,0.005081169978267584
7.225,0.0,77.68159517563214,0,90,1.0,5,0.0037442304254049416
7.23,0.0,77.63224022257143,0,90,1.0,6,0.0027266025272458896
7.235,0.0,77.59516631581924,0,90,1.0,6,0.0019621920787472524
7.24,0.0,77.56768046943643,0,90,1.0,6,0.0013954735966273202
7.245,0.0,77.54756679479637,0,90,1.0,6,0.0009807586555951992
7.25,0.0,77.53303732186714,0,90,1.0,6,0.0006811818941678587
7.255,0.0,77.52267598708985,0,90,1.0,6,0.00046754612556401535
7.26,0.0,77.51538112097494,0,90,1.0,6,0.0003171365149471419
7.265,0.0,77.51031027372,0,90,1.0,6,0.00021258296329886004
7.27,0.0,77.50682987606086,0,90,1.0,6,0.00014082218682191167
7.275,0.0,77.50447111531227,0,90,1.0,6,9.218794458289717e-05
7.28,0.0,77.50289253977044,0,90,1.0,6,5.963999526685941e-05
7.285,0.0,77.50184928236199,0,90,1.0,6,3.812953323686604e-05
7.29,0.0,77.50116838920664,0,90,1.0,6,2.4090499105981152e-05
7.295,0.0,77.50072951170684,0,90,1.0,6,1.5041478491477542e-05
7.3,0.0,77.50045012943687,0,90,1.0,6,9.281019316924508e-06
7.305,0.0,77.50027447512092,0,90,1.0,6,5.659280843666547e-06
7.31,0.0,77.50016539751311,0,90,1.0,6,3.4102580023678343e-06
7.315,0.0,77.50009849527245,0,90,1.0,6,2.03083035986901e-06
7.32,0.0,77.50005796451639,0,90,1.0,6,1.1951446677676826e-06
7.325,0.0,77.50003371083174,0,90,1.0,6,6.950686957497027e-07
7.33,0.0,77.50001937479605,0,90,1.0,6,3.9948033100493557e-07
7.335,0.0,77.50001100437119,0,90,1.0,6,2.2689425130939178e-07
7.34,0.001684486749771458,77.50000617666068,0,90,1.0,6,1.2735382837650157e-07
7.345,0.004172395771277602,77.50000342612084,0,90,1.0,6,7.064166682998944e-08
7.35,0.009438687428818865,77.5000018780711,0,90,1.0,6,3.872311552739345e-08
7.355,0.019500507867137046,77.50000101737673,0,90,1.0,6,2.097683983903181e-08
7.36,0.03679496976339974,77.50000054464309,0,90,1.0,6,1.1229754354363397e-08
7.365,0.06340728953298436,77.50000028813938,0,90,1.0,6,5.941018050939466e-09
7.37,0.09979255396093453,77.50000015064462,0,90,1.0,6,3.106074719306486e-09
7.375,0.14343835518453557,77.50000007783323,0,90,1.0,6,1.6048089684172924e-09
7.38,0.18829581417209276,77.50000003974084,0,90,1.0,6,8.193987619004887e-10
7.385,0.2257481735193119,77.50000002005254,0,90,1.0,6,4.134544161791654e-10
7.39,0.24718154073554727,77.50000000999913,0,90,1.0,6,2.061675641203861e-10
7.395,0.24718154074102772,77.50000000492737,0,90,1.0,6,1.0159530490651828e-10
7.4,0.22574817354072055,77.50000000239955,0,90,1.0,6,4.94751639428042e-11
7.405,0.18829581422840957,77.50000000115479,0,90,1.0,6,2.381006731983567e-11
7.41,0.14343835532456656,77.5000000005492,0,90,1.0,6,1.132385365316313e-11
7.415,0.09979255431561854,77.50000000025813,0,90,1.0,6,5.322184846328437e-12
7.42,0.06340729067170194,77.5000000001199,0,90,1.0,6,2.4721027058177174e-12
7.425,0.03679497683410042,77.50000000005502,0,90,1.0,6,1.1345243187064363e-12
7.43,0.019500578284482293,77.50000000002495,0,90,1.0,6,5.145208428844272e-13
7.435,0.009439396781978427,77.50000000001118,0,90,1.0,6,2.305967558941026e-13
7.44,0.004178588733610924,77.50000000000496,0,90,1.0,6,1.0225955248671133e-13
7.445,0.0017299316936037381,77.50000000000217,0,90,1.0,6,4.48301189984723e-14
7.45,0.0008997325756988589,77.50000000000094,0,90,1.0,6,1.9338482705223346e-14
7.455,0.001634769674224814,77.5000000000004,0,90,1.0,6,8.204204784034146e-15
7.46,0.00614904736476635,77.50000000000017,0,90,1.0,6,3.516087764586063e-15
7.465,0.02168080359963608,77.50000000000007,0,90,1.0,6,1.465036568577526e-15
7.47,0.06433400338904088,77.50000000000003,0,90,1.0,6,5.860146274310105e-16
7.475,0.1593410769217493,77.50000000000001,0,90,1.0,6,2.9300731371550523e-16
7.48,0.3291989194808569,77.5,0,90,1.0,6,0.0
7.485,0.5672906802982638,77.5,0,90,1.0,6,0.0
7.49,0.815339152120446,77.5,0,90,1.0,6,0.0
7.495,0.9768711246313155,77.50000285700571,1,90,1.0,6,5.890733424991792e-08
7.5,0.9726380909165361,77.5000055981037,0,90,1.0,6,1.1542481851411701e-07
7.505,0.7921091683291741,77.50001170193522,0,90,1.0,6,2.412770148805872e-07
7.51,0.49139090102639077,77.5000270882034,0,90,1.0,6,5.585196576478281e-07
7.515,0.15739335672107918,77.50007030382385,0,90,1.0,6,1.4495633782883385e-06
7.52,-0.11102342218909485,77.50019904185636,0,90,1.0,6,4.1039558012827685e-06
7.525,-0.2314207883647528,77.50058607134292,0,90,1.0,6,1.2083945214904703e-05
7.53,-0.2029124434754801,77.50172157287263,0,90,1.0,6,3.549634788918851e-05
7.535,-0.11151350554305876,77.50491227303426,0,90,1.0,6,0.00010128398008792904
7.54,-0.039430666652076896,77.51341548520728,0,90,1.0,6,0.00027660794241804996
7.545,-0.006087703519843621,77.53479767151332,0,90,1.0,6,0.0007174777631611781
7.55,0.005350271385530551,77.58538694566,0,90,1.0,6,0.001760555580618663
7.555,0.010381647827441833,77.69780421918405,0,90,1.0,6,0.004078437508949487
7.56,0.015115203303506243,77.93212374321509,0,90,1.0,6,0.008909767901341991
7.565,0.021170964062928475,78.38971621807644,0,90,1.0,6,0.018344664290235957
7.57,0.029082821134029553,79.22592550239746,0,90,1.0,6,0.035586092832937295
7.575,0.03923107061708144,80.65382694330745,0,90,1.0,6,0.06502735965582372
7.58,0.051969043308817596,82.92814688244911,0,90,1.0,6,0.1119205542773013
7.585,0.06760532616283861,86.29905479142072,0,90,1.0,6,0.1814238101323859
7.59,0.08636519236693461,90.93310591840898,0,90,1.0,6,0.27697125604966977
7.595,0.10834733138818661,96.81375736041753,0,90,1.0,6,0.3982218012457222
7.6,0.1334809643017884,103.65218979533569,0,90,1.0,6,0.5392204081512513
7.605,0.16148868344343945,110.85098906485283,0,90,1.0,6,0.6876492590691304
7.61,0.191860907532018,117.55776115670236,0,90,1.0,6,0.8259332197258218
7.615,0.22384764873847726,122.81835656489098,0,90,1.0,6,0.9343991044307418
7.62,0.25647215537198226,125.79775358536652,0,90,1.0,6,0.9958299708322994
7.625,0.2885689161419028,126.0,0,90,1.0,6,1.0
7.63,0.31884566517832524,123.40809829602208,0,90,1.0,6,0.9465587277530325
7.635,0.3459657668955683,118.49003065599916,0,90,1.0,6,0.8451552712577147
7.64,0.3686441789190902,112.06852813875727,0,90,1.0,6,0.71275315750015
7.645,0.3857476379544367,105.10477932098621,0,90,1.0,6,0.5691707076492002
7.65,0.3963882865005728,98.47443100842273,0,90,1.0,6,0.4324624950190253
7.655,0.4,92.8066072912793,0,90,1.0,6,0.3156001503356558
7.66,0.39638828650057273,88.42148372327156,0,90,1.0,6,0.2251852314076611
7.665,0.38574763795443656,85.35990241659837,0,90,1.0,6,0.16205984364120357
7.67,0.36864417891908974,83.46944358620377,0,90,1.0,6,0.12308131105574777
7.675,0.345965766895568,82.50409108932574,0,90,1.0,6,0.1031771358623864
7.68,0.3188456651783249,82.20538889595129,0,90,1.0,6,0.09701832775157294
7.685,0.28856891614190205,82.35118221387862,0,90,1.0,6,0.10002437554388899
7.69,0.2564721553719815,82.77370137387766,0,90,1.0,6,0.10873611080160117
7.695,0.22384764873847685,83.35697885227354,0,90,1.0,6,0.12076245056234107
7.7,0.19186090753201765,84.0246919330554,0,90,1.0,6,0.13452973057846174
7.705,0.16148868344343878,84.72653191551647,0,90,1.0,6,0.1490006580518861
7.71,0.1334809643017881,85.42725699479512,0,90,1.0,6,0.16344859783082713
7.715,0.10834733138818531,86.09955203844497,0,90,1.0,6,0.17731035130814368
7.72,0.08636519236690572,86.72019234262434,0,90,1.0,6,0.1901070586108112
7.725,0.06760532616242629,87.26848870696234,0,90,1.0,6,0.20141213828788337
7.73,0.05196904332202373,87.72606423286395,0,90,1.0,6,0.21084668521368966
7.735,0.03923107185803287,88.07728034294114,0,90,1.0,6,0.2180882544936317
7.74,0.02908287038705761,88.30988433026353,0,90,1.0,6,0.22288421299512431
7.745,0.02117220077308346,88.41562988670005,0,90,1.0,6,0.2250645337463927
7.75,0.0151361834125735,88.39073171494468,0,90,1.0,6,0.22455116938030265
7.755,0.010626454858290009,88.23608061227844,0,90,1.0,6,0.2213624868511019
7.76,0.007326255555493652,87.95718762032197,0,90,1.0,6,0.2156121158829273
7.765,0.004960179211183015,87.56385719193653,0,90,1.0,6,0.20750221014302134
7.77,0.0032978759379303545,87.06961485035202,0,90,1.0,6,0.19731164639901083
7.775,0.002153242296767213,86.49093547163766,0,90,1.0,6,0.18538011281727124
7.78,0.001380616732225004,85.84633343081921,0,90,1.0,6,0.17208934908905596
7.785,0.0008693106590991584,85.15538449808108,0,90,1.0,6,0.15784297934187785
7.79,0.000537524815942247,84.43775108996621,0,90,1.0,6,0.14304641422610748
7.795,0.0003263951340288585,83.71227751571944,0,90,1.0,6,0.12808819620040074
7.8,0.00019463030985187395,82.99621117057644,0,90,1.0,6,0.11332394166136998
7.805,0.00011397219555062695,82.30459074772966,0,90,1.0,6,0.09906372675731262
7.81,6.55403863487943e-05,81.64982534565863,0,90,1.0,6,0.08556340918883767
7.815,3.701184389455385e-05,81.04147079905813,0,90,1.0,6,0.0730200164754254
7.82,2.0525516217290957e-05,80.4861934573874,0,90,1.0,6,0.06157099912138971
7.825,1.1178128483661116e-05,79.98789840738041,0,90,1.0,6,0.05129687437897759
7.83,5.978135409912517e-06,79.54798972143004,0,90,1.0,6,0.04222659219443386
7.835,3.1396702713238487e-06,79.1657251050575,0,90,1.0,6,0.03434484752695885
7.84,1.6192875458531019e-06,78.83862619104653,0,90,1.0,6,0.027600540021577923
7.845,8.201353897972012e-07,78.5629081394647,0,90,1.0,6,0.021915631741540122
7.85,4.0791415086824765e-07,78.33389731528789,0,90,1.0,6,0.017193759078100723
7.855,1.9923866938774793e-07,78.14641264967727,0,90,1.0,6,0.013328095869634505
7.86,9.556527981051257e-08,77.9950938659425,0,90,1.0,6,0.010208120947267908
7.865,4.501406988770349e-08,77.87466719823882,0,90,1.0,6,0.007725096870903608
7.87,0.0,77.78014587226397,0,90,1.0,6,0.00577620355183448
7.875,0.0,77.7069680038797,0,90,1.0,6,0.004267381523292672
7.88,0.0,77.651078485453,0,90,1.0,6,0.0031150203186185305
7.885,0.0,77.6089638555516,0,90,1.0,6,0.0022466774340534693
7.89,0.0,77.57765022693218,0,90,1.0,6,0.0016010356068490341
7.895,0.0,77.55467432434818,0,90,1.0,6,0.0011273056566635917
7.9,0.0,77.53803685039938,0,90,1.0,6,0.0007842649566882334
7.905,0.0,77.52614605077103,0,90,1.0,6,0.0005390938303305668
7.91,0.0,77.5177577558228,0,90,1.0,6,0.0003661392953154532
7.915,0.0,77.51191654857978,0,90,1.0,6,0.000245702032572712
7.92,0.0,77.507901204888,0,90,1.0,6,0.0001629114409896965
7.925,0.0,77.5051762660216,0,90,1.0,6,0.00010672713446612442
7.93,0.0,77.50335058222204,0,90,1.0,6,6.908416952660915e-05
7.935,0.0,77.50214291231161,0,90,1.0,6,4.4183759002311787e-05
7.94,0.0,77.50135415677913,0,90,1.0,6,2.792075833256313e-05
7.945,0.0,77.50084550060859,0,90,1.0,6,1.7433002238989895e-05
7.95,0.0,77.50052160209725,0,90,1.0,6,1.075468241754972e-05
7.955,0.0,77.50031793999378,0,90,1.0,6,6.555463789233549e-06
7.96,0.0,77.50019148352861,0,90,1.0,6,3.948113991960669e-06
7.965,0.0,77.50011394574456,0,90,1.0,6,2.3493967950292517e-06
7.97,0.0,77.50006699543745,0,90,1.0,6,1.381349225776202e-06
7.975,0.0,77.50003891999467,0,90,1.0,6,8.024741168107361e-07
7.98,0.0,77.50002233987531,0,90,1.0,6,4.6061598587565985e-07
7.985,0.0,77.5000126697821,0,90,1.0,6,2.6123262050673147e-07
7.99,0.001684486749771458,77.50000709966693,0,90,1.0,6,1.4638488517110878e-07
7.995,0.004172395771277602,77.50000393085688,0,90,1.0,6,8.104859540891112e-08
8.0,0.009438687428818865,77.50000215038844,0,90,1.0,6,4.433790597441029e-08
8.005,0.019500507867137046,77.50000116232353,0,90,1.0,6,2.3965433568911375e-08
8.01,0.03679496976339974,77.50000062075121,0,90,1.0,6,1.2798993992939508e-08
8.015,0.06340728953298436,77.50000032755825,0,90,1.0,6,6.7537784391404165e-09
8.02,0.09979255396093453,77.50000017078115,0,90,1.0,6,3.52126080870971e-09
8.025,0.14343835518453557,77.50000008797753,0,90,1.0,6,1.8139696022472824e-09
8.03,0.18829581417209276,77.50000004478,0,90,1.0,6,9.232988623366931e-10
8.035,0.2257481735193119,77.50000002252042,0,90,1.0,6,4.6433865229362745e-10
8.04,0.24718154073554727,77.50000001119051,0,90,1.0,6,2.3073212527303918e-10
8.045,0.24718154074102772,77.50000000549419,0,90,1.0,6,1.1328219462137492e-10
8.05,0.22574817354072055,77.50000000266525,0,90,1.0,6,5.495352168734301e-11
8.055,0.18829581422840957,77.50000000127747,0,90,1.0,6,2.6339599459141628e-11
8.06,0.14343835532456656,77.50000000060498,0,90,1.0,6,1.247390735949649e-11
8.065,0.09979255431561854,77.5000000002831,0,90,1.0,6,5.83699869652658e-12
8.07,0.06340729067170194,77.50000000013088,0,90,1.0,6,2.698597359319803e-12
8.075,0.03679497683410042,77.50000000005979,0,90,1.0,6,1.2326817688011305e-12
8.08,0.019500578284482293,77.50000000002699,0,90,1.0,6,5.564208887457445e-13
8.085,0.009439396781978427,77.50000000001204,0,90,1.0,6,2.481771947170329e-13
8.09,0.004178588733610924,77.5000000000053,0,90,1.0,6,1.0929172801588345e-13
8.095,0.0017299316936037381,77.5000000000023,0,90,1.0,6,4.746718482191185e-14
8.1,0.0008997325756988589,77.500000000001,0,90,1.0,6,2.0510511960085366e-14
8.105,0.001634769674224814,77.50000000000043,0,90,1.0,6,8.790219411465157e-15
8.11,0.00614904736476635,77.50000000000017,0,90,1.0,6,3.516087764586063e-15
8.115,0.02168080359963608,77.50000000000007,0,90,1.0,6,1.465036568577526e-15
8.12,0.06433400338904088,77.50000000000003,0,90,1.0,6,5.860146274310105e-16
8.125,0.1593410769217493,77.50000000000001,0,90,1.0,6,2.9300731371550523e-16
8.13,0.3291989194808569,77.5,0,90,1.0,6,0.0
8.135,0.5672906802982638,77.5,0,90,1.0,6,0.0
8.14,0.815339152120446,77.5,0,90,1.0,6,0.0
8.145,0.9768711246313155,77.50000285328441,1,90,1.0,6,5.883060647572643e-08
8.15,0.9726380909165361,77.50000562140409,0,90,1.0,6,1.1590523887282392e-07
8.155,0.7921091683291741,77.50001183073464,0,90,1.0,6,2.4393267289710397e-07
8.16,0.49139090102639077,77.50002762917026,0,90,1.0,6,5.696736136471992e-07
8.165,0.15739335672107918,77.50007245443882,0,90,1.0,6,1.4939059550923367e-06
8.17,-0.11102342218909485,77.50020725996767,0,90,1.0,6,4.273401395187075e-06
8.175,-0.2314207883647528,77.50061582704151,0,90,1.0,6,1.269746477348854e-05
8.18,-0.2029124434754801,77.50182248868452,0,90,1.0,6,3.757708627885804e-05
8.185,-0.11151350554305876,77.5052310715901,0,90,1.0,6,0.00010785714618768954
8.19,-0.039430666652076896,77.51435172175279,0,90,1.0,6,0.0002959117887172917
8.195,-0.006087703519843621,77.53735285072946,0,90,1.0,6,0.0007701618707105621
8.2,0.005350271385530551,77.5918691803079,0,90,1.0,6,0.0018942099032555814
8.205,0.010381647827441833,77.71309481986977,0,90,1.0,6,0.004393707626180756
8.21,0.015115203303506243,77.96566482587883,0,90,1.0,6,0.009601336616058397
8.215,0.021170964062928475,78.45812550344493,0,90,1.0,6,0.01975516501948315
8.22,0.029082821134029553,79.35558674678168,0,90,1.0,6,0.03825952055219964
8.225,0.03923107061708144,80.88198151748664,0,90,1.0,6,0.06973157768013682
8.23,0.051969043308817596,83.30025257051231,0,90,1.0,6,0.11959283650540853
8.235,0.06760532616283861,86.86014114836432,0,90,1.0,6,0.19299260099720247
8.24,0.08636519236693461,91.71228864363101,0,90,1.0,6,0.29303687925012395
8.245,0.10834733138818661,97.80423612993579,0,90,1.0,6,0.4186440439162018
8.25,0.1334809643017884,104.79307462662686,0,90,1.0,6,0.5627438067345745
8.255,0.16148868344343945,112.02004978372179,0,90,1.0,6,0.7117536037880781
8.26,0.191860907532018,118.58316466468419,0,90,1.0,6,0.8470755600965812
8.265,0.22384764873847726,123.51148828718976,0,90,1.0,6,0.9486904801482425
8.27,0.25647215537198226,126.0,0,90,1.0,6,1.0
8.275,0.2885689161419028,125.62830221298329,0,90,1.0,6,0.9923361281027482
8.28,0.31884566517832524,122.48203243932362,0,90,1.0,6,0.9274645863778066
8.285,0.3459657668955683,117.12925074937131,0,90,1.0,6,0.8170979535952847
8.29,0.3686441789190902,110.46116941721593,0,90,1.0,6,0.6796117405611531
8.295,0.3857476379544367,103.45897551850818,0,90,1.0,6,0.5352366086290347
8.3,0.3963882865005728,96.97065636772538,0,90,1.0,6,0.4014568323242347
8.305,0.4,91.56589466519785,0,90,1.0,6,0.29001844670511023
8.31,0.39638828650057273,87.49604796974954,0,90,1.0,6,0.206104081850506
8.315,0.38574763795443656,84.74329427423734,0,90,1.0,6,0.14934627369561532
8.32,0.36864417891908974,83.11746244254847,0,90,1.0,6,0.11582396788759737
8.325,0.345965766895568,82.3568848664176,0,90,1.0,6,0.10014195600861034
8.33,0.3188456651783249,82.20419486948393,0,90,1.0,6,0.09699370864915315
8.335,0.28856891614190205,82.4474226772088,0,90,1.0,6,0.102008714993996
8.34,0.2564721553719815,82.93146838815557,0,90,1.0,6,0.11198903893104258
8.345,0.22384764873847685,83.55144100802794,0,90,1.0,6,0.12477197954696775
8.35,0.19186090753201765,84.23890517799641,0,90,1.0,6,0.13894649851539
8.355,0.16148868344343878,84.94831218827366,0,90,1.0,6,0.15357344718090024
8.36,0.1334809643017881,85.64686744660881,0,90,1.0,6,0.16797664838368678
8.365,0.10834733138818531,86.30832747591782,0,90,1.0,6,0.18161499950346022
8.37,0.08636519236690572,86.90992131114385,0,90,1.0,6,0.19401899610605872
8.375,0.06760532616242629,87.43130093518502,0,90,1.0,6,0.20476909144711383
8.38,0.05196904332202373,87.85460739278714,0,90,1.0,6,0.21349705964509577
8.385,0.03923107185803287,88.16503318602679,0,90,1.0,6,0.21989759146446988
8.39,0.02908287038705761,88.35150634707973,0,90,1.0,6,0.2237423989088605
8.395,0.02117220077308346,88.40728293523891,0,90,1.0,6,0.22489243165441053
8.4,0.0151361834125735,88.33033092317498,0,90,1.0,6,0.22330579223041203
8.405,0.010626454858290009,88.12344658788109,0,90,1.0,6,0.21904013583259982
8.41,0.007326255555493652,87.79408397232552,0,90,1.0,6,0.2122491540685675
8.415,0.004960179211183015,87.35390857822988,0,90,1.0,6,0.20317337274700778
8.42,0.0032978759379303545,86.81811153597118,0,90,1.0,6,0.19212601105095226
8.425,0.002153242296767213,86.20454017631614,0,90,1.0,6,0.17947505518177614
8.43,0.001380616732225004,85.5327142396845,0,90,1.0,6,0.1656229740141133
8.435,0.0008693106590991584,84.82280306012088,0,90,1.0,7,0.15098563010558508
8.44,0.000537524815942247,84.09463776038064,0,90,1.0,7,0.13597191258516775
8.445,0.0003263951340288585,83.36682439710084,0,90,1.0,7,0.1209654514866153
8.45,0.00019463030985187395,82.65601043153745,0,90,1.0,7,0.10630949343376192
8.455,0.00011397219555062695,81.97633972309383,0,90,1.0,7,0.09229566439368721
8.46,6.55403863487943e-05,81.33911255053565,0,90,1.0,7,0.07915695980485868
8.465,3.701184389455385e-05,80.75264902476607,0,90,1.0,7,0.0670649283456922
8.47,2.0525516217290957e-05,80.22233844465784,0,90,1.0,7,0.05613068958057395
8.475,1.1178128483661116e-05,79.75084496649728,0,90,1.0,7,0.04640917456695429
8.48,5.978135409912517e-06,79.33843213578254,0,90,1.0,7,0.03790581723262969
8.485,3.1396702713238487e-06,78.9833655092204,0,90,1.0,7,0.030584855860214546
8.49,1.6192875458531019e-06,78.682353399043,0,90,1.0,7,0.02437842059882464
8.495,8.201353897972012e-07,78.43098993416538,0,90,1.0,7,0.019195668745677973
8.5,4.0791415086824765e-07,78.22417115200214,0,90,1.0,7,0.014931363958807063
8.505,1.9923866938774793e-07,78.05646263625866,0,90,1.0,7,0.011473456417704288
8.51,9.556527981051257e-08,77.92240529264143,0,90,1.0,7,0.008709387477142862
8.515,4.501406988770349e-08,77.81675337219069,0,90,1.0,7,0.006530997364756479
8.52,0.0,77.73464521201578,0,90,1.0,7,0.004838045608572738
8.525,0.0,77.6717120211314,0,90,1.0,7,0.0035404540439463563
8.53,0.0,77.62413328746686,0,90,1.0,7,0.002559449226120855
8.535,0.0,77.58864910755129,0,90,1.0,7,0.0018278166505420771
8.54,0.0,77.56254016636984,0,90,1.0,7,0.0012894879663885074
8.545,0.0,77.54358552186387,0,90,1.0,7,0.0008986705538943297
8.55,0.0,77.53000709975734,0,90,1.0,7,0.0006187030877802349
8.555,0.0,77.52040818335705,0,90,1.0,7,0.00042078728571233844
8.56,0.0,77.51371144502332,0,90,1.0,7,0.00028271020666635973
8.565,0.0,77.50910040372447,0,90,1.0,7,0.00018763719019534853
8.57,0.0,77.50596673357165,0,90,1.0,7,0.00012302543446709286
8.575,0.0,77.5038646590576,0,90,1.0,7,7.968369190923545e-05
8.58,0.0,77.50247277317126,0,90,1.0,7,5.098501384047511e-05
8.585,0.0,77.50156298902219,0,90,1.0,7,3.222657777711771e-05
8.59,0.0,77.50097594676535,0,90,1.0,7,2.0122613718576384e-05
8.595,0.0,77.50060199777202,0,90,1.0,7,1.2412325196347533e-05
8.6,0.0,77.50036682775895,0,90,1.0,7,7.563458947475906e-06
8.605,0.0,77.50022081473722,0,90,1.0,7,4.552881179766775e-06
8.61,0.0,77.50013130838836,0,90,1.0,7,2.707389450754996e-06
8.615,0.0,77.50007713570277,0,90,1.0,7,1.5904268611824797e-06
8.62,0.0,77.50004476277108,0,90,1.0,7,9.229437336633748e-07
8.625,0.0,77.5000256612047,0,90,1.0,7,5.290970041749967e-07
8.63,0.0,77.50001453234408,0,90,1.0,7,2.996359604512503e-07
8.635,0.001684486749771458,77.50000813004326,0,90,1.0,7,1.6762975784547157e-07
8.64,0.004172395771277602,77.50000449312597,0,90,1.0,7,9.264177259462213e-08
8.645,0.009438687428818865,77.50000245303015,0,90,1.0,7,5.057794121207688e-08
8.65,0.019500507867137046,77.50000132298747,0,90,1.0,7,2.7278092215731037e-08
8.655,0.03679496976339974,77.50000070486692,0,90,1.0,7,1.4533338564677289e-08
8.66,0.06340728953298436,77.50000037098563,0,90,1.0,7,7.64918827934304e-09
8.665,0.09979255396093453,77.50000019288817,0,90,1.0,7,3.97707558524004e-09
8.67,0.14343835518453557,77.5000000990724,0,90,1.0,7,2.042729788299016e-09
8.675,0.18829581417209276,77.50000005026877,0,90,1.0,7,1.0364694211715425e-09
8.68,0.2257481735193119,77.50000002519663,0,90,1.0,7,5.195180826198451e-10
8.685,0.24718154073554727,77.50000001247628,0,90,1.0,7,2.572428410033907e-10
8.69,0.24718154074102772,77.50000000610277,0,90,1.0,7,1.2583023283124142e-10
8.695,0.22574817354072055,77.50000000294894,0,90,1.0,7,6.080282669104563e-11
8.7,0.18829581422840957,77.50000000140768,0,90,1.0,7,2.90244254747168e-11
