Time,ECG,Pressure,R_Peaks,mean_hr,hrv_scale,Phase_Bin,Normalized_Pressure
0.0,0.001684486749771458,77.5,0,90,1.0,0,0.0
0.005,0.004172395771277602,77.5,0,90,1.0,0,0.0
0.01,0.009438687428818865,77.5,0,90,1.0,0,0.0
0.015,0.019500507867137046,77.5,0,90,1.0,0,0.0
0.02,0.03679496976339974,77.5,0,90,1.0,0,0.0
0.025,0.06340728953298436,77.5,0,90,1.0,0,0.0
0.03,0.09979255396093453,77.5,0,90,1.0,0,0.0
0.035,0.14343835518453557,77.5,0,90,1.0,0,0.0
0.04,0.18829581417209276,77.5,0,90,1.0,0,0.0
0.045,0.2257481735193119,77.5,0,90,1.0,0,0.0
0.05,0.24718154073554727,77.5,0,90,1.0,0,0.0
0.055,0.24718154074102772,77.5,0,90,1.0,0,0.0
0.06,0.22574817354072055,77.5,0,90,1.0,0,0.0
0.065,0.18829581422840957,77.5,0,90,1.0,0,0.0
0.07,0.14343835532456656,77.5,0,90,1.0,0,0.0
0.075,0.09979255431561854,77.5,0,90,1.0,0,0.0
0.08,0.06340729067170194,77.5,0,90,1.0,0,0.0
0.085,0.03679497683410042,77.5,0,90,1.0,0,0.0
0.09,0.019500578284482293,77.5,0,90,1.0,0,0.0
0.095,0.009439396781978427,77.5,0,90,1.0,0,0.0
0.1,0.004178588733610924,77.5,0,90,1.0,0,0.0
0.105,0.0017299316936037381,77.5,0,90,1.0,0,0.0
0.11,0.0008997325756988589,77.5,0,90,1.0,0,0.0
0.115,0.001634769674224814,77.5,0,90,1.0,0,0.0
0.12,0.00614904736476635,77.5,0,90,1.0,0,0.0
0.125,0.02168080359963608,77.5,0,90,1.0,0,0.0
0.13,0.06433400338904088,77.5,0,90,1.0,0,0.0
0.135,0.1593410769217493,77.5,0,90,1.0,0,0.0
0.14,0.3291989194808569,77.5,0,90,1.0,0,0.0
0.145,0.5672906802982638,77.5,0,90,1.0,0,0.0
0.15,0.815339152120446,77.5,0,90,1.0,0,0.0
0.155,0.9768711246313155,77.5,0,90,1.0,0,0.0
0.16,0.9726380909165361,77.5,0,90,1.0,0,0.0
0.165,0.7921091683291741,77.5,0,90,1.0,0,0.0
0.17,0.49139090102639077,77.5,0,90,1.0,0,0.0
0.175,0.15739335672107918,77.5,0,90,1.0,0,0.0
0.18,-0.11102342218909485,77.5,0,90,1.0,0,0.0
0.185,-0.2314207883647528,77.5,0,90,1.0,0,0.0
0.19,-0.2029124434754801,77.5,0,90,1.0,0,0.0
0.195,-0.11151350554305876,77.5,0,90,1.0,0,0.0
0.2,-0.039430666652076896,77.5,0,90,1.0,0,0.0
0.205,-0.006087703519843621,77.5,0,90,1.0,0,0.0
0.21,0.005350271385530551,77.5,0,90,1.0,0,0.0
0.215,0.010381647827441833,77.5,0,90,1.0,0,0.0
0.22,0.015115203303506243,77.5,0,90,1.0,0,0.0
0.225,0.021170964062928475,77.5,0,90,1.0,0,0.0
0.23,0.029082821134029553,77.5,0,90,1.0,0,0.0
0.235,0.03923107061708144,77.5,0,90,1.0,0,0.0
0.24,0.051969043308817596,77.5,0,90,1.0,0,0.0
0.245,0.06760532616283861,77.5,0,90,1.0,0,0.0
0.25,0.08636519236693461,77.5,0,90,1.0,0,0.0
0.255,0.10834733138818661,77.5,0,90,1.0,0,0.0
0.26,0.1334809643017884,77.5,0,90,1.0,0,0.0
0.265,0.16148868344343945,77.5,0,90,1.0,0,0.0
0.27,0.191860907532018,77.5,0,90,1.0,0,0.0
0.275,0.22384764873847726,77.5,0,90,1.0,0,0.0
0.28,0.25647215537198226,77.5,0,90,1.0,0,0.0
0.285,0.2885689161419028,77.5,0,90,1.0,0,0.0
0.29,0.31884566517832524,77.5,0,90,1.0,0,0.0
0.295,0.3459657668955683,77.5,0,90,1.0,0,0.0
0.3,0.3686441789190902,77.5,0,90,1.0,0,0.0
0.305,0.3857476379544367,77.5,0,90,1.0,0,0.0
0.31,0.3963882865005728,77.5,0,90,1.0,0,0.0
0.315,0.4,77.5,0,90,1.0,0,0.0
0.32,0.39638828650057273,77.5,0,90,1.0,0,0.0
0.325,0.38574763795443656,77.5,0,90,1.0,0,0.0
0.33,0.36864417891908974,77.5,0,90,1.0,0,0.0
0.335,0.345965766895568,77.5,0,90,1.0,0,0.0
0.34,0.3188456651783249,77.5,0,90,1.0,0,0.0
0.345,0.28856891614190205,77.5,0,90,1.0,0,0.0
0.35,0.2564721553719815,77.5,0,90,1.0,0,0.0
0.355,0.22384764873847685,77.5,0,90,1.0,0,0.0
0.36,0.19186090753201765,77.5,0,90,1.0,0,0.0
0.365,0.16148868344343878,77.5,0,90,1.0,0,0.0
0.37,0.1334809643017881,77.5,0,90,1.0,0,0.0
0.375,0.10834733138818531,77.5,0,90,1.0,0,0.0
0.38,0.08636519236690572,77.5,0,90,1.0,0,0.0
0.385,0.06760532616242629,77.5,0,90,1.0,0,0.0
0.39,0.05196904332202373,77.5,0,90,1.0,0,0.0
0.395,0.03923107185803287,77.5,0,90,1.0,0,0.0
0.4,0.02908287038705761,77.5,0,90,1.0,0,0.0
0.405,0.02117220077308346,77.5,0,90,1.0,0,0.0
0.41,0.0151361834125735,77.5,0,90,1.0,0,0.0
0.415,0.010626454858290009,77.5,0,90,1.0,0,0.0
0.42,0.007326255555493652,77.5,0,90,1.0,0,0.0
0.425,0.004960179211183015,77.5,0,90,1.0,0,0.0
0.43,0.0032978759379303545,77.5,0,90,1.0,0,0.0
0.435,0.002153242296767213,77.5,0,90,1.0,0,0.0
0.44,0.001380616732225004,77.5,0,90,1.0,0,0.0
0.445,0.0008693106590991584,77.5,0,90,1.0,0,0.0
0.45,0.000537524815942247,77.5,0,90,1.0,0,0.0
0.455,0.0003263951340288585,77.5,0,90,1.0,0,0.0
0.46,0.00019463030985187395,77.5,0,90,1.0,0,0.0
0.465,0.00011397219555062695,77.5,0,90,1.0,0,0.0
0.47,6.55403863487943e-05,77.5,0,90,1.0,0,0.0
0.475,3.701184389455385e-05,77.5,0,90,1.0,0,0.0
0.48,2.0525516217290957e-05,77.5,0,90,1.0,0,0.0
0.485,1.1178128483661116e-05,77.5,0,90,1.0,0,0.0
0.49,5.978135409912517e-06,77.5,0,90,1.0,0,0.0
0.495,3.1396702713238487e-06,77.5,0,90,1.0,0,0.0
0.5,1.6192875458531019e-06,77.5,0,90,1.0,0,0.0
0.505,8.201353897972012e-07,77.5,0,90,1.0,0,0.0
0.51,4.0791415086824765e-07,77.5,0,90,1.0,0,0.0
0.515,1.9923866938774793e-07,77.5,0,90,1.0,0,0.0
0.52,9.556527981051257e-08,77.5,0,90,1.0,0,0.0
0.525,4.501406988770349e-08,77.5,0,90,1.0,0,0.0
0.53,0.0,77.5,0,90,1.0,0,0.0
0.535,0.0,77.5,0,90,1.0,0,0.0
0.54,0.0,77.5,0,90,1.0,0,0.0
0.545,0.0,77.5,0,90,1.0,0,0.0
0.55,0.0,77.5,0,90,1.0,0,0.0
0.555,0.0,77.5,0,90,1.0,0,0.0
0.56,0.0,77.5,0,90,1.0,0,0.0
0.565,0.0,77.5,0,90,1.0,0,0.0
0.57,0.0,77.5,0,90,1.0,0,0.0
0.575,0.0,77.5,0,90,1.0,0,0.0
0.58,0.0,77.5,0,90,1.0,0,0.0
0.585,0.0,77.5,0,90,1.0,0,0.0
0.59,0.0,77.5,0,90,1.0,0,0.0
0.595,0.0,77.5,0,90,1.0,0,0.0
0.6,0.0,77.5,0,90,1.0,0,0.0
0.605,0.0,77.5,0,90,1.0,0,0.0
0.61,0.0,77.5,0,90,1.0,0,0.0
0.615,0.0,77.5,0,90,1.0,0,0.0
0.62,0.0,77.5,0,90,1.0,0,0.0
0.625,0.0,77.5,0,90,1.0,0,0.0
0.63,0.0,77.5,0,90,1.0,0,0.0
0.635,0.0,77.5,0,90,1.0,0,0.0
0.64,0.0,77.5,0,90,1.0,0,0.0
0.645,0.0,77.5,0,90,1.0,0,0.0
0.65,0.0,77.5,0,90,1.0,0,0.0
0.655,0.0,77.5,0,90,1.0,0,0.0
0.66,0.0,77.5,0,90,1.0,0,0.0
0.665,0.0,77.5,0,90,1.0,0,0.0
0.67,0.0,77.5,0,90,1.0,0,0.0
0.675,0.0,77.5,0,90,1.0,0,0.0
0.68,0.001684486749771458,77.5,0,90,1.0,0,0.0
0.685,0.004172395771277602,77.5,0,90,1.0,0,0.0
0.69,0.009438687428818865,77.5,0,90,1.0,0,0.0
0.695,0.019500507867137046,77.5,0,90,1.0,0,0.0
0.7,0.03679496976339974,77.5,0,90,1.0,0,0.0
0.705,0.06340728953298436,77.5,0,90,1.0,0,0.0
0.71,0.09979255396093453,77.5,0,90,1.0,0,0.0
0.715,0.14343835518453557,77.5,0,90,1.0,0,0.0
0.72,0.18829581417209276,77.5,0,90,1.0,0,0.0
0.725,0.2257481735193119,77.5,0,90,1.0,0,0.0
0.73,0.24718154073554727,77.5,0,90,1.0,0,0.0
0.735,0.24718154074102772,77.5,0,90,1.0,0,0.0
0.74,0.22574817354072055,77.5,0,90,1.0,0,0.0
0.745,0.18829581422840957,77.5,0,90,1.0,0,0.0
0.75,0.14343835532456656,77.5,0,90,1.0,0,0.0
0.755,0.09979255431561854,77.5,0,90,1.0,0,0.0
0.76,0.06340729067170194,77.5,0,90,1.0,0,0.0
0.765,0.03679497683410042,77.5,0,90,1.0,0,0.0
0.77,0.019500578284482293,77.5,0,90,1.0,0,0.0
0.775,0.009439396781978427,77.5,0,90,1.0,0,0.0
0.78,0.004178588733610924,77.5,0,90,1.0,0,0.0
0.785,0.0017299316936037381,77.5,0,90,1.0,0,0.0
0.79,0.0008997325756988589,77.5,0,90,1.0,0,0.0
0.795,0.001634769674224814,77.5,0,90,1.0,0,0.0
0.8,0.00614904736476635,77.5,0,90,1.0,0,0.0
0.805,0.02168080359963608,77.5,0,90,1.0,0,0.0
0.81,0.06433400338904088,77.5,0,90,1.0,0,0.0
0.815,0.1593410769217493,77.5,0,90,1.0,0,0.0
0.82,0.3291989194808569,77.5,0,90,1.0,0,0.0
0.825,0.5672906802982638,77.5,0,90,1.0,0,0.0
0.83,0.815339152120446,77.5,0,90,1.0,0,0.0
0.835,0.9768711246313155,77.50000284359693,1,90,1.0,0,5.8630864561995826e-08
0.84,0.9726380909165361,77.50000548419933,0,90,1.0,0,1.1307627494144193e-07
0.845,0.7921091683291741,77.50001124088986,0,90,1.0,0,2.317709249813767e-07
0.85,0.49139090102639077,77.50002536697961,0,90,1.0,0,5.230305075000024e-07
0.855,0.15739335672107918,77.50006389056809,0,90,1.0,0,1.3173313007395262e-06
0.86,-0.11102342218909485,77.50017550461766,0,90,1.0,0,3.6186519104816886e-06
0.865,-0.2314207883647528,77.50050312573545,0,90,1.0,0,1.037372650410024e-05
0.87,-0.2029124434754801,77.50144560488555,0,90,1.0,0,2.9806286299926985e-05
0.875,-0.11151350554305876,77.50405253381912,0,90,1.0,0,8.355739833237495e-05
0.88,-0.039430666652076896,77.51091584732082,0,90,1.0,0,0.0002250690169240588
0.885,-0.006087703519843621,77.52802210333864,0,90,1.0,0,0.0005777753265699489
0.89,0.005350271385530551,77.56826624200473,0,90,1.0,0,0.0014075513815407234
0.895,0.010381647827441833,77.65747108052543,0,90,1.0,0,0.003246826402586094
0.9,0.015115203303506243,77.84353029025743,0,90,1.0,0,0.007083098768194506
0.905,0.021170964062928475,78.208294728616,0,90,1.0,0,0.014604015023010236
0.91,0.029082821134029553,78.87971080766134,0,90,1.0,0,0.02844764551879051
0.915,0.03923107061708144,80.03860769687986,0,90,1.0,0,0.052342426739791025
0.92,0.051969043308817596,81.9114678020172,0,90,1.0,0,0.0909580990106639
0.925,0.06760532616283861,84.73967911802492,0,90,1.0,0,0.14927173439226646
0.93,0.08636519236693461,88.71983424376735,0,90,1.0,0,0.23133678853128561
0.935,0.10834733138818661,93.92009701837561,0,90,1.0,0,0.3385587014098065
0.94,0.1334809643017884,100.19265177353559,0,90,1.0,0,0.46788972728939354
0.945,0.16148868344343945,107.11553201194583,0,90,1.0,0,0.6106295260195017
0.95,0.191860907532018,113.99980843728613,0,90,1.0,0,0.7525733698409512
0.955,0.22384764873847726,119.98355460807562,0,90,1.0,0,0.8759495795479509
0.96,0.25647215537198226,124.2034706308707,0,90,1.0,0,0.9629581573375402
0.965,0.2885689161419028,126.0,0,90,1.0,0,1.0
0.97,0.31884566517832524,125.0896730388076,0,90,1.0,0,0.9812303719341774
0.975,0.3459657668955683,121.64309031720336,0,90,1.0,0,0.9101668106639867
0.98,0.3686441789190902,116.23941024525399,0,90,1.0,0,0.7987507267062679
0.985,0.3857476379544367,109.71438740562652,0,90,1.0,0,0.6642141733118871
0.99,0.3963882865005728,102.95711288915504,0,90,1.0,0,0.5248889255495884
0.995,0.4,96.72341910788755,0,90,1.0,0,0.39635915686366086
1.0,0.39638828650057273,91.51813811820595,0,90,1.0,0,0.28903377563311244
1.005,0.38574763795443656,87.5651096594767,0,90,1.0,0,0.2075280342160145
1.01,0.36864417891908974,84.85055753012354,0,90,1.0,0,0.15155788721904204
1.015,0.345965766895568,83.20599367449054,0,90,1.0,0,0.11764935411320707
1.02,0.3188456651783249,82.39522658019695,0,90,1.0,0,0.10093250680818448
1.025,0.28856891614190205,82.18134970860318,0,90,1.0,0,0.09652267440418925
1.03,0.2564721553719815,82.36490781207327,0,90,1.0,0,0.10030737756852103
1.035,0.22384764873847685,82.79649701173709,0,90,1.0,0,0.10920612395334202
1.04,0.19186090753201765,83.37281201706614,0,90,1.0,0,0.12108890756837398
1.045,0.16148868344343878,84.02539184144003,0,90,1.0,0,0.1345441616791758
1.05,0.1334809643017881,84.70859251846929,0,90,1.0,0,0.14863077357668636
1.055,0.10834733138818531,85.39005201648826,0,90,1.0,0,0.1626814848760465
1.06,0.08636519236690572,86.044472758779,0,90,1.0,0,0.17617469605729885
1.065,0.06760532616242629,86.65025529584166,0,90,1.0,0,0.1886650576462198
1.07,0.05196904332202373,87.18810890053072,0,90,1.0,0,0.19975482269135508
1.075,0.03923107185803287,87.64083038423249,0,90,1.0,0,0.2090892862728348
1.08,0.02908287038705761,87.99366494888493,0,90,1.0,0,0.21636422575020467
1.085,0.02117220077308346,88.23487689607546,0,90,1.0,0,0.2213376679603188
1.09,0.0151361834125735,88.35631072246048,0,90,1.0,0,0.2238414581950614
1.095,0.010626454858290009,88.35381801207184,0,90,1.0,0,0.22379006210457403
1.1,0.007326255555493652,88.22748246937488,0,90,1.0,0,0.22118520555412116
1.105,0.004960179211183015,87.98161207029037,0,90,1.0,0,0.21611571278949213
1.11,0.0032978759379303545,87.62449423525337,0,90,1.0,0,0.20875245845883228
1.115,0.002153242296767213,87.1679318019965,0,90,1.0,0,0.199338800041165
1.12,0.001380616732225004,86.62659553682514,0,90,1.0,0,0.18817722756340485
1.125,0.0008693106590991584,86.01724256371354,0,90,1.0,0,0.1756132487363616
1.13,0.000537524815942247,85.35785865287932,0,90,1.0,0,0.16201770418307868
1.135,0.0003263951340288585,84.66678530372789,0,90,1.0,0,0.1477687691490287
1.14,0.00019463030985187395,83.96189001381458,0,90,1.0,0,0.1332348456456615
1.145,0.00011397219555062695,83.25983064690726,0,90,1.0,0,0.11875939478159302
1.15,6.55403863487943e-05,82.57545348721757,0,90,1.0,0,0.10464852550964067
1.155,3.701184389455385e-05,81.92135081114074,0,90,1.0,0,0.09116187239465445
1.16,2.0525516217290957e-05,81.30758917718623,0,90,1.0,0,0.07850699334404598
1.165,1.1178128483661116e-05,80.74160562584288,0,90,1.0,0,0.06683722939882226
1.17,5.978135409912517e-06,80.22825686325584,0,90,1.0,0,0.05625271883001725
1.175,3.1396702713238487e-06,79.76999719568829,0,90,1.0,0,0.046804065890480216
1.18,1.6192875458531019e-06,79.36715499256925,0,90,1.0,0,0.03849804108390215
1.185,8.201353897972012e-07,79.01827487455601,0,90,1.0,0,0.03130463658878378
1.19,4.0791415086824765e-07,78.72049337182925,0,90,1.0,0,0.0251648117902938
1.195,1.9923866938774793e-07,78.46991891897598,0,90,1.0,0,0.01999832822630882
1.2,9.556527981051257e-08,78.26199201676988,0,90,1.0,0,0.015711175603502697
1.205,4.501406988770349e-08,78.09180740822781,0,90,1.0,1,0.01220221460263522
1.21,0.0,77.95438643595452,0,90,1.0,1,0.009368792493907593
1.215,0.0,77.8448937347729,0,90,1.0,1,0.007111211026245273
1.22,0.0,77.75879759554243,0,90,1.0,1,0.005336032897782116
1.225,0.0,77.69197742146481,0,90,1.0,1,0.003958297349789957
1.23,0.0,77.640784569316,0,90,1.0,1,0.0029027746250721038
1.235,0.0,77.60206455450907,0,90,1.0,1,0.0021044238043107246
1.24,0.0,77.5731492398329,0,90,1.0,1,0.0015082317491319794
1.245,0.0,77.55182743021956,0,90,1.0,1,0.0010686068086507364
1.25,0.0,77.53630149568863,0,90,1.0,1,0.0007484844471883127
1.255,0.0,77.52513647346169,0,90,1.0,1,0.0005182778033337254
1.26,0.0,77.51720676241366,0,90,1.0,1,0.0003547786064673088
1.265,0.0,77.511644181374,0,90,1.0,1,0.00024008621389681167
1.27,0.0,77.50778993342809,0,90,1.0,1,0.00016061718408424248
1.275,0.0,77.50515197226336,0,90,1.0,1,0.00010622623223428528
1.28,0.0,77.50336843577756,0,90,1.0,1,6.945228407339903e-05
1.285,0.0,77.50217719842811,0,90,1.0,1,4.489068923947381e-05
1.29,0.0,77.50139117811788,0,90,1.0,1,2.868408490484136e-05
1.295,0.0,77.50087878462313,0,90,1.0,1,1.8119270579912145e-05
1.3,0.0,77.50054877857231,0,90,1.0,1,1.1315022109465176e-05
1.305,0.0,77.50033878707026,0,90,1.0,1,6.985300417782878e-06
1.31,0.0,77.50020676236647,0,90,1.0,1,4.263141576790151e-06
1.315,0.0,77.50012474729766,0,90,1.0,1,2.5721092301349007e-06
1.32,0.0,77.50007440562757,0,90,1.0,1,1.5341366509712372e-06
1.325,0.0,77.5000438728055,0,90,1.0,1,9.045939279563829e-07
1.33,0.0,77.50002557407974,0,90,1.0,1,5.273006132535284e-07
1.335,0.0,77.50001473735715,0,90,1.0,1,3.038630339786548e-07
1.34,0.0,77.50000839564733,0,90,1.0,1,1.7310613046545994e-07
1.345,0.001684486749771458,77.50000472828614,0,90,1.0,1,9.74904359394451e-08
1.35,0.004172395771277602,77.50000263249952,0,90,1.0,1,5.4278340539238665e-08
1.355,0.009438687428818865,77.50000144893144,0,90,1.0,1,2.987487510067366e-08
1.36,0.019500507867137046,77.50000078839227,0,90,1.0,1,1.6255510733581387e-08
1.365,0.03679496976339974,77.50000042408398,0,90,1.0,1,8.743999558777732e-09
1.37,0.06340728953298436,77.50000022551548,0,90,1.0,1,4.649803676113958e-09
1.375,0.09979255396093453,77.5000001185539,0,90,1.0,1,2.4444102915911515e-09
1.38,0.14343835518453557,77.50000006161271,0,90,1.0,1,1.270365146410768e-09
1.385,0.18829581417209276,77.5000000316548,0,90,1.0,1,6.526764283671113e-10
1.39,0.2257481735193119,77.5000000160777,0,90,1.0,1,3.3149909850368374e-10
1.395,0.24718154073554727,77.50000000807279,0,90,1.0,1,1.664492507169945e-10
1.4,0.24718154074102772,77.50000000400718,0,90,1.0,1,8.262220232149817e-11
1.405,0.22574817354072055,77.50000000196638,0,90,1.0,1,4.054400801344189e-11
1.41,0.18829581422840957,77.50000000095392,0,90,1.0,1,1.9668408940467004e-11
1.415,0.14343835532456656,77.50000000045748,0,90,1.0,1,9.432491443129545e-12
1.42,0.09979255431561854,77.50000000021689,0,90,1.0,1,4.471877621926041e-12
1.425,0.06340729067170194,77.50000000010165,0,90,1.0,1,2.095881315007009e-12
1.43,0.03679497683410042,77.5000000000471,0,90,1.0,1,9.710262376531843e-13
1.435,0.019500578284482293,77.50000000002157,0,90,1.0,1,4.4478510222013693e-13
1.44,0.009439396781978427,77.50000000000976,0,90,1.0,1,2.0129602452255209e-13
1.445,0.004178588733610924,77.50000000000438,0,90,1.0,1,9.02462526243756e-14
1.45,0.0017299316936037381,77.50000000000193,0,90,1.0,1,3.984899466530871e-14
1.455,0.0008997325756988589,77.50000000000085,0,90,1.0,1,1.7580438822930315e-14
1.46,0.001634769674224814,77.50000000000037,0,90,1.0,1,7.618190156603136e-15
1.465,0.00614904736476635,77.50000000000016,0,90,1.0,1,3.2230804508705575e-15
1.47,0.02168080359963608,77.50000000000007,0,90,1.0,1,1.465036568577526e-15
1.475,0.06433400338904088,77.50000000000003,0,90,1.0,1,5.860146274310105e-16
1.48,0.1593410769217493,77.50000000000001,0,90,1.0,1,2.9300731371550523e-16
1.485,0.3291989194808569,77.5,0,90,1.0,1,0.0
1.49,0.5672906802982638,77.5,0,90,1.0,1,0.0
1.495,0.815339152120446,77.5,0,90,1.0,1,0.0
1.5,0.9768711246313155,77.50000284150002,1,90,1.0,1,5.858762928180591e-08
1.505,0.9726380909165361,77.5000055087254,0,90,1.0,1,1.1358196688794948e-07
1.51,0.7921091683291741,77.50001136395807,0,90,1.0,1,2.3430841373428661e-07
1.515,0.49139090102639077,77.50002585890292,0,90,1.0,1,5.331732559967612e-07
1.52,0.15739335672107918,77.50006577270929,0,90,1.0,1,1.356138335905626e-06
1.525,-0.11102342218909485,77.50018247875063,0,90,1.0,1,3.76244846661487e-06
1.53,-0.2314207883647528,77.50052776496497,0,90,1.0,1,1.0881751855078582e-05
1.535,-0.2029124434754801,77.50152756139154,0,90,1.0,1,3.1496111165786474e-05
1.54,-0.11151350554305876,77.50430755613382,0,90,1.0,1,8.88155903881271e-05
1.545,-0.039430666652076896,77.5116563600092,0,90,1.0,1,0.00024033731977727622
1.55,-0.006087703519843621,77.53002739545968,0,90,1.0,1,0.0006191215558697577
1.555,0.005350271385530551,77.57333096905042,0,90,1.0,1,0.0015119787433075698
1.56,0.010381647827441833,77.66940490223725,0,90,1.0,1,0.0034928845822112743
1.565,0.015115203303506243,77.86976747664984,0,90,1.0,1,0.007624071683501874
1.57,0.021170964062928475,78.26211431813414,0,90,1.0,1,0.01571369728111625
1.575,0.029082821134029553,78.98267513398078,0,90,1.0,1,0.03057062131919128
1.58,0.03923107061708144,80.22218766058688,0,90,1.0,1,0.05612758063065738
1.585,0.051969043308817596,82.21612057642412,0,90,1.0,1,0.09723959951389932
1.59,0.06760532616283861,85.20932922752098,0,90,1.0,1,0.15895524180455634
1.595,0.08636519236693461,89.39039798617173,0,90,1.0,1,0.24516284507570588
1.6,0.10834733138818661,94.8028006534978,0,90,1.0,1,0.35675877636077935
1.605,0.1334809643017884,101.25612781731577,0,90,1.0,1,0.48981706839826333
1.61,0.16148868344343945,108.27370857382006,0,90,1.0,1,0.6345094551303105
1.615,0.191860907532018,115.11341104223824,0,90,1.0,1,0.775534248293572
1.62,0.22384764873847726,120.88000833622657,0,90,1.0,1,0.8944331615716817
1.625,0.25647215537198226,124.71329532894552,0,90,1.0,1,0.9734700067823818
1.63,0.2885689161419028,126.0,0,90,1.0,1,1.0
1.635,0.31884566517832524,124.53834900968857,0,90,1.0,1,0.9698628661791459
1.64,0.3459657668955683,120.59493192202842,0,90,1.0,1,0.8885552973614108
1.645,0.3686441789190902,114.83222413300682,0,90,1.0,1,0.7697365800619963
1.65,0.3857476379544367,108.13422420586735,0,90,1.0,1,0.6316334887807702
1.655,0.3963882865005728,101.3936098555063,0,90,1.0,1,0.492651749598068
1.66,0.4,95.33064507931,0,90,1.0,1,0.3676421665837114
1.665,0.39638828650057273,90.39185276201252,0,90,1.0,1,0.2658113971548973
1.67,0.38574763795443656,86.73955542986523,0,90,1.0,1,0.19050629752299453
1.675,0.36864417891908974,84.31059562557269,0,90,1.0,1,0.14042465207366367
1.68,0.345965766895568,82.9065602268215,0,90,1.0,1,0.11147546859425768
1.685,0.3188456651783249,82.28033336831763,0,90,1.0,1,0.09856357460448717
1.69,0.28856891614190205,82.19778113694667,0,90,1.0,1,0.09686146674116852
1.695,0.2564721553719815,82.46927305071628,0,90,1.0,1,0.1024592381590986
1.7,0.22384764873847685,82.95682150774277,0,90,1.0,1,0.11251178366479946
1.705,0.19186090753201765,83.56687754099825,0,90,1.0,1,0.12509025857728348
1.71,0.16148868344343878,84.23787322707521,0,90,1.0,1,0.1389252211768085
1.715,0.1334809643017881,84.92832444149448,0,90,1.0,1,0.15316132869060786
1.72,0.10834733138818531,85.60801881012263,0,90,1.0,1,0.16717564556953876
1.725,0.08636519236690572,86.25260772478875,0,90,1.0,1,0.18046613865543806
1.73,0.06760532616242629,86.84089403560439,0,90,1.0,1,0.19259575331143078
1.735,0.05196904332202373,87.35388295636871,0,90,1.0,1,0.20317284446121045
1.74,0.03923107185803287,87.77481720348132,0,90,1.0,1,0.21185190110270763
1.745,0.02908287038705761,88.08966243795557,0,90,1.0,1,0.21834355542176428
1.75,0.02117220077308346,88.28771551986046,0,90,1.0,1,0.22242712412083412
1.755,0.0151361834125735,88.36214631799686,0,90,1.0,1,0.22396177975251258
1.76,0.010626454858290009,88.31036736727964,0,90,1.0,1,0.22289417252122967
1.765,0.007326255555493652,88.13417633763018,0,90,1.0,1,0.21926136778618927
1.77,0.004960179211183015,87.83965035915766,0,90,1.0,1,0.213188667199127
1.775,0.0032978759379303545,87.43679744267308,0,90,1.0,1,0.20488242149841407
1.78,0.002153242296767213,86.9389917989111,0,90,1.0,1,0.1946183876064145
1.785,0.001380616732225004,86.36223716698538,0,90,1.0,1,0.18272653952547177
1.79,0.0008693106590991584,85.72431461211428,0,90,1.0,1,0.16957349715699555
1.795,0.000537524815942247,85.04387789533241,0,90,1.0,1,0.15554387413056525
1.8,0.0003263951340288585,84.33956014461978,0,90,1.0,1,0.14102185865195427
1.805,0.00019463030985187395,83.62915046826862,0,90,1.0,1,0.1263742364591468
1.81,0.00011397219555062695,82.92888923969679,0,90,1.0,1,0.11193586061230489
1.815,6.55403863487943e-05,82.25291740154772,0,90,1.0,1,0.09799829693912823
1.82,3.701184389455385e-05,81.61289990625842,0,90,1.0,1,0.08480205992285401
1.825,2.0525516217290957e-05,81.01782800176962,0,90,1.0,1,0.07253253611896114
1.83,1.1178128483661116e-05,80.47399100328275,0,90,1.0,1,0.0613194021295412
1.835,5.978135409912517e-06,79.9850966673004,0,90,1.0,1,0.05123910654227622
1.84,3.1396702713238487e-06,79.55251108450634,0,90,1.0,1,0.04231981617538835
1.845,1.6192875458531019e-06,79.17558445710158,0,90,1.0,1,0.034548133136115024
1.85,8.201353897972012e-07,78.85202811529082,0,90,1.0,1,0.027876868356511774
1.855,4.0791415086824765e-07,78.57831019218708,0,90,1.0,1,0.022233199838908767
1.86,1.9923866938774793e-07,78.35004180586505,0,90,1.0,1,0.01752663517247519
1.865,9.556527981051257e-08,78.16233155760507,0,90,1.0,1,0.013656320775362298
1.87,4.501406988770349e-08,78.01009280593172,0,90,1.0,1,0.01051737744189113
1.875,0.0,77.88829476616297,0,90,1.0,1,0.008006077652844772
1.88,0.0,77.79215442099877,0,90,1.0,1,0.006023802494820002
1.885,0.0,77.71727110655786,0,90,1.0,1,0.004479816630058962
1.89,0.0,77.65970925268655,0,90,1.0,1,0.003292974282196985
1.895,0.0,77.61603707332719,0,90,1.0,1,0.0023925169758183882
1.9,0.0,77.58333012691409,0,90,1.0,1,0.0017181469466823053
1.905,0.0,77.55914879585012,0,90,1.0,1,0.0012195628010334112
1.91,0.0,77.54149811404007,0,90,1.0,1,0.0008556312173209687
1.915,0.0,77.52877725728622,0,90,1.0,1,0.0005933455110561316
1.92,0.0,77.51972463735181,0,90,1.0,1,0.0004066935536456509
1.925,0.0,77.51336310074132,0,90,1.0,1,0.00027552785033640716
1.93,0.0,77.50894837231351,0,90,1.0,1,0.0001845025219280774
1.935,0.0,77.50592269592266,0,90,1.0,1,0.00012211744170440163
1.94,0.0,77.50387465835057,0,90,1.0,1,7.988986289831832e-05
1.945,0.0,77.50250545138663,0,90,1.0,1,5.1658791476807595e-05
1.95,0.0,77.50160131633649,0,90,1.0,1,3.301683168021236e-05
1.955,0.0,77.50101159546982,0,90,1.0,1,2.0857638552975802e-05
1.96,0.0,77.5006316481158,0,90,1.0,1,1.3023672490711779e-05
1.965,0.0,77.50038983616128,0,90,1.0,1,8.037858995371654e-06
1.97,0.0,77.50023780863849,0,90,1.0,1,4.903270896659603e-06
1.975,0.0,77.50014338764066,0,90,1.0,1,2.9564461992214493e-06
1.98,0.0,77.50008545439401,0,90,1.0,1,1.7619462682629541e-06
1.985,0.0,77.5000503379664,0,90,1.0,1,1.0378962144255338e-06
1.99,0.0,77.50002930863025,0,90,1.0,1,6.04301654562995e-07
1.995,0.0,77.50001686684932,0,90,1.0,1,3.47770089106656e-07
2.0,0.0,77.50000959424924,0,90,1.0,1,1.9781957185729233e-07
2.005,0.001684486749771458,77.50000539419466,0,90,1.0,1,1.1122050843190777e-07
2.01,0.004172395771277602,77.50000299764929,0,90,1.0,1,6.180720184911667e-08
2.015,0.009438687428818865,77.50000164654504,0,90,1.0,1,3.394938235689233e-08
2.02,0.019500507867137046,77.50000089393305,0,90,1.0,1,1.8431609246878916e-08
2.025,0.03679496976339974,77.50000047970579,0,90,1.0,1,9.890841025930826e-09
2.03,0.06340728953298436,77.5000002544389,0,90,1.0,1,5.246162926755695e-09
2.035,0.09979255396093453,77.50000013339228,0,90,1.0,1,2.750356222265706e-09
2.04,0.14343835518453557,77.50000006912201,0,90,1.0,1,1.4251960711243151e-09
2.045,0.18829581417209276,77.50000003540305,0,90,1.0,1,7.299597444253993e-10
2.05,0.2257481735193119,77.5000000179227,0,90,1.0,1,3.695402380433678e-10
2.055,0.24718154073554727,77.5000000089682,0,90,1.0,1,1.8491134854689477e-10
2.06,0.24718154074102772,77.50000000443552,0,90,1.0,1,9.145402877151092e-11
2.065,0.22574817354072055,77.50000000216832,0,90,1.0,1,4.4707641941339216e-11
2.07,0.18829581422840957,77.50000000104771,0,90,1.0,1,2.160225721098934e-11
2.075,0.14343835532456656,77.50000000050038,0,90,1.0,1,1.0317080523236655e-11
2.08,0.09979255431561854,77.5000000002362,0,90,1.0,1,4.870074561265413e-12
2.085,0.06340729067170194,77.5000000001102,0,90,1.0,1,2.272271717863743e-12
2.09,0.03679497683410042,77.50000000005083,0,90,1.0,1,1.0480871611603622e-12
2.095,0.019500578284482293,77.50000000002316,0,90,1.0,1,4.776019213562735e-13
2.1,0.009439396781978427,77.50000000001044,0,90,1.0,1,2.1536037558089634e-13
2.105,0.004178588733610924,77.50000000000465,0,90,1.0,1,9.581339158497021e-14
2.11,0.0017299316936037381,77.50000000000205,0,90,1.0,1,4.2193053175032755e-14
2.115,0.0008997325756988589,77.5000000000009,0,90,1.0,1,1.845946076407683e-14
2.12,0.001634769674224814,77.50000000000038,0,90,1.0,1,7.911197470318642e-15
2.125,0.00614904736476635,77.50000000000016,0,90,1.0,1,3.2230804508705575e-15
2.13,0.02168080359963608,77.50000000000007,0,90,1.0,1,1.465036568577526e-15
2.135,0.06433400338904088,77.50000000000003,0,90,1.0,1,5.860146274310105e-16
2.14,0.1593410769217493,77.50000000000001,0,90,1.0,1,2.9300731371550523e-16
2.145,0.3291989194808569,77.5,0,90,1.0,1,0.0
2.15,0.5672906802982638,77.5,0,90,1.0,1,0.0
2.155,0.815339152120446,77.5,0,90,1.0,1,0.0
2.16,0.9768711246313155,77.50000284359693,1,90,1.0,1,5.8630864561995826e-08
2.165,0.9726380909165361,77.50000548419933,0,90,1.0,1,1.1307627494144193e-07
2.17,0.7921091683291741,77.50001124088986,0,90,1.0,1,2.317709249813767e-07
2.175,0.49139090102639077,77.50002536697961,0,90,1.0,1,5.230305075000024e-07
2.18,0.15739335672107918,77.50006389056809,0,90,1.0,1,1.3173313007395262e-06
2.185,-0.11102342218909485,77.50017550461766,0,90,1.0,1,3.6186519104816886e-06
2.19,-0.2314207883647528,77.50050312573545,0,90,1.0,1,1.037372650410024e-05
2.195,-0.2029124434754801,77.50144560488555,0,90,1.0,1,2.9806286299926985e-05
2.2,-0.11151350554305876,77.50405253381912,0,90,1.0,1,8.355739833237495e-05
2.205,-0.039430666652076896,77.51091584732082,0,90,1.0,1,0.0002250690169240588
2.21,-0.006087703519843621,77.52802210333864,0,90,1.0,1,0.0005777753265699489
2.215,0.005350271385530551,77.56826624200473,0,90,1.0,1,0.0014075513815407234
2.22,0.010381647827441833,77.65747108052543,0,90,1.0,1,0.003246826402586094
2.225,0.015115203303506243,77.84353029025743,0,90,1.0,1,0.007083098768194506
2.23,0.021170964062928475,78.208294728616,0,90,1.0,1,0.014604015023010236
2.235,0.029082821134029553,78.87971080766134,0,90,1.0,1,0.02844764551879051
2.24,0.03923107061708144,80.03860769687986,0,90,1.0,1,0.052342426739791025
2.245,0.051969043308817596,81.9114678020172,0,90,1.0,1,0.0909580990106639
2.25,0.06760532616283861,84.73967911802492,0,90,1.0,1,0.14927173439226646
2.255,0.08636519236693461,88.71983424376735,0,90,1.0,1,0.23133678853128561
2.26,0.10834733138818661,93.92009701837561,0,90,1.0,1,0.3385587014098065
2.265,0.1334809643017884,100.19265177353559,0,90,1.0,1,0.46788972728939354
2.27,0.16148868344343945,107.11553201194583,0,90,1.0,1,0.6106295260195017
2.275,0.191860907532018,113.99980843728613,0,90,1.0,1,0.7525733698409512
2.28,0.22384764873847726,119.98355460807562,0,90,1.0,1,0.8759495795479509
2.285,0.25647215537198226,124.2034706308707,0,90,1.0,1,0.9629581573375402
2.29,0.2885689161419028,126.0,0,90,1.0,1,1.0
2.295,0.31884566517832524,125.0896730388076,0,90,1.0,1,0.9812303719341774
2.3,0.3459657668955683,121.64309031720336,0,90,1.0,1,0.9101668106639867
2.305,0.3686441789190902,116.23941024525399,0,90,1.0,1,0.7987507267062679
2.31,0.3857476379544367,109.71438740562652,0,90,1.0,1,0.6642141733118871
2.315,0.3963882865005728,102.95711288915504,0,90,1.0,1,0.5248889255495884
2.32,0.4,96.72341910788755,0,90,1.0,1,0.39635915686366086
2.325,0.39638828650057273,91.51813811820595,0,90,1.0,1,0.28903377563311244
2.33,0.38574763795443656,87.5651096594767,0,90,1.0,1,0.2075280342160145
2.335,0.36864417891908974,84.85055753012354,0,90,1.0,1,0.15155788721904204
2.34,0.345965766895568,83.20599367449054,0,90,1.0,1,0.11764935411320707
2.345,0.3188456651783249,82.39522658019695,0,90,1.0,1,0.10093250680818448
2.35,0.28856891614190205,82.18134970860318,0,90,1.0,1,0.09652267440418925
2.355,0.2564721553719815,82.36490781207327,0,90,1.0,1,0.10030737756852103
2.36,0.22384764873847685,82.79649701173709,0,90,1.0,1,0.10920612395334202
2.365,0.19186090753201765,83.37281201706614,0,90,1.0,1,0.12108890756837398
2.37,0.16148868344343878,84.02539184144003,0,90,1.0,1,0.1345441616791758
2.375,0.1334809643017881,84.70859251846929,0,90,1.0,1,0.14863077357668636
2.38,0.10834733138818531,85.39005201648826,0,90,1.0,1,0.1626814848760465
2.385,0.08636519236690572,86.044472758779,0,90,1.0,1,0.17617469605729885
2.39,0.06760532616242629,86.65025529584166,0,90,1.0,1,0.1886650576462198
2.395,0.05196904332202373,87.18810890053072,0,90,1.0,1,0.19975482269135508
2.4,0.03923107185803287,87.64083038423249,0,90,1.0,1,0.2090892862728348
2.405,0.02908287038705761,87.99366494888493,0,90,1.0,1,0.21636422575020467
2.41,0.02117220077308346,88.23487689607546,0,90,1.0,2,0.2213376679603188
2.415,0.0151361834125735,88.35631072246048,0,90,1.0,2,0.2238414581950614
2.42,0.010626454858290009,88.35381801207184,0,90,1.0,2,0.22379006210457403
2.425,0.007326255555493652,88.22748246937488,0,90,1.0,2,0.22118520555412116
2.43,0.004960179211183015,87.98161207029037,0,90,1.0,2,0.21611571278949213
2.435,0.0032978759379303545,87.62449423525337,0,90,1.0,2,0.20875245845883228
2.44,0.002153242296767213,87.1679318019965,0,90,1.0,2,0.199338800041165
2.445,0.001380616732225004,86.62659553682514,0,90,1.0,2,0.18817722756340485
2.45,0.0008693106590991584,86.01724256371354,0,90,1.0,2,0.1756132487363616
2.455,0.000537524815942247,85.35785865287932,0,90,1.0,2,0.16201770418307868
2.46,0.0003263951340288585,84.66678530372789,0,90,1.0,2,0.1477687691490287
2.465,0.00019463030985187395,83.96189001381458,0,90,1.0,2,0.1332348456456615
2.47,0.00011397219555062695,83.25983064690726,0,90,1.0,2,0.11875939478159302
2.475,6.55403863487943e-05,82.57545348721757,0,90,1.0,2,0.10464852550964067
2.48,3.701184389455385e-05,81.92135081114074,0,90,1.0,2,0.09116187239465445
2.485,2.0525516217290957e-05,81.30758917718623,0,90,1.0,2,0.07850699334404598
2.49,1.1178128483661116e-05,80.74160562584288,0,90,1.0,2,0.06683722939882226
2.495,5.978135409912517e-06,80.22825686325584,0,90,1.0,2,0.05625271883001725
2.5,3.1396702713238487e-06,79.76999719568829,0,90,1.0,2,0.046804065890480216
2.505,1.6192875458531019e-06,79.36715499256925,0,90,1.0,2,0.03849804108390215
2.51,8.201353897972012e-07,79.01827487455601,0,90,1.0,2,0.03130463658878378
2.515,4.0791415086824765e-07,78.72049337182925,0,90,1.0,2,0.0251648117902938
2.52,1.9923866938774793e-07,78.46991891897598,0,90,1.0,2,0.01999832822630882
2.525,9.556527981051257e-08,78.26199201676988,0,90,1.0,2,0.015711175603502697
2.53,4.501406988770349e-08,78.09180740822781,0,90,1.0,2,0.01220221460263522
2.535,0.0,77.95438643595452,0,90,1.0,2,0.009368792493907593
2.54,0.0,77.8448937347729,0,90,1.0,2,0.007111211026245273
2.545,0.0,77.75879759554243,0,90,1.0,2,0.005336032897782116
2.55,0.0,77.69197742146481,0,90,1.0,2,0.003958297349789957
2.555,0.0,77.640784569316,0,90,1.0,2,0.0029027746250721038
2.56,0.0,77.60206455450907,0,90,1.0,2,0.0021044238043107246
2.565,0.0,77.5731492398329,0,90,1.0,2,0.0015082317491319794
2.57,0.0,77.55182743021956,0,90,1.0,2,0.0010686068086507364
2.575,0.0,77.53630149568863,0,90,1.0,2,0.0007484844471883127
2.58,0.0,77.52513647346169,0,90,1.0,2,0.0005182778033337254
2.585,0.0,77.51720676241366,0,90,1.0,2,0.0003547786064673088
2.59,0.0,77.511644181374,0,90,1.0,2,0.00024008621389681167
2.595,0.0,77.50778993342809,0,90,1.0,2,0.00016061718408424248
2.6,0.0,77.50515197226336,0,90,1.0,2,0.00010622623223428528
2.605,0.0,77.50336843577756,0,90,1.0,2,6.945228407339903e-05
2.61,0.0,77.50217719842811,0,90,1.0,2,4.489068923947381e-05
2.615,0.0,77.50139117811788,0,90,1.0,2,2.868408490484136e-05
2.62,0.0,77.50087878462313,0,90,1.0,2,1.8119270579912145e-05
2.625,0.0,77.50054877857231,0,90,1.0,2,1.1315022109465176e-05
2.63,0.0,77.50033878707026,0,90,1.0,2,6.985300417782878e-06
2.635,0.0,77.50020676236647,0,90,1.0,2,4.263141576790151e-06
2.64,0.0,77.50012474729766,0,90,1.0,2,2.5721092301349007e-06
2.645,0.0,77.50007440562757,0,90,1.0,2,1.5341366509712372e-06
2.65,0.0,77.5000438728055,0,90,1.0,2,9.045939279563829e-07
2.655,0.0,77.50002557407974,0,90,1.0,2,5.273006132535284e-07
2.66,0.0,77.50001473735715,0,90,1.0,2,3.038630339786548e-07
2.665,0.0,77.50000839564733,0,90,1.0,2,1.7310613046545994e-07
2.67,0.001684486749771458,77.50000472828614,0,90,1.0,2,9.74904359394451e-08
2.675,0.004172395771277602,77.50000263249952,0,90,1.0,2,5.4278340539238665e-08
2.68,0.009438687428818865,77.50000144893144,0,90,1.0,2,2.987487510067366e-08
2.685,0.019500507867137046,77.50000078839227,0,90,1.0,2,1.6255510733581387e-08
2.69,0.03679496976339974,77.50000042408398,0,90,1.0,2,8.743999558777732e-09
2.695,0.06340728953298436,77.50000022551548,0,90,1.0,2,4.649803676113958e-09
2.7,0.09979255396093453,77.5000001185539,0,90,1.0,2,2.4444102915911515e-09
2.705,0.14343835518453557,77.50000006161271,0,90,1.0,2,1.270365146410768e-09
2.71,0.18829581417209276,77.5000000316548,0,90,1.0,2,6.526764283671113e-10
2.715,0.2257481735193119,77.5000000160777,0,90,1.0,2,3.3149909850368374e-10
2.72,0.24718154073554727,77.50000000807279,0,90,1.0,2,1.664492507169945e-10
2.725,0.24718154074102772,77.50000000400718,0,90,1.0,2,8.262220232149817e-11
2.73,0.22574817354072055,77.50000000196638,0,90,1.0,2,4.054400801344189e-11
2.735,0.18829581422840957,77.50000000095392,0,90,1.0,2,1.9668408940467004e-11
2.74,0.14343835532456656,77.50000000045748,0,90,1.0,2,9.432491443129545e-12
2.745,0.09979255431561854,77.50000000021689,0,90,1.0,2,4.471877621926041e-12
2.75,0.06340729067170194,77.50000000010165,0,90,1.0,2,2.095881315007009e-12
2.755,0.03679497683410042,77.5000000000471,0,90,1.0,2,9.710262376531843e-13
2.76,0.019500578284482293,77.50000000002157,0,90,1.0,2,4.4478510222013693e-13
2.765,0.009439396781978427,77.50000000000976,0,90,1.0,2,2.0129602452255209e-13
2.77,0.004178588733610924,77.50000000000438,0,90,1.0,2,9.02462526243756e-14
2.775,0.0017299316936037381,77.50000000000193,0,90,1.0,2,3.984899466530871e-14
2.78,0.0008997325756988589,77.50000000000085,0,90,1.0,2,1.7580438822930315e-14
2.785,0.001634769674224814,77.50000000000037,0,90,1.0,2,7.618190156603136e-15
2.79,0.00614904736476635,77.50000000000016,0,90,1.0,2,3.2230804508705575e-15
2.795,0.02168080359963608,77.50000000000007,0,90,1.0,2,1.465036568577526e-15
2.8,0.06433400338904088,77.50000000000003,0,90,1.0,2,5.860146274310105e-16
2.805,0.1593410769217493,77.50000000000001,0,90,1.0,2,2.9300731371550523e-16
2.81,0.3291989194808569,77.5,0,90,1.0,2,0.0
2.815,0.5672906802982638,77.5,0,90,1.0,2,0.0
2.82,0.815339152120446,77.5,0,90,1.0,2,0.0
2.825,0.9768711246313155,77.50000284586159,1,90,1.0,2,5.8677558500516847e-08
2.83,0.9726380909165361,77.50000554640805,0,90,1.0,2,1.1435892881458993e-07
2.835,0.7921091683291741,77.50001151682932,0,90,1.0,2,2.374603983045426e-07
2.84,0.49139090102639077,77.50002643002445,0,90,1.0,2,5.449489576934416e-07
2.845,0.15739335672107918,77.50006790101995,0,90,1.0,2,1.4000210298195504e-06
2.85,-0.11102342218909485,77.50019028911501,0,90,1.0,2,3.923486907442379e-06
2.855,-0.2314207883647528,77.50055528372543,0,90,1.0,2,1.1449148977995606e-05
2.86,-0.2029124434754801,77.5016191003873,0,90,1.0,2,3.338351314024416e-05
2.865,-0.11151350554305876,77.50459268016454,0,90,1.0,2,9.469443638216635e-05
2.87,-0.039430666652076896,77.51248521717368,0,90,1.0,2,0.00025742715822012853
2.875,-0.006087703519843621,77.53227388620262,0,90,1.0,2,0.0006654409526312796
2.88,0.005350271385530551,77.57900721106344,0,90,1.0,2,0.0016290146611018807
2.885,0.010381647827441833,77.68277725789753,0,90,1.0,2,0.003768603255619115
2.89,0.015115203303506243,77.89914273187748,0,90,1.0,2,0.008229747049020112
2.895,0.021170964062928475,78.32227751227126,0,90,1.0,2,0.01695417551074755
2.9,0.029082821134029553,79.09751100293126,0,90,1.0,2,0.03293837119445889
2.905,0.03923107061708144,80.42630442384339,0,90,1.0,2,0.06033617368749259
2.91,0.051969043308817596,82.55354337917821,0,90,1.0,2,0.10419677070470533
2.915,0.06760532616283861,85.72706210298368,0,90,1.0,2,0.16963014645327176
2.92,0.08636519236693461,90.12554414875623,0,90,1.0,2,0.26032049791249967
2.925,0.10834733138818661,95.76438236317041,0,90,1.0,2,0.3765852033643384
2.93,0.1334809643017884,102.40631247838554,0,90,1.0,2,0.5135322160491865
2.935,0.16148868344343945,109.51624731799802,0,90,1.0,2,0.6601288106803715
2.94,0.191860907532018,116.29749655462248,0,90,1.0,2,0.7999483825695357
2.945,0.22384764873847726,121.82388594751711,0,90,1.0,2,0.9138945556189095
2.95,0.25647215537198226,125.24436869130892,0,90,1.0,2,0.9844199730166788
2.955,0.2885689161419028,126.0,0,90,1.0,2,1.0
2.96,0.31884566517832524,123.97778706854874,0,90,1.0,2,0.9583048880113142
2.965,0.3459657668955683,119.54358950815404,0,90,1.0,2,0.8668781341887432
2.97,0.3686441789190902,113.44132554854066,0,90,1.0,2,0.7410582587327972
2.975,0.3857476379544367,106.59703250521925,0,90,1.0,2,0.599938814540603
2.98,0.3963882865005728,99.89899699454637,0,90,1.0,2,0.46183498957827557
2.985,0.4,94.02516929242782,0,90,1.0,2,0.3407251400500581
2.99,0.39638828650057273,89.3603322958374,0,90,1.0,2,0.24454293393479165
2.995,0.38574763795443656,86.00561321118767,0,90,1.0,2,0.1753734682719106
3.0,0.36864417891908974,83.85152120488316,0,90,1.0,2,0.13095920010068363
3.005,0.345965766895568,82.67378992307566,0,90,1.0,2,0.10667608088815793
3.01,0.3188456651783249,82.21795644486333,0,90,1.0,2,0.09727745247140893
3.015,0.28856891614190205,82.25491311032039,0,90,1.0,2,0.09803944557361624
3.02,0.2564721553719815,82.60568848479885,0,90,1.0,2,0.10527192752162572
3.025,0.22384764873847685,83.14350119463039,0,90,1.0,2,0.11636084937382245
3.03,0.19186090753201765,83.78381880877807,0,90,1.0,2,0.12956327440779516
3.035,0.16148868344343878,84.47111934410529,0,90,1.0,2,0.14373441946608845
3.04,0.1334809643017881,85.16736816282359,0,90,1.0,2,0.15809006521285757
3.045,0.10834733138818531,85.84401473859923,0,90,1.0,2,0.17204154100204594
3.05,0.08636519236690572,86.47738375513784,0,90,1.0,2,0.18510069598222342
3.055,0.06760532616242629,87.04656798666497,0,90,1.0,2,0.1968364533332983
3.06,0.05196904332202373,87.53286735530213,0,90,1.0,2,0.2068632444392192
3.065,0.03923107185803287,87.92003875076709,0,90,1.0,2,0.21484615980963073
3.07,0.02908287038705761,88.1948762403954,0,90,1.0,2,0.22051291217310107
3.075,0.02117220077308346,88.34783554716185,0,90,1.0,2,0.22366671231261545
3.08,0.0151361834125735,88.37354028569607,0,90,1.0,2,0.22419670692156837
3.085,0.010626454858290009,88.27108106749418,0,90,1.0,2,0.22208414572152949
3.09,0.007326255555493652,88.04406438191086,0,90,1.0,2,0.21740338931774963
3.095,0.004960179211183015,87.70040053904515,0,90,1.0,2,0.21031753688752883
3.1,0.0032978759379303545,87.25184573884796,0,90,1.0,2,0.20106898430614353
3.105,0.002153242296767213,86.71333452777212,0,90,1.0,2,0.18996566036643545
3.11,0.001380616732225004,86.10215528685912,0,90,1.0,2,0.17736402653317765
3.115,0.0008693106590991584,85.43703209507676,0,90,1.0,2,0.16365014629024247
3.12,0.000537524815942247,84.73718067857484,0,90,1.0,2,0.14922022017680092
3.125,0.0003263951340288585,84.02140412721407,0,90,1.0,2,0.1344619407673004
3.13,0.00019463030985187395,83.30728624532938,0,90,1.0,2,0.11973786072844081
3.135,0.00011397219555062695,82.61052800894745,0,90,1.0,2,0.10537171152468978
3.14,6.55403863487943e-05,81.94445724555983,0,90,1.0,2,0.09163829372288314
3.145,3.701184389455385e-05,81.31972513974611,0,90,1.0,2,0.07875721937620848
3.15,2.0525516217290957e-05,80.74418725350604,0,90,1.0,2,0.06689045883517611
3.155,1.1178128483661116e-05,80.22295293316265,0,90,1.0,2,0.056143359446652476
3.16,5.978135409912517e-06,79.75857634759942,0,90,1.0,2,0.046568584486585886
3.165,3.1396702713238487e-06,79.35135557138227,0,90,1.0,2,0.038172279822314865
3.17,1.6192875458531019e-06,78.9997032039245,0,90,1.0,2,0.030921715544834992
3.175,8.201353897972012e-07,78.70055267993662,0,90,1.0,2,0.02475366350384785
3.18,4.0791415086824765e-07,78.44976802421002,0,90,1.0,2,0.01958284586000033
3.185,1.9923866938774793e-07,78.24253048240675,0,90,1.0,2,0.015309906853747415
3.19,9.556527981051257e-08,78.07368229950097,0,90,1.0,2,0.011828501020638621
3.195,4.501406988770349e-08,77.93801505095327,0,90,1.0,2,0.009031238163984913
3.2,0.0,77.8304966317818,0,90,1.0,2,0.006814363541892754
3.205,0.0,77.74643674394598,0,90,1.0,2,0.005081169978267584
3.21,0.0,77.68159517563214,0,90,1.0,2,0.0037442304254049416
3.215,0.0,77.63224022257143,0,90,1.0,2,0.0027266025272458896
3.22,0.0,77.59516631581924,0,90,1.0,2,0.0019621920787472524
3.225,0.0,77.56768046943643,0,90,1.0,2,0.0013954735966273202
3.23,0.0,77.54756679479637,0,90,1.0,2,0.0009807586555951992
3.235,0.0,77.53303732186714,0,90,1.0,2,0.0006811818941678587
3.24,0.0,77.52267598708985,0,90,1.0,2,0.00046754612556401535
3.245,0.0,77.51538112097494,0,90,1.0,2,0.0003171365149471419
3.25,0.0,77.51031027372,0,90,1.0,2,0.00021258296329886004
3.255,0.0,77.50682987606086,0,90,1.0,2,0.00014082218682191167
3.26,0.0,77.50447111531227,0,90,1.0,2,9.218794458289717e-05
3.265,0.0,77.50289253977044,0,90,1.0,2,5.963999526685941e-05
3.27,0.0,77.50184928236199,0,90,1.0,2,3.812953323686604e-05
3.275,0.0,77.50116838920664,0,90,1.0,2,2.4090499105981152e-05
3.28,0.0,77.50072951170684,0,90,1.0,2,1.5041478491477542e-05
3.285,0.0,77.50045012943687,0,90,1.0,2,9.281019316924508e-06
3.29,0.0,77.50027447512092,0,90,1.0,2,5.659280843666547e-06
3.295,0.0,77.50016539751311,0,90,1.0,2,3.4102580023678343e-06
3.3,0.0,77.50009849527245,0,90,1.0,2,2.03083035986901e-06
3.305,0.0,77.50005796451639,0,90,1.0,2,1.1951446677676826e-06
3.31,0.0,77.50003371083174,0,90,1.0,2,6.950686957497027e-07
3.315,0.0,77.50001937479605,0,90,1.0,2,3.9948033100493557e-07
3.32,0.0,77.50001100437119,0,90,1.0,2,2.2689425130939178e-07
3.325,0.001684486749771458,77.50000617666068,0,90,1.0,2,1.2735382837650157e-07
3.33,0.004172395771277602,77.50000342612084,0,90,1.0,2,7.064166682998944e-08
3.335,0.009438687428818865,77.5000018780711,0,90,1.0,2,3.872311552739345e-08
3.34,0.019500507867137046,77.50000101737673,0,90,1.0,2,2.097683983903181e-08
3.345,0.03679496976339974,77.50000054464309,0,90,1.0,2,1.1229754354363397e-08
3.35,0.06340728953298436,77.50000028813938,0,90,1.0,2,5.941018050939466e-09
3.355,0.09979255396093453,77.50000015064462,0,90,1.0,2,3.106074719306486e-09
3.36,0.14343835518453557,77.50000007783323,0,90,1.0,2,1.6048089684172924e-09
3.365,0.18829581417209276,77.50000003974084,0,90,1.0,2,8.193987619004887e-10
3.37,0.2257481735193119,77.50000002005254,0,90,1.0,2,4.134544161791654e-10
3.375,0.24718154073554727,77.50000000999913,0,90,1.0,2,2.061675641203861e-10
3.38,0.24718154074102772,77.50000000492737,0,90,1.0,2,1.0159530490651828e-10
3.385,0.22574817354072055,77.50000000239955,0,90,1.0,2,4.94751639428042e-11
3.39,0.18829581422840957,77.50000000115479,0,90,1.0,2,2.381006731983567e-11
3.395,0.14343835532456656,77.5000000005492,0,90,1.0,2,1.132385365316313e-11
3.4,0.09979255431561854,77.50000000025813,0,90,1.0,2,5.322184846328437e-12
3.405,0.06340729067170194,77.5000000001199,0,90,1.0,2,2.4721027058177174e-12
3.41,0.03679497683410042,77.50000000005502,0,90,1.0,2,1.1345243187064363e-12
3.415,0.019500578284482293,77.50000000002495,0,90,1.0,2,5.145208428844272e-13
3.42,0.009439396781978427,77.50000000001118,0,90,1.0,2,2.305967558941026e-13
3.425,0.004178588733610924,77.50000000000496,0,90,1.0,2,1.0225955248671133e-13
3.43,0.0017299316936037381,77.50000000000217,0,90,1.0,2,4.48301189984723e-14
3.435,0.0008997325756988589,77.50000000000094,0,90,1.0,2,1.9338482705223346e-14
3.44,0.001634769674224814,77.5000000000004,0,90,1.0,2,8.204204784034146e-15
3.445,0.00614904736476635,77.50000000000017,0,90,1.0,2,3.516087764586063e-15
3.45,0.02168080359963608,77.50000000000007,0,90,1.0,2,1.465036568577526e-15
3.455,0.06433400338904088,77.50000000000003,0,90,1.0,2,5.860146274310105e-16
3.46,0.1593410769217493,77.50000000000001,0,90,1.0,2,2.9300731371550523e-16
3.465,0.3291989194808569,77.5,0,90,1.0,2,0.0
3.47,0.5672906802982638,77.5,0,90,1.0,2,0.0
3.475,0.815339152120446,77.5,0,90,1.0,2,0.0
3.48,0.9768711246313155,77.5000028575978,1,90,1.0,2,5.8919542399643876e-08
3.485,0.9726380909165361,77.50000575945259,0,90,1.0,2,1.1875159982045045e-07
3.49,0.7921091683291741,77.50001247170877,0,90,1.0,2,2.571486344639141e-07
3.495,0.49139090102639077,77.5000302285082,0,90,1.0,2,6.232682101925974e-07
3.5,0.15739335672107918,77.50008277928515,0,90,1.0,2,1.7067893845565196e-06
3.505,-0.11102342218909485,77.50024711032393,0,90,1.0,2,5.095058225275896e-06
3.51,-0.2314207883647528,77.500761906128,0,90,1.0,2,1.570940470114036e-05
3.515,-0.2029124434754801,77.50232367895711,0,90,1.0,2,4.791090633219581e-05
3.52,-0.11151350554305876,77.50682980175638,0,90,1.0,2,0.00014082065477076134
3.525,-0.039430666652076896,77.5190818325946,0,90,1.0,2,0.00039343984731121776
3.53,-0.006087703519843621,77.55032658431828,0,90,1.0,2,0.0010376615323357632
3.535,0.005350271385530551,77.62486111399137,0,90,1.0,2,0.00257445595858499
3.54,0.010381647827441833,77.79089628192624,0,90,1.0,2,0.0059978614830151974
3.545,0.015115203303506243,78.13581030968653,0,90,1.0,2,0.013109490921371826
3.55,0.021170964062928475,78.80310418498046,0,90,1.0,2,0.02686812752537021
3.555,0.029082821134029553,80.0036503319219,0,90,1.0,2,0.05162165632828667
3.56,0.03923107061708144,82.00862464608667,0,90,1.0,2,0.09296133290900357
3.565,0.051969043308817596,85.1094351581589,0,90,1.0,2,0.15689557027131756
3.57,0.06760532616283861,89.53588442832962,0,90,1.0,2,0.24816256553256955
3.575,0.08636519236693461,95.34067984553826,0,90,1.0,2,0.36784906898017034
3.58,0.10834733138818661,102.2828802504138,0,90,1.0,2,0.5109872216580165
3.585,0.1334809643017884,109.76314796610146,0,90,1.0,2,0.6652195456928135
3.59,0.16148868344343945,116.8635603773981,0,90,1.0,2,0.8116198015958371
3.595,0.191860907532018,122.51408790040378,0,90,1.0,2,0.9281255237196656
3.6,0.22384764873847726,125.75350534267997,0,90,1.0,2,0.9949176359315458
3.605,0.25647215537198226,126.0,0,90,1.0,2,1.0
3.61,0.2885689161419028,123.22762570772198,0,90,1.0,2,0.9428376434581852
3.615,0.31884566517832524,117.97571147104895,0,90,1.0,3,0.8345507519803907
3.62,0.3459657668955683,111.18720976466966,0,90,1.0,3,0.6945816446323642
3.625,0.3686441789190902,103.94297749733238,0,90,1.0,3,0.5452160308728325
3.63,0.3857476379544367,97.19497900171685,0,90,1.0,3,0.4060820412725123
3.635,0.3963882865005728,91.58715852017986,0,90,1.0,3,0.2904568767047393
3.64,0.4,87.40231943688003,0,90,1.0,3,0.20417153478103164
3.645,0.39638828650057273,84.61776733767618,0,90,1.0,3,0.14675808943662236
3.65,0.38574763795443656,83.01870255620567,0,90,1.0,3,0.11378768157125088
3.655,0.36864417891908974,82.31532374904685,0,90,1.0,3,0.09928502575354338
3.66,0.345965766895568,82.22852513749818,0,90,1.0,3,0.0974953636597563
3.665,0.3188456651783249,82.53379724975913,0,90,1.0,3,0.10378963401565221
3.67,0.28856891614190205,83.07090796955741,0,90,1.0,3,0.11486408184654455
3.675,0.2564721553719815,83.73393365366984,0,90,1.0,3,0.12853471450865642
3.68,0.22384764873847685,84.45472567769907,0,90,1.0,3,0.1433964057257541
3.685,0.19186090753201765,85.18779931345597,0,90,1.0,3,0.15851132605063853
3.69,0.16148868344343878,85.89973780936282,0,90,1.0,3,0.1731904702961406
3.695,0.1334809643017881,86.56315147784285,0,90,1.0,3,0.18686910263593506
3.7,0.10834733138818531,87.15399280259183,0,90,1.0,3,0.1990513979915841
3.705,0.08636519236690572,87.65090403830237,0,90,1.0,3,0.20929699048046127
3.71,0.06760532616242629,88.03559075757407,0,90,1.0,3,0.21722867541389834
3.715,0.05196904332202373,88.2935803580661,0,90,1.0,3,0.22254804861991948
3.72,0.03923107185803287,88.41499512294472,0,90,1.0,3,0.22505144583391168
3.725,0.02908287038705761,88.3951361310454,0,90,1.0,3,0.2246419820834104
3.73,0.02117220077308346,88.23477150863336,0,90,1.0,3,0.22133549502336822
3.735,0.0151361834125735,87.94008324256698,0,90,1.0,3,0.2152594483003502
3.74,0.010626454858290009,87.52227066579813,0,90,1.0,3,0.20664475599583776
3.745,0.007326255555493652,86.99684394559772,0,90,1.0,3,0.19581121537314883
3.75,0.004960179211183015,86.38266910719653,0,90,1.0,3,0.18314781664322752
3.755,0.0032978759379303545,85.70084635302014,0,90,1.0,3,0.16908961552618845
3.76,0.002153242296767213,84.97351438020993,0,90,1.0,3,0.15409308000432853
3.765,0.001380616732225004,84.22267447021218,0,90,1.0,3,0.13861184474664295
3.77,0.0008693106590991584,83.46911983680923,0,90,1.0,3,0.12307463581049953
3.775,0.000537524815942247,82.73153966075022,0,90,1.0,3,0.10786679712887041
3.78,0.0003263951340288585,82.02584581584142,0,90,1.0,3,0.09331640857404992
3.785,0.00019463030985187395,81.36474634664565,0,90,1.0,3,0.07968549168341538
3.79,0.00011397219555062695,80.75756615651035,0,90,1.0,3,0.06716631250536804
3.795,6.55403863487943e-05,80.21029461204587,0,90,1.0,3,0.05588236313496642
3.8,3.701184389455385e-05,79.72582372581968,0,90,1.0,3,0.04589327269731299
3.805,2.0525516217290957e-05,79.30433029623575,0,90,1.0,3,0.037202686520324685
3.81,1.1178128483661116e-05,78.94375108500397,0,90,1.0,3,0.02976806360832922
3.815,5.978135409912517e-06,78.6403012861791,0,90,1.0,3,0.023511366725342178
3.82,3.1396702713238487e-06,78.38899212332203,0,90,1.0,3,0.01832973450148508
3.825,1.6192875458531019e-06,78.18411201851102,0,90,1.0,3,0.014105402443526096
3.83,8.201353897972012e-07,78.01964593661293,0,90,1.0,3,0.010714349208514058
3.835,4.0791415086824765e-07,77.88961786250023,0,90,1.0,3,0.008033357989695478
3.84,1.9923866938774793e-07,77.78835082046433,0,90,1.0,3,0.00594537774153259
3.845,9.556527981051257e-08,77.71064663791375,0,90,1.0,3,0.004343229647706275
3.85,4.501406988770349e-08,77.65189339194916,0,90,1.0,3,0.003131822514415644
3.855,0.0,77.60811208361164,0,90,1.0,3,0.002229115126013279
3.86,0.0,77.57595574061222,0,90,1.0,3,0.0015660977445817639
3.865,0.0,77.55267420338132,0,90,1.0,3,0.0010860660490992786
3.87,0.0,77.53605673168623,0,90,1.0,3,0.0007434377667263946
3.875,0.0,77.5243627185632,0,90,1.0,3,0.0005023240940865256
3.88,0.0,77.5162486074524,0,90,1.0,3,0.00033502283407003855
3.885,0.0,77.51069689058352,0,90,1.0,3,0.00022055444502097765
3.89,0.0,77.50695104289521,0,90,1.0,3,0.00014332047206618516
3.895,0.0,77.50445854743928,0,90,1.0,3,9.192881318112667e-05
3.9,0.0,77.50282285014478,0,90,1.0,3,5.820309576868745e-05
3.905,0.0,77.50176414087863,0,90,1.0,3,3.6374038734734734e-05
3.91,0.0,77.50108825259593,0,90,1.0,3,2.243819785432147e-05
3.915,0.0,77.50066263926765,0,90,1.0,3,1.3662665312272252e-05
3.92,0.0,77.5003982682018,0,90,1.0,3,8.21171550115913e-06
3.925,0.0,77.50023627899034,0,90,1.0,3,4.871731759648515e-06
3.93,0.0,77.50013836478986,0,90,1.0,3,2.8528822651972487e-06
3.935,0.0,77.50007997920402,0,90,1.0,3,1.6490557529262322e-06
3.94,0.0,77.50004563305828,0,90,1.0,3,9.408877995437504e-07
3.945,0.0,77.50002569999755,0,90,1.0,3,5.298968567120065e-07
3.95,0.001684486749771458,77.50001428688657,0,90,1.0,3,2.9457498078382865e-07
3.955,0.004172395771277602,77.50000783958583,0,90,1.0,3,1.6164094502753344e-07
3.96,0.009438687428818865,77.50000424619222,0,90,1.0,3,8.755035503444439e-08
3.965,0.019500507867137046,77.50000227016378,0,90,1.0,3,4.68075005376226e-08
3.97,0.03679496976339974,77.5000011980246,0,90,1.0,3,2.4701538262720017e-08
3.975,0.06340728953298436,77.50000062405849,0,90,1.0,3,1.2867185292053205e-08
3.98,0.09979255396093453,77.50000032087499,0,90,1.0,3,6.61597915055121e-09
3.985,0.14343835518453557,77.50000016285362,0,90,1.0,3,3.3578066787535154e-09
3.99,0.18829581417209276,77.50000008158494,0,90,1.0,3,1.682163778260127e-09
3.995,0.2257481735193119,77.50000004034351,0,90,1.0,3,8.318249090678495e-10
4.0,0.24718154073554727,77.50000001969192,0,90,1.0,3,4.060190625863207e-10
4.005,0.24718154074102772,77.50000000948755,0,90,1.0,3,1.956195938339416e-10
4.01,0.22574817354072055,77.50000000451202,0,90,1.0,3,9.303128714124149e-11
4.015,0.18829581422840957,77.50000000211806,0,90,1.0,3,4.367127507272748e-11
4.02,0.14343835532456656,77.50000000098143,0,90,1.0,3,2.0235671099820222e-11
4.025,0.09979255431561854,77.50000000044888,0,90,1.0,3,9.255222018331663e-12
4.03,0.06340729067170194,77.50000000020265,0,90,1.0,3,4.178284293583105e-12
4.035,0.03679497683410042,77.50000000009031,0,90,1.0,3,1.862061478662036e-12
4.04,0.019500578284482293,77.50000000003972,0,90,1.0,3,8.189554418348371e-13
4.045,0.009439396781978427,77.50000000001725,0,90,1.0,3,3.5571087885062335e-13
4.05,0.004178588733610924,77.50000000000739,0,90,1.0,3,1.523638031320627e-13
4.055,0.0017299316936037381,77.50000000000313,0,90,1.0,3,6.446160901741115e-14
4.06,0.0008997325756988589,77.50000000000131,0,90,1.0,3,2.695667286182648e-14
4.065,0.001634769674224814,77.50000000000054,0,90,1.0,3,1.1134277921189199e-14
4.07,0.00614904736476635,77.50000000000021,0,90,1.0,3,4.395109705732579e-15
4.075,0.02168080359963608,77.50000000000009,0,90,1.0,3,1.7580438822930315e-15
4.08,0.06433400338904088,77.50000000000003,0,90,1.0,3,5.860146274310105e-16
4.085,0.1593410769217493,77.50000000000001,0,90,1.0,3,2.9300731371550523e-16
4.09,0.3291989194808569,77.5,0,90,1.0,3,0.0
4.095,0.5672906802982638,77.5,0,90,1.0,3,0.0
4.1,0.815339152120446,77.5,0,90,1.0,3,0.0
4.105,0.9768711246313155,77.50000284586159,1,90,1.0,3,5.8677558500516847e-08
4.11,0.9726380909165361,77.50000570245213,0,90,1.0,3,1.1757633254176457e-07
4.115,0.7921091683291741,77.50001225806744,0,90,1.0,3,2.527436586159141e-07
4.12,0.49139090102639077,77.50002942758579,0,90,1.0,3,6.067543461202937e-07
4.125,0.15739335672107918,77.50007969525397,0,90,1.0,3,1.6432011128453615e-06
4.13,-0.11102342218909485,77.50023533387187,0,90,1.0,3,4.8522447808367e-06
4.135,-0.2314207883647528,77.50071883774795,0,90,1.0,3,1.4821396865024148e-05
4.14,-0.2029124434754801,77.50217579271153,0,90,1.0,3,4.4861705392288955e-05
4.145,-0.11151350554305876,77.50635725002037,0,90,1.0,3,0.00013107732000766818
4.15,-0.039430666652076896,77.51768141331813,0,90,1.0,3,0.0003645652230542177
4.155,-0.006087703519843621,77.54648137072928,0,90,1.0,3,0.0009583787779233389
4.16,0.005350271385530551,77.61508024410816,0,90,1.0,3,0.002372788538312508
4.165,0.010381647827441833,77.76784731218491,0,90,1.0,3,0.005522624993503347
4.17,0.015115203303506243,78.08549326951349,0,90,1.0,3,0.012072026175535917
4.175,0.021170964062928475,78.70138007120593,0,90,1.0,3,0.024770723117648087
4.18,0.029082821134029553,79.81333731768606,0,90,1.0,3,0.047697676653320885
4.185,0.03923107061708144,81.67953161509834,0,90,1.0,3,0.08617590958965651
4.19,0.051969043308817596,84.58445788628454,0,90,1.0,3,0.1460712966244235
4.195,0.06760532616283861,88.76559186610127,0,90,1.0,3,0.23228024466188196
4.2,0.08636519236693461,94.30580224572596,0,90,1.0,3,0.34651138650981356
4.205,0.10834733138818661,101.01908127568012,0,90,1.0,3,0.4849295108387654
4.21,0.1334809643017884,108.37758909741606,0,90,1.0,3,0.6366513215962075
4.215,0.16148868344343945,115.53155299925712,0,90,1.0,3,0.7841557319434457
4.22,0.191860907532018,121.44932005335616,0,90,1.0,3,0.9061715474918796
4.225,0.22384764873847726,125.15631195469562,0,90,1.0,3,0.9826043701999098
4.23,0.25647215537198226,126.0,0,90,1.0,3,1.0
4.235,0.2885689161419028,123.8427949295679,0,90,1.0,3,0.9555215449395443
4.24,0.31884566517832524,119.10508764276156,0,90,1.0,3,0.8578368586136405
4.245,0.3459657668955683,112.64051130847515,0,90,1.0,3,0.7245466249170135
4.25,0.3686441789190902,105.4947173494078,0,90,1.0,3,0.5772106669980989
4.255,0.3857476379544367,98.64157127935391,0,90,1.0,3,0.4359086861722456
4.26,0.3963882865005728,92.7872202864701,0,90,1.0,3,0.3152004182777341
4.265,0.4,88.29055850091387,0,90,1.0,3,0.222485742286884
4.27,0.39638828650057273,85.19499150634792,0,90,1.0,3,0.15865961868758593
4.275,0.38574763795443656,83.32841126591062,0,90,1.0,3,0.1201734281631055
4.28,0.36864417891908974,82.41862451624381,0,90,1.0,3,0.10141493847925381
4.285,0.345965766895568,82.1853521137011,0,90,1.0,3,0.09660519822064124
4.29,0.3188456651783249,82.39306572658664,0,90,1.0,3,0.10088795312549777
4.295,0.28856891614190205,82.86818610804693,0,90,1.0,3,0.11068424965045211
4.3,0.2564721553719815,83.49352503596295,0,90,1.0,3,0.12357783579305044
4.305,0.22384764873847685,84.19327652565775,0,90,1.0,3,0.13800570155995362
4.31,0.19186090753201765,84.91762339581283,0,90,1.0,3,0.1529406885734603
4.315,0.16148868344343878,85.63113017574868,0,90,1.0,3,0.16765216857213774
4.32,0.1334809643017881,86.30565243766684,0,90,1.0,3,0.18155984407560488
4.325,0.10834733138818531,86.91685513029627,0,90,1.0,3,0.19416196144940762
4.33,0.08636519236690572,87.44305757969148,0,90,1.0,3,0.2050114964884842
4.335,0.06760532616242629,87.86533772288807,0,90,1.0,3,0.2137183035647025
4.34,0.05196904332202373,88.16817973634383,0,90,1.0,3,0.21996246879059445
4.345,0.03923107185803287,88.3402384667518,0,90,1.0,3,0.22351007147941854
4.35,0.02908287038705761,88.37498162664085,0,90,1.0,3,0.22422642529156384
4.355,0.02117220077308346,88.27108106749418,0,90,1.0,3,0.22208414572152949
4.36,0.0151361834125735,88.03249098378444,0,90,1.0,3,0.21716476255225653
4.365,0.010626454858290009,87.66819648788929,0,90,1.0,3,0.20965353583276886
4.37,0.007326255555493652,87.19165162443677,0,90,1.0,3,0.1998278685450881
4.375,0.004960179211183015,86.61995488836745,0,90,1.0,3,0.18804030697664836
4.38,0.0032978759379303545,85.97283240911523,0,90,1.0,3,0.1746975754456748
4.385,0.002153242296767213,85.27151291372265,0,90,1.0,3,0.16023737966438445
4.39,0.001380616732225004,84.53758349445417,0,90,1.0,3,0.14510481431864264
4.395,0.0008693106590991584,83.79191110989592,0,90,1.0,3,0.1297301259772355
4.4,0.000537524815942247,83.05370269529314,0,90,1.0,3,0.11450933392356989
4.405,0.0003263951340288585,82.33975866855332,0,90,1.0,3,0.09978883852687248
4.41,0.00019463030985187395,81.66395297564524,0,90,1.0,3,0.08585470052876794
4.415,0.00011397219555062695,81.03695029627794,0,90,1.0,3,0.07292681023253478
4.42,6.55403863487943e-05,80.46615012462807,0,90,1.0,3,0.06115773452841386
4.425,3.701184389455385e-05,79.95583016691808,0,90,1.0,3,0.05063567354470261
4.43,2.0525516217290957e-05,79.50744919237871,0,90,1.0,3,0.04139070499749928
4.435,1.1178128483661116e-05,79.12006270877623,0,90,1.0,3,0.03340335482012848
4.44,5.978135409912517e-06,78.7908034547283,0,90,1.0,3,0.02661450422120217
4.445,3.1396702713238487e-06,78.51538196065025,0,90,1.0,3,0.020935710528871037
4.45,1.6192875458531019e-06,78.28856917829346,0,90,1.0,3,0.016259158315329016
4.455,8.201353897972012e-07,78.1046320774523,0,90,1.0,3,0.012466640772212247
4.46,4.0791415086824765e-07,77.95770283268605,0,90,1.0,3,0.009437171807959853
4.465,1.9923866938774793e-07,77.8420716221398,0,90,1.0,3,0.007053023136903054
4.47,9.556527981051257e-08,77.75240126350023,0,90,1.0,3,0.005204149762891385
4.475,4.501406988770349e-08,77.68386837283725,0,90,1.0,3,0.0037911004708711957
4.48,0.0,77.63224022257143,0,90,1.0,3,0.0027266025272458896
4.485,0.0,77.593899037566,0,90,1.0,3,0.0019360626302268875
4.49,0.0,77.56582634489853,0,90,1.0,3,0.0013572442247118605
4.495,0.0,77.54555954431204,0,90,1.0,3,0.0009393720476709601
4.5,0.0,77.53113149901236,0,90,1.0,3,0.0006418865775744446
4.505,0.0,77.5210020517766,0,90,1.0,3,0.00043303199539392604
4.51,0.0,77.51398828420264,0,90,1.0,3,0.0002884182309822584
4.515,0.0,77.50919831335803,0,90,1.0,3,0.00018965594552633241
4.52,0.0,77.50597163128171,0,90,1.0,3,0.0001231264181795915
4.525,0.0,77.50382753172264,0,90,1.0,3,7.891817984814552e-05
4.53,0.0,77.50242206416318,0,90,1.0,3,4.9939467282149394e-05
4.535,0.0,77.50151319019876,0,90,1.0,3,3.119979791266787e-05
4.54,0.0,77.5009333454743,0,90,1.0,3,1.9244236583388782e-05
4.545,0.0,77.50056837159171,0,90,1.0,3,1.171900189095928e-05
4.55,0.0,77.50034171443933,0,90,1.0,3,7.045658542878787e-06
4.555,0.0,77.50020283146561,0,90,1.0,3,4.182092074523604e-06
4.56,0.0,77.50011886345717,0,90,1.0,3,2.450792931437352e-06
4.565,0.0,77.50006877053725,0,90,1.0,3,1.4179492217356982e-06
4.57,0.0,77.50003928235421,0,90,1.0,3,8.099454475996026e-07
4.575,0.0,77.50002215305511,0,90,1.0,3,4.567640229483398e-07
4.58,0.001684486749771458,77.50001233419412,0,90,1.0,3,2.5431328092204194e-07
4.585,0.004172395771277602,77.50000677998857,0,90,1.0,3,1.39793578701409e-07
4.59,0.009438687428818865,77.50000367949464,0,90,1.0,3,7.586586885858215e-08
4.595,0.019500507867137046,77.50000197146203,0,90,1.0,3,4.064870157768363e-08
4.6,0.03679496976339974,77.50000104286885,0,90,1.0,3,2.150245042272574e-08
4.605,0.06340728953298436,77.50000054464309,0,90,1.0,3,1.1229754354363397e-08
4.61,0.09979255396093453,77.50000028082472,0,90,1.0,3,5.7902004474018806e-09
4.615,0.14343835518453557,77.50000014295512,0,90,1.0,3,2.9475281688477126e-09
4.62,0.18829581417209276,77.50000007184642,0,90,1.0,3,1.481369382258656e-09
4.625,0.2257481735193119,77.50000003564934,0,90,1.0,3,7.350378541794027e-10
4.63,0.24718154073554727,77.5000000174638,0,90,1.0,3,3.6007844586886665e-10
4.635,0.24718154074102772,77.50000000844632,0,90,1.0,3,1.7415094795800654e-10
4.64,0.22574817354072055,77.50000000403308,0,90,1.0,3,8.315635465440153e-11
4.645,0.18829581422840957,77.50000000190128,0,90,1.0,3,3.920174150931116e-11
4.65,0.14343835532456656,77.50000000088491,0,90,1.0,3,1.824556542506451e-11
4.655,0.09979255431561854,77.50000000040662,0,90,1.0,3,8.383818267341751e-12
4.66,0.06340729067170194,77.50000000018447,0,90,1.0,3,3.803527939340973e-12
4.665,0.03679497683410042,77.50000000008262,0,90,1.0,3,1.7035445219419474e-12
4.67,0.019500578284482293,77.50000000003654,0,90,1.0,3,7.53321803562564e-13
4.675,0.009439396781978427,77.50000000001594,0,90,1.0,3,3.2875420598879686e-13
4.68,0.004178588733610924,77.50000000000688,0,90,1.0,3,1.4181553983830453e-13
4.685,0.0017299316936037381,77.50000000000293,0,90,1.0,3,6.035950662539408e-14
4.69,0.0008997325756988589,77.50000000000122,0,90,1.0,3,2.519862897953345e-14
4.695,0.001634769674224814,77.50000000000051,0,90,1.0,3,1.0548263293758189e-14
4.7,0.00614904736476635,77.50000000000021,0,90,1.0,3,4.395109705732579e-15
4.705,0.02168080359963608,77.50000000000009,0,90,1.0,3,1.7580438822930315e-15
4.71,0.06433400338904088,77.50000000000003,0,90,1.0,3,5.860146274310105e-16
4.715,0.1593410769217493,77.50000000000001,0,90,1.0,3,2.9300731371550523e-16
4.72,0.3291989194808569,77.5,0,90,1.0,3,0.0
4.725,0.5672906802982638,77.5,0,90,1.0,3,0.0
4.73,0.815339152120446,77.5,0,90,1.0,3,0.0
4.735,0.9768711246313155,77.5000028564677,1,90,1.0,3,5.889624128602796e-08
4.74,0.9726380909165361,77.50000545335169,0,90,1.0,3,1.1244024103548654e-07
4.745,0.7921091683291741,77.50001103870419,0,90,1.0,3,2.2760214818910904e-07
4.75,0.49139090102639077,77.50002451145392,0,90,1.0,3,5.053908023807342e-07
4.755,0.15739335672107918,77.50006056508865,0,90,1.0,3,1.2487647143423357e-06
4.76,-0.11102342218909485,77.500163159277,0,90,1.0,3,3.364108803999002e-06
4.765,-0.2314207883647528,77.50045963921588,0,90,1.0,3,9.477097234556608e-06
4.77,-0.2029124434754801,77.50130157200853,0,90,1.0,3,2.6836536258334144e-05
4.775,-0.11151350554305876,77.50360621062502,0,90,1.0,3,7.435485824789184e-05
4.78,-0.039430666652076896,77.50962435840236,0,90,1.0,3,0.0001984403794301553
4.785,-0.006087703519843621,77.5245336611205,0,90,1.0,3,0.0005058486828969172
4.79,0.005350271385530551,77.55946841825335,0,90,1.0,3,0.0012261529536772287
4.795,0.010381647827441833,77.63674715233715,0,90,1.0,3,0.002819528914168054
4.8,0.015115203303506243,77.79792448353166,0,90,1.0,3,0.006142772856322871
4.805,0.021170964062928475,78.11453494517251,0,90,1.0,3,0.012670823611804292
4.81,0.029082821134029553,78.69968859351175,0,90,1.0,3,0.0247358472889021
4.815,0.03923107061708144,79.71601941372563,0,90,1.0,3,0.04569112193248727
4.82,0.051969043308817596,81.3726112396058,0,90,1.0,4,0.07984765442486191
4.825,0.06760532616283861,83.90214348528451,0,90,1.0,4,0.13200295845947446
4.83,0.08636519236693461,87.51194056320449,0,90,1.0,4,0.2064317641897833
4.835,0.10834733138818661,92.31057839827544,0,90,1.0,4,0.305372750479906
4.84,0.1334809643017884,98.22445209684186,0,90,1.0,4,0.42730829065653314
4.845,0.16148868344343945,104.93176617201091,0,90,1.0,4,0.5656034262270291
4.85,0.191860907532018,111.84734002058431,0,90,1.0,4,0.7081925777440065
4.855,0.22384764873847726,118.18353745375319,0,90,1.0,4,0.8388358237887256
4.86,0.25647215537198226,123.08912705128517,0,90,1.0,4,0.9399820010574262
4.865,0.2885689161419028,125.83623498218132,0,90,1.0,4,0.9966234016944603
4.87,0.31884566517832524,126.0,0,90,1.0,4,1.0
4.875,0.3459657668955683,123.57027949337669,0,90,1.0,4,0.9499026699665296
4.88,0.3686441789190902,118.95531468006659,0,90,1.0,4,0.8547487562900329
4.885,0.3857476379544367,112.8759914170416,0,90,1.0,4,0.7294018848874557
4.89,0.3963882865005728,106.18868862199935,0,90,1.0,4,0.5915193530309144
4.895,0.4,99.69679952472116,0,90,1.0,4,0.45766596958187955
4.9,0.39638828650057273,94.00737257354771,0,90,1.0,4,0.3403581973927363
4.905,0.38574763795443656,89.46469600444867,0,90,1.0,4,0.24669476297832307
4.91,0.36864417891908974,86.1609302263463,0,90,1.0,4,0.1785758809555937
4.915,0.345965766895568,83.99956239812894,0,90,1.0,4,0.1340115958377102
4.92,0.3188456651783249,82.77835198542279,0,90,1.0,4,0.10883199969943892
4.925,0.28856891614190205,82.26364992927617,0,90,1.0,4,0.09821958617064268
4.93,0.2564721553719815,82.24082003149722,0,90,1.0,4,0.0977488666288087
4.935,0.22384764873847685,82.53843885242503,0,90,1.0,4,0.1038853371634027
4.94,0.19186090753201765,83.03228371198631,0,90,1.0,4,0.11406770540177957
4.945,0.16148868344343878,83.63787548612598,0,90,1.0,4,0.12655413373455623
4.95,0.1334809643017881,84.29912711951967,0,90,1.0,4,0.14018818803133334
4.955,0.10834733138818531,84.97779720332112,0,90,1.0,4,0.15418138563548694
4.96,0.08636519236690572,85.64573159835365,0,90,1.0,4,0.167953228832034
4.965,0.06760532616242629,86.28008889382897,0,90,1.0,4,0.18103276069750462
4.97,0.05196904332202373,86.86092112745918,0,90,1.0,4,0.19300868304039542
4.975,0.03923107185803287,87.37030590214425,0,90,1.0,4,0.2035114618998815
4.98,0.02908287038705761,87.79235702367464,0,90,1.0,4,0.2122135468798895
4.985,0.02117220077308346,88.11364773149214,0,90,1.0,4,0.2188380975565389
4.99,0.0151361834125735,88.32375687702194,0,90,1.0,4,0.22317024488705023
4.995,0.010626454858290009,88.41576824699521,0,90,1.0,4,0.2250673865359838
5.0,0.007326255555493652,88.38662664092895,0,90,1.0,4,0.22446652867894748
5.005,0.004960179211183015,88.2372990391203,0,90,1.0,4,0.22138760905402685
5.01,0.0032978759379303545,87.97271905935307,0,90,1.0,4,0.21593235173923853
5.015,0.002153242296767213,87.60151563015489,0,90,1.0,4,0.20827867278669882
5.02,0.001380616732225004,87.1355455413843,0,90,1.0,4,0.19867104209039801
5.025,0.0008693106590991584,86.58926483861305,0,90,1.0,4,0.18740752244562983
5.03,0.000537524815942247,85.97898542150867,0,90,1.0,4,0.17482444168059108
5.035,0.0003263951340288585,85.32207004119032,0,90,1.0,4,0.16127979466371783
5.04,0.00019463030985187395,84.63612080609002,0,90,1.0,4,0.1471365114657736
5.045,0.00011397219555062695,83.93821340240603,0,90,1.0,4,0.1327466680908461
5.05,6.55403863487943e-05,83.24422209684201,0,90,1.0,4,0.11843756900705173
5.055,3.701184389455385e-05,82.5682702000534,0,90,1.0,4,0.10450041649594649
5.06,2.0525516217290957e-05,81.92232827693294,0,90,1.0,4,0.09118202632851431
5.065,1.1178128483661116e-05,81.31596934262296,0,90,1.0,4,0.0786797802602673
5.07,5.978135409912517e-06,80.7562778662365,0,90,1.0,4,0.06713974981930931
5.075,3.1396702713238487e-06,80.24789870051464,0,90,1.0,4,0.056657705165250295
5.08,1.6192875458531019e-06,79.79320384552783,0,90,1.0,4,0.047282553516037676
5.085,8.201353897972012e-07,79.39254966509434,0,90,1.0,4,0.03902164257926466
5.09,4.0791415086824765e-07,79.04459487797472,0,90,1.0,4,0.03184731707164365
5.095,1.9923866938774793e-07,78.74665010120292,0,90,1.0,4,0.025704125797998287
5.1,9.556527981051257e-08,78.4950324497986,0,90,1.0,4,0.02051613298553815
5.105,4.501406988770349e-08,78.28540306685832,0,90,1.0,4,0.0161938776671819
5.11,0.0,78.11307078741693,0,90,1.0,4,0.012640634792101656
5.115,0.0,77.97325077488534,0,90,1.0,4,0.00975774793578028
5.12,0.0,77.86127235160261,0,90,1.0,4,0.007448914466033154
5.125,0.0,77.7727349529587,0,90,1.0,4,0.005623401091931963
5.13,0.0,77.70361489944557,0,90,1.0,4,0.004198245349393168
5.135,0.0,77.65032838439267,0,90,1.0,4,0.0030995543173745416
5.14,0.0,77.60975772765077,0,90,1.0,4,0.002263045930943784
5.145,0.0,77.57924865595666,0,90,1.0,4,0.0016339929063229112
5.15,0.0,77.55658631135569,0,90,1.0,4,0.001166728069189428
5.155,0.0,77.53995706181816,0,90,1.0,4,0.0008238569447042692
5.16,0.0,77.5279021961484,0,90,1.0,4,0.000575303013369142
5.165,0.0,77.5192684114055,0,90,1.0,4,0.00039728683310320627
5.17,0.0,77.51315879480705,0,90,1.0,4,0.000271315356846487
5.175,0.0,77.50888687354049,0,90,1.0,4,0.00018323450598948688
5.18,0.0,77.50593532585206,0,90,1.0,4,0.0001223778526198859
5.185,0.0,77.50392015117043,0,90,1.0,4,8.082785918419439e-05
5.19,0.0,77.5025604938901,0,90,1.0,4,5.279368845569395e-05
5.195,0.0,77.50165389279071,0,90,1.0,4,3.4100882282752264e-05
5.2,0.0,77.5010564614286,0,90,1.0,4,2.1782709868122447e-05
5.205,0.0,77.5006673637583,0,90,1.0,4,1.3760077490646321e-05
5.21,0.0,77.50041690228181,0,90,1.0,4,8.595923336355385e-06
5.215,0.0,77.50025755418267,0,90,1.0,4,5.310395518912647e-06
5.22,0.0,77.50015734959284,0,90,1.0,4,3.2443215018505274e-06
5.225,0.0,77.5000950660219,0,90,1.0,4,1.9601241628662914e-06
5.23,0.0,77.5000567999168,0,90,1.0,4,1.1711323052683848e-06
5.235,0.0,77.50003356083515,0,90,1.0,4,6.91975982456909e-07
5.24,0.0,77.50001961013126,0,90,1.0,4,4.0433260332084156e-07
5.245,0.0,77.50001133159184,0,90,1.0,4,2.3364106877378027e-07
5.25,0.0,77.50000647536162,0,90,1.0,4,1.3351261063502365e-07
5.255,0.001684486749771458,77.50000365931513,0,90,1.0,4,7.544979642205494e-08
5.26,0.004172395771277602,77.50000204502338,0,90,1.0,4,4.216543049654685e-08
5.265,0.009438687428818865,77.50000113021072,0,90,1.0,4,2.3303313807830526e-08
5.27,0.019500507867137046,77.50000061770804,0,90,1.0,4,1.2736248234751216e-08
5.275,0.03679496976339974,77.50000033386414,0,90,1.0,4,6.8837966255065934e-09
5.28,0.06340728953298436,77.50000017845099,0,90,1.0,4,3.6794018370463013e-09
5.285,0.09979255396093453,77.50000009432587,0,90,1.0,4,1.9448632944668417e-09
5.29,0.14343835518453557,77.50000004930664,0,90,1.0,4,1.0166316540037479e-09
5.295,0.18829581417209276,77.5000000254884,0,90,1.0,4,5.255341087850519e-10
5.3,0.2257481735193119,77.50000001302995,0,90,1.0,4,2.686586989530605e-10
5.305,0.24718154073554727,77.50000000658727,0,90,1.0,4,1.3582002418505787e-10
5.31,0.24718154074102772,77.5000000032933,0,90,1.0,4,6.790297991699976e-11
5.315,0.22574817354072055,77.50000000162824,0,90,1.0,4,3.3571898983581445e-11
5.32,0.18829581422840957,77.5000000007961,0,90,1.0,4,1.6414562721656317e-11
5.325,0.14343835532456656,77.50000000038493,0,90,1.0,4,7.936689106611891e-12
5.33,0.09979255431561854,77.50000000018406,0,90,1.0,4,3.795030727243224e-12
5.335,0.06340729067170194,77.50000000008704,0,90,1.0,4,1.7946697965074695e-12
5.34,0.03679497683410042,77.5000000000407,0,90,1.0,4,8.39172946481207e-13
5.345,0.019500578284482293,77.50000000001882,0,90,1.0,4,3.879416833593289e-13
5.35,0.009439396781978427,77.50000000000861,0,90,1.0,4,1.7756243211159617e-13
5.355,0.004178588733610924,77.5000000000039,0,90,1.0,4,8.028400395804844e-14
5.36,0.0017299316936037381,77.50000000000173,0,90,1.0,4,3.574689227329164e-14
5.365,0.0008997325756988589,77.50000000000077,0,90,1.0,4,1.5822394940637283e-14
5.37,0.001634769674224814,77.50000000000034,0,90,1.0,4,7.032175529172126e-15
5.375,0.00614904736476635,77.50000000000014,0,90,1.0,4,2.930073137155052e-15
5.38,0.02168080359963608,77.50000000000006,0,90,1.0,4,1.172029254862021e-15
5.385,0.06433400338904088,77.50000000000003,0,90,1.0,4,5.860146274310105e-16
5.39,0.1593410769217493,77.50000000000001,0,90,1.0,4,2.9300731371550523e-16
5.395,0.3291989194808569,77.5,0,90,1.0,4,0.0
5.4,0.5672906802982638,77.5,0,90,1.0,4,0.0
5.405,0.815339152120446,77.5,0,90,1.0,4,0.0
5.41,0.9768711246313155,77.50000284359693,1,90,1.0,4,5.8630864561995826e-08
5.415,0.9726380909165361,77.50000548419933,0,90,1.0,4,1.1307627494144193e-07
5.42,0.7921091683291741,77.50001124088986,0,90,1.0,4,2.317709249813767e-07
5.425,0.49139090102639077,77.50002536697961,0,90,1.0,4,5.230305075000024e-07
5.43,0.15739335672107918,77.50006389056809,0,90,1.0,4,1.3173313007395262e-06
5.435,-0.11102342218909485,77.50017550461766,0,90,1.0,4,3.6186519104816886e-06
5.44,-0.2314207883647528,77.50050312573545,0,90,1.0,4,1.037372650410024e-05
5.445,-0.2029124434754801,77.50144560488555,0,90,1.0,4,2.9806286299926985e-05
5.45,-0.11151350554305876,77.50405253381912,0,90,1.0,4,8.355739833237495e-05
5.455,-0.039430666652076896,77.51091584732082,0,90,1.0,4,0.0002250690169240588
5.46,-0.006087703519843621,77.52802210333864,0,90,1.0,4,0.0005777753265699489
5.465,0.005350271385530551,77.56826624200473,0,90,1.0,4,0.0014075513815407234
5.47,0.010381647827441833,77.65747108052543,0,90,1.0,4,0.003246826402586094
5.475,0.015115203303506243,77.84353029025743,0,90,1.0,4,0.007083098768194506
5.48,0.021170964062928475,78.208294728616,0,90,1.0,4,0.014604015023010236
5.485,0.029082821134029553,78.87971080766134,0,90,1.0,4,0.02844764551879051
5.49,0.03923107061708144,80.03860769687986,0,90,1.0,4,0.052342426739791025
5.495,0.051969043308817596,81.9114678020172,0,90,1.0,4,0.0909580990106639
5.5,0.06760532616283861,84.73967911802492,0,90,1.0,4,0.14927173439226646
5.505,0.08636519236693461,88.71983424376735,0,90,1.0,4,0.23133678853128561
5.51,0.10834733138818661,93.92009701837561,0,90,1.0,4,0.3385587014098065
5.515,0.1334809643017884,100.19265177353559,0,90,1.0,4,0.46788972728939354
5.52,0.16148868344343945,107.11553201194583,0,90,1.0,4,0.6106295260195017
5.525,0.191860907532018,113.99980843728613,0,90,1.0,4,0.7525733698409512
5.53,0.22384764873847726,119.98355460807562,0,90,1.0,4,0.8759495795479509
5.535,0.25647215537198226,124.2034706308707,0,90,1.0,4,0.9629581573375402
5.54,0.2885689161419028,126.0,0,90,1.0,4,1.0
5.545,0.31884566517832524,125.0896730388076,0,90,1.0,4,0.9812303719341774
5.55,0.3459657668955683,121.64309031720336,0,90,1.0,4,0.9101668106639867
5.555,0.3686441789190902,116.23941024525399,0,90,1.0,4,0.7987507267062679
5.56,0.3857476379544367,109.71438740562652,0,90,1.0,4,0.6642141733118871
5.565,0.3963882865005728,102.95711288915504,0,90,1.0,4,0.5248889255495884
5.57,0.4,96.72341910788755,0,90,1.0,4,0.39635915686366086
5.575,0.39638828650057273,91.51813811820595,0,90,1.0,4,0.28903377563311244
5.58,0.38574763795443656,87.5651096594767,0,90,1.0,4,0.2075280342160145
5.585,0.36864417891908974,84.85055753012354,0,90,1.0,4,0.15155788721904204
5.59,0.345965766895568,83.20599367449054,0,90,1.0,4,0.11764935411320707
5.595,0.3188456651783249,82.39522658019695,0,90,1.0,4,0.10093250680818448
5.6,0.28856891614190205,82.18134970860318,0,90,1.0,4,0.09652267440418925
5.605,0.2564721553719815,82.36490781207327,0,90,1.0,4,0.10030737756852103
5.61,0.22384764873847685,82.79649701173709,0,90,1.0,4,0.10920612395334202
5.615,0.19186090753201765,83.37281201706614,0,90,1.0,4,0.12108890756837398
5.62,0.16148868344343878,84.02539184144003,0,90,1.0,4,0.1345441616791758
5.625,0.1334809643017881,84.70859251846929,0,90,1.0,4,0.14863077357668636
5.63,0.10834733138818531,85.39005201648826,0,90,1.0,4,0.1626814848760465
5.635,0.08636519236690572,86.044472758779,0,90,1.0,4,0.17617469605729885
5.64,0.06760532616242629,86.65025529584166,0,90,1.0,4,0.1886650576462198
5.645,0.05196904332202373,87.18810890053072,0,90,1.0,4,0.19975482269135508
5.65,0.03923107185803287,87.64083038423249,0,90,1.0,4,0.2090892862728348
5.655,0.02908287038705761,87.99366494888493,0,90,1.0,4,0.21636422575020467
5.66,0.02117220077308346,88.23487689607546,0,90,1.0,4,0.2213376679603188
5.665,0.0151361834125735,88.35631072246048,0,90,1.0,4,0.2238414581950614
5.67,0.010626454858290009,88.35381801207184,0,90,1.0,4,0.22379006210457403
5.675,0.007326255555493652,88.22748246937488,0,90,1.0,4,0.22118520555412116
5.68,0.004960179211183015,87.98161207029037,0,90,1.0,4,0.21611571278949213
5.685,0.0032978759379303545,87.62449423525337,0,90,1.0,4,0.20875245845883228
5.69,0.002153242296767213,87.1679318019965,0,90,1.0,4,0.199338800041165
5.695,0.001380616732225004,86.62659553682514,0,90,1.0,4,0.18817722756340485
5.7,0.0008693106590991584,86.01724256371354,0,90,1.0,4,0.1756132487363616
5.705,0.000537524815942247,85.35785865287932,0,90,1.0,4,0.16201770418307868
5.71,0.0003263951340288585,84.66678530372789,0,90,1.0,4,0.1477687691490287
5.715,0.00019463030985187395,83.96189001381458,0,90,1.0,4,0.1332348456456615
5.72,0.00011397219555062695,83.25983064690726,0,90,1.0,4,0.11875939478159302
5.725,6.55403863487943e-05,82.57545348721757,0,90,1.0,4,0.10464852550964067
5.73,3.701184389455385e-05,81.92135081114074,0,90,1.0,4,0.09116187239465445
5.735,2.0525516217290957e-05,81.30758917718623,0,90,1.0,4,0.07850699334404598
5.74,1.1178128483661116e-05,80.74160562584288,0,90,1.0,4,0.06683722939882226
5.745,5.978135409912517e-06,80.22825686325584,0,90,1.0,4,0.05625271883001725
5.75,3.1396702713238487e-06,79.76999719568829,0,90,1.0,4,0.046804065890480216
5.755,1.6192875458531019e-06,79.36715499256925,0,90,1.0,4,0.03849804108390215
5.76,8.201353897972012e-07,79.01827487455601,0,90,1.0,4,0.03130463658878378
5.765,4.0791415086824765e-07,78.72049337182925,0,90,1.0,4,0.0251648117902938
5.77,1.9923866938774793e-07,78.46991891897598,0,90,1.0,4,0.01999832822630882
5.775,9.556527981051257e-08,78.26199201676988,0,90,1.0,4,0.015711175603502697
5.78,4.501406988770349e-08,78.09180740822781,0,90,1.0,4,0.01220221460263522
5.785,0.0,77.95438643595452,0,90,1.0,4,0.009368792493907593
5.79,0.0,77.8448937347729,0,90,1.0,4,0.007111211026245273
5.795,0.0,77.75879759554243,0,90,1.0,4,0.005336032897782116
5.8,0.0,77.69197742146481,0,90,1.0,4,0.003958297349789957
5.805,0.0,77.640784569316,0,90,1.0,4,0.0029027746250721038
5.81,0.0,77.60206455450907,0,90,1.0,4,0.0021044238043107246
5.815,0.0,77.5731492398329,0,90,1.0,4,0.0015082317491319794
5.82,0.0,77.55182743021956,0,90,1.0,4,0.0010686068086507364
5.825,0.0,77.53630149568863,0,90,1.0,4,0.0007484844471883127
5.83,0.0,77.52513647346169,0,90,1.0,4,0.0005182778033337254
5.835,0.0,77.51720676241366,0,90,1.0,4,0.0003547786064673088
5.84,0.0,77.511644181374,0,90,1.0,4,0.00024008621389681167
5.845,0.0,77.50778993342809,0,90,1.0,4,0.00016061718408424248
5.85,0.0,77.50515197226336,0,90,1.0,4,0.00010622623223428528
5.855,0.0,77.50336843577756,0,90,1.0,4,6.945228407339903e-05
5.86,0.0,77.50217719842811,0,90,1.0,4,4.489068923947381e-05
5.865,0.0,77.50139117811788,0,90,1.0,4,2.868408490484136e-05
5.87,0.0,77.50087878462313,0,90,1.0,4,1.8119270579912145e-05
5.875,0.0,77.50054877857231,0,90,1.0,4,1.1315022109465176e-05
5.88,0.0,77.50033878707026,0,90,1.0,4,6.985300417782878e-06
5.885,0.0,77.50020676236647,0,90,1.0,4,4.263141576790151e-06
5.89,0.0,77.50012474729766,0,90,1.0,4,2.5721092301349007e-06
5.895,0.0,77.50007440562757,0,90,1.0,4,1.5341366509712372e-06
5.9,0.0,77.5000438728055,0,90,1.0,4,9.045939279563829e-07
5.905,0.0,77.50002557407974,0,90,1.0,4,5.273006132535284e-07
5.91,0.0,77.50001473735715,0,90,1.0,4,3.038630339786548e-07
5.915,0.0,77.50000839564733,0,90,1.0,4,1.7310613046545994e-07
5.92,0.001684486749771458,77.50000472828614,0,90,1.0,4,9.74904359394451e-08
5.925,0.004172395771277602,77.50000263249952,0,90,1.0,4,5.4278340539238665e-08
5.93,0.009438687428818865,77.50000144893144,0,90,1.0,4,2.987487510067366e-08
5.935,0.019500507867137046,77.50000078839227,0,90,1.0,4,1.6255510733581387e-08
5.94,0.03679496976339974,77.50000042408398,0,90,1.0,4,8.743999558777732e-09
5.945,0.06340728953298436,77.50000022551548,0,90,1.0,4,4.649803676113958e-09
5.95,0.09979255396093453,77.5000001185539,0,90,1.0,4,2.4444102915911515e-09
5.955,0.14343835518453557,77.50000006161271,0,90,1.0,4,1.270365146410768e-09
5.96,0.18829581417209276,77.5000000316548,0,90,1.0,4,6.526764283671113e-10
5.965,0.2257481735193119,77.5000000160777,0,90,1.0,4,3.3149909850368374e-10
5.97,0.24718154073554727,77.50000000807279,0,90,1.0,4,1.664492507169945e-10
5.975,0.24718154074102772,77.50000000400718,0,90,1.0,4,8.262220232149817e-11
5.98,0.22574817354072055,77.50000000196638,0,90,1.0,4,4.054400801344189e-11
5.985,0.18829581422840957,77.50000000095392,0,90,1.0,4,1.9668408940467004e-11
5.99,0.14343835532456656,77.50000000045748,0,90,1.0,4,9.432491443129545e-12
5.995,0.09979255431561854,77.50000000021689,0,90,1.0,4,4.471877621926041e-12
6.0,0.06340729067170194,77.50000000010165,0,90,1.0,4,2.095881315007009e-12
6.005,0.03679497683410042,77.5000000000471,0,90,1.0,4,9.710262376531843e-13
6.01,0.019500578284482293,77.50000000002157,0,90,1.0,4,4.4478510222013693e-13
6.015,0.009439396781978427,77.50000000000976,0,90,1.0,4,2.0129602452255209e-13
6.02,0.004178588733610924,77.50000000000438,0,90,1.0,4,9.02462526243756e-14
6.025,0.0017299316936037381,77.50000000000193,0,90,1.0,5,3.984899466530871e-14
6.03,0.0008997325756988589,77.50000000000085,0,90,1.0,5,1.7580438822930315e-14
6.035,0.001634769674224814,77.50000000000037,0,90,1.0,5,7.618190156603136e-15
6.04,0.00614904736476635,77.50000000000016,0,90,1.0,5,3.2230804508705575e-15
6.045,0.02168080359963608,77.50000000000007,0,90,1.0,5,1.465036568577526e-15
6.05,0.06433400338904088,77.50000000000003,0,90,1.0,5,5.860146274310105e-16
6.055,0.1593410769217493,77.50000000000001,0,90,1.0,5,2.9300731371550523e-16
6.06,0.3291989194808569,77.5,0,90,1.0,5,0.0
6.065,0.5672906802982638,77.5,0,90,1.0,5,0.0
6.07,0.815339152120446,77.5,0,90,1.0,5,0.0
6.075,0.9768711246313155,77.50000284150002,1,90,1.0,5,5.858762928180591e-08
6.08,0.9726380909165361,77.5000055087254,0,90,1.0,5,1.1358196688794948e-07
6.085,0.7921091683291741,77.50001136395807,0,90,1.0,5,2.3430841373428661e-07
6.09,0.49139090102639077,77.50002585890292,0,90,1.0,5,5.331732559967612e-07
6.095,0.15739335672107918,77.50006577270929,0,90,1.0,5,1.356138335905626e-06
6.1,-0.11102342218909485,77.50018247875063,0,90,1.0,5,3.76244846661487e-06
6.105,-0.2314207883647528,77.50052776496497,0,90,1.0,5,1.0881751855078582e-05
6.11,-0.2029124434754801,77.50152756139154,0,90,1.0,5,3.1496111165786474e-05
6.115,-0.11151350554305876,77.50430755613382,0,90,1.0,5,8.88155903881271e-05
6.12,-0.039430666652076896,77.5116563600092,0,90,1.0,5,0.00024033731977727622
6.125,-0.006087703519843621,77.53002739545968,0,90,1.0,5,0.0006191215558697577
6.13,0.005350271385530551,77.57333096905042,0,90,1.0,5,0.0015119787433075698
6.135,0.010381647827441833,77.66940490223725,0,90,1.0,5,0.0034928845822112743
6.14,0.015115203303506243,77.86976747664984,0,90,1.0,5,0.007624071683501874
6.145,0.021170964062928475,78.26211431813414,0,90,1.0,5,0.01571369728111625
6.15,0.029082821134029553,78.98267513398078,0,90,1.0,5,0.03057062131919128
6.155,0.03923107061708144,80.22218766058688,0,90,1.0,5,0.05612758063065738
6.16,0.051969043308817596,82.21612057642412,0,90,1.0,5,0.09723959951389932
6.165,0.06760532616283861,85.20932922752098,0,90,1.0,5,0.15895524180455634
6.17,0.08636519236693461,89.39039798617173,0,90,1.0,5,0.24516284507570588
6.175,0.10834733138818661,94.8028006534978,0,90,1.0,5,0.35675877636077935
6.18,0.1334809643017884,101.25612781731577,0,90,1.0,5,0.48981706839826333
6.185,0.16148868344343945,108.27370857382006,0,90,1.0,5,0.6345094551303105
6.19,0.191860907532018,115.11341104223824,0,90,1.0,5,0.775534248293572
6.195,0.22384764873847726,120.88000833622657,0,90,1.0,5,0.8944331615716817
6.2,0.25647215537198226,124.71329532894552,0,90,1.0,5,0.9734700067823818
6.205,0.2885689161419028,126.0,0,90,1.0,5,1.0
6.21,0.31884566517832524,124.53834900968857,0,90,1.0,5,0.9698628661791459
6.215,0.3459657668955683,120.59493192202842,0,90,1.0,5,0.8885552973614108
6.22,0.3686441789190902,114.83222413300682,0,90,1.0,5,0.7697365800619963
6.225,0.3857476379544367,108.13422420586735,0,90,1.0,5,0.6316334887807702
6.23,0.3963882865005728,101.3936098555063,0,90,1.0,5,0.492651749598068
6.235,0.4,95.33064507931,0,90,1.0,5,0.3676421665837114
6.24,0.39638828650057273,90.39185276201252,0,90,1.0,5,0.2658113971548973
6.245,0.38574763795443656,86.73955542986523,0,90,1.0,5,0.19050629752299453
6.25,0.36864417891908974,84.31059562557269,0,90,1.0,5,0.14042465207366367
6.255,0.345965766895568,82.9065602268215,0,90,1.0,5,0.11147546859425768
6.26,0.3188456651783249,82.28033336831763,0,90,1.0,5,0.09856357460448717
6.265,0.28856891614190205,82.19778113694667,0,90,1.0,5,0.09686146674116852
6.27,0.2564721553719815,82.46927305071628,0,90,1.0,5,0.1024592381590986
6.275,0.22384764873847685,82.95682150774277,0,90,1.0,5,0.11251178366479946
6.28,0.19186090753201765,83.56687754099825,0,90,1.0,5,0.12509025857728348
6.285,0.16148868344343878,84.23787322707521,0,90,1.0,5,0.1389252211768085
6.29,0.1334809643017881,84.92832444149448,0,90,1.0,5,0.15316132869060786
6.295,0.10834733138818531,85.60801881012263,0,90,1.0,5,0.16717564556953876
6.3,0.08636519236690572,86.25260772478875,0,90,1.0,5,0.18046613865543806
6.305,0.06760532616242629,86.84089403560439,0,90,1.0,5,0.19259575331143078
6.31,0.05196904332202373,87.35388295636871,0,90,1.0,5,0.20317284446121045
6.315,0.03923107185803287,87.77481720348132,0,90,1.0,5,0.21185190110270763
6.32,0.02908287038705761,88.08966243795557,0,90,1.0,5,0.21834355542176428
6.325,0.02117220077308346,88.28771551986046,0,90,1.0,5,0.22242712412083412
6.33,0.0151361834125735,88.36214631799686,0,90,1.0,5,0.22396177975251258
6.335,0.010626454858290009,88.31036736727964,0,90,1.0,5,0.22289417252122967
6.34,0.007326255555493652,88.13417633763018,0,90,1.0,5,0.21926136778618927
6.345,0.004960179211183015,87.83965035915766,0,90,1.0,5,0.213188667199127
6.35,0.0032978759379303545,87.43679744267308,0,90,1.0,5,0.20488242149841407
6.355,0.002153242296767213,86.9389917989111,0,90,1.0,5,0.1946183876064145
6.36,0.001380616732225004,86.36223716698538,0,90,1.0,5,0.18272653952547177
6.365,0.0008693106590991584,85.72431461211428,0,90,1.0,5,0.16957349715699555
6.37,0.000537524815942247,85.04387789533241,0,90,1.0,5,0.15554387413056525
6.375,0.0003263951340288585,84.33956014461978,0,90,1.0,5,0.14102185865195427
6.38,0.00019463030985187395,83.62915046826862,0,90,1.0,5,0.1263742364591468
6.385,0.00011397219555062695,82.92888923969679,0,90,1.0,5,0.11193586061230489
6.39,6.55403863487943e-05,82.25291740154772,0,90,1.0,5,0.09799829693912823
6.395,3.701184389455385e-05,81.61289990625842,0,90,1.0,5,0.08480205992285401
6.4,2.0525516217290957e-05,81.01782800176962,0,90,1.0,5,0.07253253611896114
6.405,1.1178128483661116e-05,80.47399100328275,0,90,1.0,5,0.0613194021295412
6.41,5.978135409912517e-06,79.9850966673004,0,90,1.0,5,0.05123910654227622
6.415,3.1396702713238487e-06,79.55251108450634,0,90,1.0,5,0.04231981617538835
6.42,1.6192875458531019e-06,79.17558445710158,0,90,1.0,5,0.034548133136115024
6.425,8.201353897972012e-07,78.85202811529082,0,90,1.0,5,0.027876868356511774
6.43,4.0791415086824765e-07,78.57831019218708,0,90,1.0,5,0.022233199838908767
6.435,1.9923866938774793e-07,78.35004180586505,0,90,1.0,5,0.01752663517247519
6.44,9.556527981051257e-08,78.16233155760507,0,90,1.0,5,0.013656320775362298
6.445,4.501406988770349e-08,78.01009280593172,0,90,1.0,5,0.01051737744189113
6.45,0.0,77.88829476616297,0,90,1.0,5,0.008006077652844772
6.455,0.0,77.79215442099877,0,90,1.0,5,0.006023802494820002
6.46,0.0,77.71727110655786,0,90,1.0,5,0.004479816630058962
6.465,0.0,77.65970925268655,0,90,1.0,5,0.003292974282196985
6.47,0.0,77.61603707332719,0,90,1.0,5,0.0023925169758183882
6.475,0.0,77.58333012691409,0,90,1.0,5,0.0017181469466823053
6.48,0.0,77.55914879585012,0,90,1.0,5,0.0012195628010334112
6.485,0.0,77.54149811404007,0,90,1.0,5,0.0008556312173209687
6.49,0.0,77.52877725728622,0,90,1.0,5,0.0005933455110561316
6.495,0.0,77.51972463735181,0,90,1.0,5,0.0004066935536456509
6.5,0.0,77.51336310074132,0,90,1.0,5,0.00027552785033640716
6.505,0.0,77.50894837231351,0,90,1.0,5,0.0001845025219280774
6.51,0.0,77.50592269592266,0,90,1.0,5,0.00012211744170440163
6.515,0.0,77.50387465835057,0,90,1.0,5,7.988986289831832e-05
6.52,0.0,77.50250545138663,0,90,1.0,5,5.1658791476807595e-05
6.525,0.0,77.50160131633649,0,90,1.0,5,3.301683168021236e-05
6.53,0.0,77.50101159546982,0,90,1.0,5,2.0857638552975802e-05
6.535,0.0,77.5006316481158,0,90,1.0,5,1.3023672490711779e-05
6.54,0.0,77.50038983616128,0,90,1.0,5,8.037858995371654e-06
6.545,0.0,77.50023780863849,0,90,1.0,5,4.903270896659603e-06
6.55,0.0,77.50014338764066,0,90,1.0,5,2.9564461992214493e-06
6.555,0.0,77.50008545439401,0,90,1.0,5,1.7619462682629541e-06
6.56,0.0,77.5000503379664,0,90,1.0,5,1.0378962144255338e-06
6.565,0.0,77.50002930863025,0,90,1.0,5,6.04301654562995e-07
6.57,0.0,77.50001686684932,0,90,1.0,5,3.47770089106656e-07
6.575,0.0,77.50000959424924,0,90,1.0,5,1.9781957185729233e-07
6.58,0.001684486749771458,77.50000539419466,0,90,1.0,5,1.1122050843190777e-07
6.585,0.004172395771277602,77.50000299764929,0,90,1.0,5,6.180720184911667e-08
6.59,0.009438687428818865,77.50000164654504,0,90,1.0,5,3.394938235689233e-08
6.595,0.019500507867137046,77.50000089393305,0,90,1.0,5,1.8431609246878916e-08
6.6,0.03679496976339974,77.50000047970579,0,90,1.0,5,9.890841025930826e-09
6.605,0.06340728953298436,77.5000002544389,0,90,1.0,5,5.246162926755695e-09
6.61,0.09979255396093453,77.50000013339228,0,90,1.0,5,2.750356222265706e-09
6.615,0.14343835518453557,77.50000006912201,0,90,1.0,5,1.4251960711243151e-09
6.62,0.18829581417209276,77.50000003540305,0,90,1.0,5,7.299597444253993e-10
6.625,0.2257481735193119,77.5000000179227,0,90,1.0,5,3.695402380433678e-10
6.63,0.24718154073554727,77.5000000089682,0,90,1.0,5,1.8491134854689477e-10
6.635,0.24718154074102772,77.50000000443552,0,90,1.0,5,9.145402877151092e-11
6.64,0.22574817354072055,77.50000000216832,0,90,1.0,5,4.4707641941339216e-11
6.645,0.18829581422840957,77.50000000104771,0,90,1.0,5,2.160225721098934e-11
6.65,0.14343835532456656,77.50000000050038,0,90,1.0,5,1.0317080523236655e-11
6.655,0.09979255431561854,77.5000000002362,0,90,1.0,5,4.870074561265413e-12
6.66,0.06340729067170194,77.5000000001102,0,90,1.0,5,2.272271717863743e-12
6.665,0.03679497683410042,77.50000000005083,0,90,1.0,5,1.0480871611603622e-12
6.67,0.019500578284482293,77.50000000002316,0,90,1.0,5,4.776019213562735e-13
6.675,0.009439396781978427,77.50000000001044,0,90,1.0,5,2.1536037558089634e-13
6.68,0.004178588733610924,77.50000000000465,0,90,1.0,5,9.581339158497021e-14
6.685,0.0017299316936037381,77.50000000000205,0,90,1.0,5,4.2193053175032755e-14
6.69,0.0008997325756988589,77.5000000000009,0,90,1.0,5,1.845946076407683e-14
6.695,0.001634769674224814,77.50000000000038,0,90,1.0,5,7.911197470318642e-15
6.7,0.00614904736476635,77.50000000000016,0,90,1.0,5,3.2230804508705575e-15
6.705,0.02168080359963608,77.50000000000007,0,90,1.0,5,1.465036568577526e-15
6.71,0.06433400338904088,77.50000000000003,0,90,1.0,5,5.860146274310105e-16
6.715,0.1593410769217493,77.50000000000001,0,90,1.0,5,2.9300731371550523e-16
6.72,0.3291989194808569,77.5,0,90,1.0,5,0.0
6.725,0.5672906802982638,77.5,0,90,1.0,5,0.0
6.73,0.815339152120446,77.5,0,90,1.0,5,0.0
6.735,0.9768711246313155,77.50000284586159,1,90,1.0,5,5.8677558500516847e-08
6.74,0.9726380909165361,77.50000540621835,0,90,1.0,5,1.1146841957598394e-07
6.745,0.7921091683291741,77.5000108768639,0,90,1.0,5,2.2426523498287464e-07
6.75,0.49139090102639077,77.5000239632854,0,90,1.0,5,4.940883587719842e-07
6.755,0.15739335672107918,77.50005866103898,0,90,1.0,5,1.2095059582978926e-06
6.76,-0.11102342218909485,77.5001565274914,0,90,1.0,5,3.2273709566722866e-06
6.765,-0.2314207883647528,77.50043717338163,0,90,1.0,5,9.013884157259303e-06
6.77,-0.2029124434754801,77.50122904689188,0,90,1.0,5,2.534117302843697e-05
6.775,-0.11151350554305876,77.50338542462353,0,90,1.0,5,6.980256955733511e-05
6.78,-0.039430666652076896,77.50899344295689,0,90,1.0,5,0.0001854318135441804
6.785,-0.006087703519843621,77.52284424176906,0,90,1.0,5,0.00047101529420751363
6.79,0.005350271385530551,77.55523138800068,0,90,1.0,5,0.0011387915051686152
6.795,0.010381647827441833,77.62679470536686,0,90,1.0,5,0.002614323821997157
6.8,0.015115203303506243,77.77602863433232,0,90,1.0,5,0.005691312048089076
6.805,0.021170964062928475,78.06941882061071,0,90,1.0,5,0.011740594239396024
6.81,0.029082821134029553,78.61264705687972,0,90,1.0,5,0.022941176430509753
6.815,0.03923107061708144,79.55887006289213,0,90,1.0,5,0.04245092913179641
6.82,0.051969043308817596,81.10733409746567,0,90,1.0,5,0.07437802262815808
6.825,0.06760532616283861,83.4840347084959,0,90,1.0,5,0.12338215893805975
6.83,0.08636519236693461,86.89791075708786,0,90,1.0,5,0.19377135581624447
6.835,0.10834733138818661,91.47290531438892,0,90,1.0,5,0.28810114050286445
6.84,0.1334809643017884,97.16780461229023,0,90,1.0,5,0.40552174458330364
6.845,0.16148868344343945,103.70838557386074,0,90,1.0,5,0.5403790839971286
6.85,0.191860907532018,110.56339952140614,0,90,1.0,5,0.6817195777609514
6.855,0.22384764873847726,116.9905505634757,0,90,1.0,5,0.8142381559479525
6.86,0.25647215537198226,122.1585552525796,0,90,1.0,5,0.9207949536614352
6.865,0.2885689161419028,125.32204653102696,0,90,1.0,5,0.9860215779593187
6.87,0.31884566517832524,126.0,0,90,1.0,5,1.0
6.875,0.3459657668955683,124.09929318952061,0,90,1.0,5,0.960810168856095
6.88,0.3686441789190902,119.94001348411793,0,90,1.0,5,0.8750518244148026
6.885,0.3857476379544367,114.17337664266108,0,90,1.0,5,0.7561520957249708
6.89,0.3963882865005728,107.62152108345802,0,90,1.0,5,0.6210622903805777
6.895,0.4,101.0936464742221,0,90,1.0,5,0.4864669376128268
6.9,0.39638828650057273,95.23476363020654,0,90,1.0,5,0.3656652294887947
6.905,0.38574763795443656,90.4435854989949,0,90,1.0,5,0.2668780515256682
6.91,0.36864417891908974,86.86645009682657,0,90,1.0,5,0.19312268240879524
6.915,0.345965766895568,84.44866361769579,0,90,1.0,5,0.14327141479785124
6.92,0.3188456651783249,83.01238886958782,0,90,1.0,5,0.11365750246572832
6.925,0.28856891614190205,82.33219786893802,0,90,1.0,5,0.09963294575129947
6.93,0.2564721553719815,82.19037236159303,0,90,1.0,5,0.09670870848645433
6.935,0.22384764873847685,82.4067713597822,0,90,1.0,5,0.10117054350066387
6.94,0.19186090753201765,82.84733349045737,0,90,1.0,5,0.11025429877231697
6.945,0.16148868344343878,83.41925731830845,0,90,1.0,5,0.12204654264553512
6.95,0.1334809643017881,84.06060249564256,0,90,1.0,5,0.13527015454933106
6.955,0.10834733138818531,84.7296112585338,0,90,1.0,5,0.14906414966049059
6.96,0.08636519236690572,85.39633568541677,0,90,1.0,5,0.16281104506013966
6.965,0.06760532616242629,86.03717687645855,0,90,1.0,5,0.17602426549399064
6.97,0.05196904332202373,86.63190565549688,0,90,1.0,5,0.18828671454632742
6.975,0.03923107185803287,87.16241124326619,0,90,1.0,5,0.19922497408796272
6.98,0.02908287038705761,87.61248306715446,0,90,1.0,5,0.20850480550833933
6.985,0.02117220077308346,87.96811794886472,0,90,1.0,5,0.21583748348174672
6.99,0.0151361834125735,88.21802622801505,0,90,1.0,5,0.22099023150546493
6.995,0.010626454858290009,88.35414161770949,0,90,1.0,5,0.2237967343857626
7.0,0.007326255555493652,88.37202232834514,0,90,1.0,5,0.22416540883185854
7.005,0.004960179211183015,88.27108106749418,0,90,1.0,5,0.22208414572152949
7.01,0.0032978759379303545,88.05461363524023,0,90,1.0,5,0.21762089969567486
7.015,0.002153242296767213,87.7296191903864,0,90,1.0,5,0.21091998330693612
7.02,0.001380616732225004,87.30642415743608,0,90,1.0,5,0.20219431252445533
7.025,0.0008693106590991584,86.79813742453794,0,90,1.0,5,0.19171417370181323
7.03,0.000537524815942247,86.21997675578243,0,90,1.0,5,0.17979333517077167
7.035,0.0003263951340288585,85.58851459767371,0,90,1.0,5,0.16677349685925172
7.04,0.00019463030985187395,84.92089522273513,0,90,1.0,5,0.15300814892237374
7.045,0.00011397219555062695,84.2340743273611,0,90,1.0,5,0.13884689334765155
7.05,6.55403863487943e-05,83.54412713946391,0,90,1.0,5,0.1246211781332765
7.055,3.701184389455385e-05,82.86566255613282,0,90,1.0,5,0.11063221765222306
7.06,2.0525516217290957e-05,82.2113698868779,0,90,1.0,5,0.09714164715212173
7.065,1.1178128483661116e-05,81.59171264922182,0,90,1.0,5,0.08436520926230553
7.07,5.978135409912517e-06,81.0147717845139,0,90,1.0,5,0.07246952133018345
7.075,3.1396702713238487e-06,80.48622973646444,0,90,1.0,5,0.06157174714359665
7.08,1.6192875458531019e-06,80.00947792665202,0,90,1.0,5,0.0517418129206603
7.085,8.201353897972012e-07,79.58582382558662,0,90,1.0,5,0.04300667681621888
7.09,4.0791415086824765e-07,79.21477027933115,0,90,1.0,5,0.03535608823363192
7.095,1.9923866938774793e-07,78.89433892375651,0,90,1.0,5,0.02874925615992798
7.1,9.556527981051257e-08,78.62141105818226,0,90,1.0,5,0.02312187748829404
7.105,4.501406988770349e-08,78.39206273455854,0,90,1.0,5,0.018393046073371874
7.11,0.0,78.20187543065295,0,90,1.0,5,0.014471658363978296
7.115,0.0,78.04620888776554,0,90,1.0,5,0.01126203892300092
7.12,0.0,77.9204279351801,0,90,1.0,5,0.00866861722020826
7.125,0.0,77.82007993256983,0,90,1.0,5,0.0065995862385531045
7.13,0.0,77.74102351106553,0,90,1.0,5,0.004969556929186289
7.135,0.0,77.67951239873214,0,90,1.0,5,0.003701286571796767
7.14,0.0,77.63224022257143,0,90,1.0,5,0.0027266025272458896
7.145,0.0,77.59635333975864,0,90,1.0,5,0.0019866667991471345
7.15,0.0,77.56943909521827,0,90,1.0,5,0.0014317339220262168
7.155,0.0,77.54949660528963,0,90,1.0,5,0.0010205485626728467
7.16,0.0,77.53489641831816,0,90,1.0,5,0.000719513779755774
7.165,0.0,77.52433438497737,0,90,1.0,5,0.0005017398964405191
7.17,0.0,77.51678394216378,0,90,1.0,5,0.0003460606631707969
7.175,0.0,77.51144989895161,0,90,1.0,5,0.0002360803907548608
7.18,0.0,77.50772579914724,0,90,1.0,5,0.00015929482777810147
7.185,0.0,77.50515607531464,0,90,1.0,5,0.00010631083122978725
7.19,0.0,77.50340352677404,0,90,1.0,5,7.017580977394714e-05
7.195,0.0,77.50222214896947,0,90,1.0,5,4.581750452506846e-05
7.2,0.0,77.50143499784357,0,90,1.0,5,2.9587584403599846e-05
7.205,0.0,77.50091656528996,0,90,1.0,5,1.8898253401142864e-05
7.21,0.0,77.50057904143834,0,90,1.0,5,1.1938998728714274e-05
7.215,0.0,77.50036181782804,0,90,1.0,5,7.460161402809014e-06
7.22,0.0,77.50022361676467,0,90,1.0,5,4.610654941678749e-06
7.225,0.0,77.50013669506535,0,90,1.0,5,2.818454955680882e-06
7.23,0.0,77.50008264857955,0,90,1.0,6,1.7040944237109704e-06
7.235,0.0,77.50004942560916,0,90,1.0,6,1.0190847250055179e-06
7.24,0.0,77.50002923497637,0,90,1.0,6,6.027830178735121e-07
7.245,0.0,77.50001710360048,0,90,1.0,6,3.5265155637829334e-07
7.25,0.0,77.50000989706493,0,90,1.0,6,2.0406319438350074e-07
7.255,0.0,77.50000566447123,0,90,1.0,6,1.1679322127063117e-07
7.26,0.001684486749771458,77.50000320661198,0,90,1.0,6,6.611571089922212e-08
7.265,0.004172395771277602,77.50000179542606,0,90,1.0,6,3.7019093989544774e-08
7.27,0.009438687428818865,77.50000099431209,0,90,1.0,6,2.0501280178652132e-08
7.275,0.019500507867137046,77.50000054464309,0,90,1.0,6,1.1229754354363397e-08
7.28,0.03679496976339974,77.50000029507699,0,90,1.0,6,6.084061584429552e-09
7.285,0.06340728953298436,77.50000015812218,0,90,1.0,6,3.2602510656811926e-09
7.29,0.09979255396093453,77.50000008380778,0,90,1.0,6,1.727995396256879e-09
7.295,0.14343835518453557,77.50000004393492,0,90,1.0,6,9.058745964119732e-10
7.3,0.18829581417209276,77.50000002278082,0,90,1.0,6,4.697077183101503e-10
7.305,0.2257481735193119,77.50000001168324,0,90,1.0,6,2.408915678614969e-10
7.31,0.24718154073554727,77.5000000059264,0,90,1.0,6,1.221937190607183e-10
7.315,0.24718154074102772,77.5000000029734,0,90,1.0,6,6.130709227795003e-11
7.32,0.22574817354072055,77.50000000147553,0,90,1.0,6,3.0423242390394625e-11
7.325,0.18829581422840957,77.50000000072423,0,90,1.0,6,1.4932531728883294e-11
7.33,0.14343835532456656,77.50000000035159,0,90,1.0,6,7.249293948635315e-12
7.335,0.09979255431561854,77.50000000016882,0,90,1.0,6,3.4809268869402023e-12
7.34,0.06340729067170194,77.50000000008018,0,90,1.0,6,1.6531472639828805e-12
7.345,0.03679497683410042,77.50000000003766,0,90,1.0,6,7.764693813460888e-13
7.35,0.019500578284482293,77.5000000000175,0,90,1.0,6,3.606920031837869e-13
7.355,0.009439396781978427,77.50000000000804,0,90,1.0,6,1.6584213956297595e-13
7.36,0.004178588733610924,77.50000000000365,0,90,1.0,6,7.530287962488484e-14
7.365,0.0017299316936037381,77.50000000000165,0,90,1.0,6,3.3988848390998606e-14
7.37,0.0008997325756988589,77.50000000000072,0,90,1.0,6,1.4943372999490767e-14
7.375,0.001634769674224814,77.50000000000033,0,90,1.0,6,6.73916821545662e-15
7.38,0.00614904736476635,77.50000000000014,0,90,1.0,6,2.930073137155052e-15
7.385,0.02168080359963608,77.50000000000006,0,90,1.0,6,1.172029254862021e-15
7.39,0.06433400338904088,77.50000000000003,0,90,1.0,6,5.860146274310105e-16
7.395,0.1593410769217493,77.50000000000001,0,90,1.0,6,2.9300731371550523e-16
7.4,0.3291989194808569,77.5,0,90,1.0,6,0.0
7.405,0.5672906802982638,77.5,0,90,1.0,6,0.0
7.41,0.815339152120446,77.5,0,90,1.0,6,0.0
7.415,0.9768711246313155,77.50000285188469,1,90,1.0,6,5.88017461343474e-08
7.42,0.9726380909165361,77.500005472104,0,90,1.0,6,1.1282688645449e-07
7.425,0.7921091683291741,77.50001114553572,0,90,1.0,6,2.2980486026370402e-07
7.43,0.49139090102639077,77.50002494746741,0,90,1.0,6,5.143807713241201e-07
7.435,0.15739335672107918,77.50006223014493,0,90,1.0,6,1.283095771835169e-06
7.44,-0.11102342218909485,77.5001692753466,0,90,1.0,6,3.4902133318178834e-06
7.445,-0.2314207883647528,77.50048103204684,0,90,1.0,6,9.918186532683284e-06
7.45,-0.2029124434754801,77.50137207546508,0,90,1.0,6,2.8290215774943847e-05
7.455,-0.11151350554305876,77.50382388761822,0,90,1.0,6,7.884304367473877e-05
7.46,-0.039430666652076896,77.51025255192553,0,90,1.0,6,0.00021139282320685189
7.465,-0.006087703519843621,77.52622730260188,0,90,1.0,6,0.0005407691258119953
7.47,0.005350271385530551,77.56373480349473,0,90,1.0,6,0.0013141196596850547
7.475,0.010381647827441833,77.64679192528084,0,90,1.0,6,0.0030266376346564368
7.48,0.015115203303506243,77.82003264790949,0,90,1.0,6,0.006598611297102794
7.485,0.021170964062928475,78.16002289075324,0,90,1.0,6,0.013608719396974014
7.49,0.029082821134029553,78.78715565839514,0,90,1.0,6,0.026539291925672906
7.495,0.03923107061708144,79.87309703665223,0,90,1.0,6,0.04892983580726239
7.5,0.051969043308817596,81.6357728352696,0,90,1.0,6,0.08527366670658981
7.505,0.06760532616283861,84.31274116702575,0,90,1.0,6,0.14046889004176802
7.51,0.08636519236693461,88.10699478553131,0,90,1.0,6,0.21870092341301678
7.515,0.10834733138818661,93.10840244452054,0,90,1.0,6,0.3218227308148564
7.52,0.1334809643017884,99.20787973600085,0,90,1.0,6,0.44758514919589376
7.525,0.16148868344343945,106.03465479272373,0,90,1.0,6,0.5883433977881181
7.53,0.191860907532018,112.95149073900936,0,90,1.0,6,0.7309585719383372
7.535,0.22384764873847726,119.13158563547512,0,90,1.0,6,0.8583832089788684
7.54,0.25647215537198226,123.71388588995438,0,90,1.0,6,0.9528636265969976
7.545,0.2885689161419028,126.0,0,90,1.0,6,1.0
7.55,0.31884566517832524,125.63168033832994,0,90,1.0,6,0.9924057801717514
7.555,0.3459657668955683,122.68717513676035,0,90,1.0,6,0.9316943327167081
7.56,0.3686441789190902,117.66114684156429,0,90,1.0,6,0.8280648833312224
7.565,0.3857476379544367,111.33557350136091,0,90,1.0,6,0.6976406907497096
7.57,0.3963882865005728,104.5882963007817,0,90,1.0,6,0.5585215732119939
7.575,0.4,98.20380090084146,0,90,1.0,6,0.4268824928008548
7.58,0.39638828650057273,92.74127363349305,0,90,1.0,6,0.31425306460810415
7.585,0.38574763795443656,88.48579720411917,0,90,1.0,6,0.22651128255915806
7.59,0.36864417891908974,85.47562070635212,0,90,1.0,6,0.16444578775983748
7.595,0.345965766895568,83.57616312899322,0,90,1.0,6,0.1252817139998601
7.6,0.3188456651783249,82.5659171942369,0,90,1.0,6,0.10445190091210109
7.605,0.28856891614190205,82.2077740060747,0,90,1.0,6,0.09706750527989073
7.61,0.2564721553719815,82.29359471173308,0,90,1.0,6,0.09883700436563048
7.615,0.22384764873847685,82.66255827345258,0,90,1.0,6,0.10644450048355825
7.62,0.19186090753201765,83.20095515387028,0,90,1.0,6,0.11754546709010891
7.625,0.16148868344343878,83.83258540626372,0,90,1.0,6,0.13056877126316943
7.63,0.1334809643017881,84.50688720883298,0,90,1.0,6,0.1444719012130511
7.635,0.10834733138818531,85.18879930614817,0,90,1.0,6,0.1585319444566633
7.64,0.08636519236690572,85.85174343024126,0,90,1.0,6,0.1722008954688919
7.645,0.06760532616242629,86.47356190947447,0,90,1.0,6,0.1850218950407107
7.65,0.05196904332202373,87.0346351717773,0,90,1.0,6,0.19659041591293394
7.655,0.03923107185803287,87.51735949791845,0,90,1.0,6,0.20654349480244225
7.66,0.02908287038705761,87.90635065364523,0,90,1.0,6,0.2145639310029945
7.665,0.02117220077308346,88.1889541011337,0,90,1.0,6,0.22039080620894233
7.67,0.0151361834125735,88.35580849564253,0,90,1.0,6,0.22383110300293885
7.675,0.010626454858290009,88.4013164549309,0,90,1.0,6,0.22476941144187437
7.68,0.007326255555493652,88.32394120303454,0,90,1.0,6,0.2231740454233925
7.685,0.004960179211183015,88.12628788072502,0,90,1.0,6,0.21909871919020651
7.69,0.0032978759379303545,87.8149564468404,0,90,1.0,6,0.21267951436784327
7.695,0.002153242296767213,87.40017534035806,0,90,1.0,6,0.20412732660532085
7.7,0.001380616732225004,86.89524350085946,0,90,1.0,6,0.1937163608424632
7.705,0.0008693106590991584,86.31582296936395,0,90,1.0,6,0.18176954576008145
7.71,0.000537524815942247,85.67913444059066,0,90,1.0,6,0.16864194722867337
7.715,0.0003263951340288585,85.00311320618148,0,90,1.0,6,0.15470336507590685
7.72,0.00019463030985187395,84.3055827268295,0,90,1.0,6,0.1403212933366907
7.725,0.00011397219555062695,83.60349793607864,0,90,1.0,6,0.12584531826966266
7.73,6.55403863487943e-05,82.91230113964602,0,90,1.0,6,0.11159383793084575
7.735,3.701184389455385e-05,82.24542123587032,0,90,1.0,6,0.09784373682206855
7.74,2.0525516217290957e-05,81.613933357956,0,90,1.0,6,0.08482336820527836
7.745,1.1178128483661116e-05,81.0263823663777,0,90,1.0,6,0.07270891477067429
7.75,5.978135409912517e-06,80.48876119719017,0,90,1.0,6,0.06162394221010664
7.755,3.1396702713238487e-06,80.00462491990231,0,90,1.0,6,0.05164175092582087
7.76,1.6192875458531019e-06,79.57531413717051,0,90,1.0,6,0.042789982209701205
7.765,8.201353897972012e-07,79.20025733794617,0,90,1.0,6,0.035056852328787
7.77,4.0791415086824765e-07,78.8773208986497,0,90,1.0,6,0.028398369044323704
7.775,1.9923866938774793e-07,78.60317721354771,0,90,1.0,6,0.02274592192881876
7.78,9.556527981051257e-08,78.37366531514834,0,90,1.0,6,0.01801371783811018
7.785,4.501406988770349e-08,78.18412359953327,0,90,1.0,6,0.014105641227490006
7.79,0.0,78.02968017202754,0,90,1.0,6,0.010921240660361643
7.795,0.0,77.90549221983429,0,90,1.0,6,0.008360664326480135
7.8,0.0,77.80693117491525,0,90,1.0,6,0.0063284778333041036
7.805,0.0,77.72971488846713,0,90,1.0,6,0.00473638945293049
7.81,0.0,77.66999140059843,0,90,1.0,6,0.003504977331926474
7.815,0.0,77.624381109498,0,90,1.0,6,0.002564558958721715
7.82,0.0,77.58998529958369,0,90,1.0,6,0.001855367001725527
7.825,0.0,77.56436923879633,0,90,1.0,6,0.001327200799924356
7.83,0.0,77.54552760933194,0,90,1.0,6,0.0009387135944730149
7.835,0.0,77.53183911478689,0,90,1.0,6,0.0006564765935441408
7.84,0.0,77.52201591751752,0,90,1.0,6,0.0004539364436602307
7.845,0.0,77.51505227902882,0,90,1.0,6,0.00031035626863550747
7.85,0.0,77.51017553839584,0,90,1.0,6,0.00020980491537818461
7.855,0.0,77.50680146081736,0,90,1.0,6,0.0001402363055125154
7.86,0.0,77.5044950721781,0,90,1.0,6,9.268190057942428e-05
7.865,0.0,77.50293738454126,0,90,1.0,6,6.056462971659852e-05
7.87,0.0,77.5018979055961,0,90,1.0,6,3.9132074146298636e-05
7.875,0.0,77.50121248974423,0,90,1.0,6,2.499978854089444e-05
7.88,0.0,77.50076589847964,0,90,1.0,6,1.5791721229734977e-05
7.885,0.0,77.50047835906365,0,90,1.0,6,9.863073477303842e-06
7.89,0.0,77.50029541087085,0,90,1.0,6,6.090945790679284e-06
7.895,0.0,77.50018038009229,0,90,1.0,6,3.7191771605897154e-06
7.9,0.0,77.50010890314022,0,90,1.0,6,2.2454255714627526e-06
7.905,0.0,77.5000650102546,0,90,1.0,6,1.3404176206560017e-06
7.91,0.0,77.50003837187288,0,90,1.0,6,7.911726366100336e-07
7.915,0.0,77.50002239410928,0,90,1.0,6,4.617342119555482e-07
7.92,0.0,77.500012922432,0,90,1.0,6,2.6644189703577083e-07
7.925,0.0,77.50000737300255,0,90,1.0,6,1.520206710571899e-07
7.93,0.001684486749771458,77.50000415943343,0,90,1.0,6,8.576151403242865e-08
7.935,0.004172395771277602,77.50000232013706,0,90,1.0,6,4.783787745772006e-08
7.94,0.009438687428818865,77.50000127962515,0,90,1.0,6,2.6384023763010605e-08
7.945,0.019500507867137046,77.50000069781701,0,90,1.0,6,1.4387979687394222e-08
7.95,0.03679496976339974,77.50000037626171,0,90,1.0,6,7.75797339771351e-09
7.955,0.06340728953298436,77.5000002005987,0,90,1.0,6,4.136055786523112e-09
7.96,0.09979255396093453,77.50000010574405,0,90,1.0,6,2.1802896899129167e-09
7.965,0.14343835518453557,77.50000005511545,0,90,1.0,6,1.1364010305507842e-09
7.97,0.18829581417209276,77.50000002840406,0,90,1.0,6,5.856507123473758e-10
7.975,0.2257481735193119,77.50000001447363,0,90,1.0,6,2.984253119534186e-10
7.98,0.24718154073554727,77.50000000729229,0,90,1.0,6,1.503564100257978e-10
7.985,0.24718154074102772,77.50000000363279,0,90,1.0,6,7.490292464166318e-11
7.99,0.22574817354072055,77.50000000178939,0,90,1.0,6,3.689460192111527e-11
7.995,0.18829581422840957,77.50000000087148,0,90,1.0,6,1.7968673513603357e-11
8.0,0.14343835532456656,77.50000000041966,0,90,1.0,6,8.652798981332584e-12
8.005,0.09979255431561854,77.50000000019982,0,90,1.0,6,4.119975838153719e-12
8.01,0.06340729067170194,77.50000000009408,0,90,1.0,6,1.9397084167966446e-12
8.015,0.03679497683410042,77.50000000004378,0,90,1.0,6,9.027555335574716e-13
8.02,0.019500578284482293,77.50000000002015,0,90,1.0,6,4.154843708485864e-13
8.025,0.009439396781978427,77.50000000000917,0,90,1.0,6,1.8898971734650088e-13
8.03,0.004178588733610924,77.50000000000412,0,90,1.0,6,8.497212097749652e-14
8.035,0.0017299316936037381,77.50000000000183,0,90,1.0,6,3.779794346930017e-14
8.04,0.0008997325756988589,77.50000000000081,0,90,1.0,6,1.67014168817838e-14
8.045,0.001634769674224814,77.50000000000036,0,90,1.0,6,7.32518284288763e-15
8.05,0.00614904736476635,77.50000000000016,0,90,1.0,6,3.2230804508705575e-15
8.055,0.02168080359963608,77.50000000000006,0,90,1.0,6,1.172029254862021e-15
8.06,0.06433400338904088,77.50000000000003,0,90,1.0,6,5.860146274310105e-16
8.065,0.1593410769217493,77.50000000000001,0,90,1.0,6,2.9300731371550523e-16
8.07,0.3291989194808569,77.5,0,90,1.0,6,0.0
8.075,0.5672906802982638,77.5,0,90,1.0,6,0.0
8.08,0.815339152120446,77.5,0,90,1.0,6,0.0
8.085,0.9768711246313155,77.5000028548974,1,90,1.0,6,5.88638639778624e-08
8.09,0.9726380909165361,77.50000578823352,0,90,1.0,6,1.1934502108675757e-07
8.095,0.7921091683291741,77.50001262810264,0,90,1.0,6,2.6037325027310855e-07
8.1,0.49139090102639077,77.50003090820933,0,90,1.0,6,6.372826665005257e-07
8.105,0.15739335672107918,77.50008560358823,0,90,1.0,6,1.7650224377768008e-06
8.11,-0.11102342218909485,77.50025836716078,0,90,1.0,6,5.327157954274505e-06
8.115,-0.2314207883647528,77.5008041613645,0,90,1.0,6,1.6580646690703568e-05
8.12,-0.2029124434754801,77.50247126404172,0,90,1.0,6,5.0953897767348064e-05
8.125,-0.11151350554305876,77.50730689455214,0,90,1.0,6,0.0001506576196318386
8.13,-0.039430666652076896,77.5205069404445,0,90,1.0,6,0.00042282351431970137
8.135,-0.006087703519843621,77.55425950392804,0,90,1.0,6,0.001118752658310044
8.14,0.005350271385530551,77.63489185005264,0,90,1.0,6,0.002781275258817309
8.145,0.010381647827441833,77.81454523632031,0,90,1.0,6,0.0064854687901095545
8.15,0.015115203303506243,78.18735131558363,0,90,1.0,6,0.014172192073889204
8.155,0.021170964062928475,78.90690312906386,0,90,1.0,6,0.0290083119394611
8.16,0.029082821134029553,80.19665089621222,0,90,1.0,6,0.05560104940643751
8.165,0.03923107061708144,82.3394503302051,0,90,1.0,6,0.09978248103515663
8.17,0.051969043308817596,85.63096269117817,0,90,1.0,6,0.1676487152820241
8.175,0.06760532616283861,90.289192542138,0,90,1.0,6,0.26369469159047415
8.18,0.08636519236693461,96.33177188866492,0,90,1.0,6,0.3882839564673179
8.185,0.10834733138818661,103.45891681158211,0,90,1.0,6,0.5352353981769508
8.19,0.1334809643017884,110.9995176060252,0,90,1.0,6,0.6907117032170143
8.195,0.16148868344343945,117.97323238137338,0,90,1.0,6,0.834499636729348
8.2,0.191860907532018,123.28391354021267,0,90,1.0,6,0.9439982173239725
8.205,0.22384764873847726,126.0,0,90,1.0,6,1.0
8.21,0.25647215537198226,125.62557935056012,0,90,1.0,6,0.9922799866094869
8.215,0.2885689161419028,122.25455536305012,0,90,1.0,6,0.9227743373824766
8.22,0.31884566517832524,116.54276293749618,0,90,1.0,6,0.8050054213916737
8.225,0.3459657668955683,109.50994041521005,0,90,1.0,6,0.65999877144763
8.23,0.3686441789190902,102.2541023356066,0,90,1.0,6,0.5103938625898269
8.235,0.3857476379544367,95.68811801633842,0,90,1.0,6,0.3750127426049159
8.24,0.3963882865005728,90.38254464538694,0,90,1.0,6,0.26561947722447304
8.245,0.4,86.54087148351628,0,90,1.0,6,0.1864097213096141
8.25,0.39638828650057273,84.07769605408464,0,90,1.0,6,0.13562259905329155
8.255,0.38574763795443656,82.74233353126162,0,90,1.0,6,0.10808935116003343
8.26,0.36864417891908974,82.23438029234443,0,90,1.0,6,0.09761608850194692
8.265,0.345965766895568,82.28110027391507,0,90,1.0,6,0.09857938709103242
8.27,0.3188456651783249,82.67183539468127,0,90,1.0,6,0.10663578133363437
8.275,0.28856891614190205,83.26062007974744,0,90,1.0,6,0.1187756717473699
8.28,0.2564721553719815,83.95261614042626,0,90,1.0,6,0.13304363176136613
8.285,0.22384764873847685,84.68676847196683,0,90,1.0,6,0.14818079323642946
8.29,0.19186090753201765,85.4214071227837,0,90,1.0,6,0.16332798191306608
8.295,0.16148868344343878,86.12483294458869,0,90,1.0,6,0.17783160710492144
8.3,0.1334809643017881,86.77033771939087,0,90,1.0,6,0.1911409839049663
8.305,0.10834733138818531,87.33426160838053,0,90,1.0,6,0.20276828058516555
8.31,0.08636519236690572,87.79577796985475,0,90,1.0,6,0.21228408185267533
8.315,0.06760532616242629,88.13748090634361,0,90,1.0,6,0.21932950322357964
8.32,0.05196904332202373,88.3462121999223,0,90,1.0,6,0.22363324123551145
8.325,0.03923107185803287,88.41381036420395,0,90,1.0,6,0.22502701781863824
8.33,0.02908287038705761,88.33761061002141,0,90,1.0,6,0.22345588886642093
8.335,0.02117220077308346,88.12061034529336,0,90,1.0,6,0.21898165660398675
8.34,0.0151361834125735,87.77127109249729,0,90,1.0,6,0.21177878541231518
8.345,0.010626454858290009,87.30297037121758,0,90,1.0,6,0.20212310043747594
8.35,0.007326255555493652,86.73315167105918,0,90,1.0,6,0.19037426125895207
8.355,0.004960179211183015,86.082247419666,0,90,1.0,6,0.17695355504465987
8.36,0.0032978759379303545,85.37246744218815,0,90,1.0,6,0.16231891633377635
8.365,0.002153242296767213,84.62655263484623,0,90,1.0,6,0.14693922958445843
8.37,0.001380616732225004,83.86659028643527,0,90,1.0,6,0.13126990281309833
8.375,0.0008693106590991584,83.11297475506075,0,90,1.0,6,0.11573143824867521
8.38,0.000537524815942247,82.38357719417918,0,90,1.0,6,0.10069231328204499
8.385,0.0003263951340288585,81.69316359266416,0,90,1.0,6,0.0864569812920446
8.39,0.00019463030985187395,81.0530746913213,0,90,1.0,6,0.07325927198600617
8.395,0.00011397219555062695,80.47115732979627,0,90,1.0,6,0.06126097587208804
8.4,6.55403863487943e-05,79.95191687655013,0,90,1.0,6,0.05055498714536349
8.405,3.701184389455385e-05,79.4968462077652,0,90,1.0,6,0.0411720867580454
8.41,2.0525516217290957e-05,79.10487892570814,0,90,1.0,6,0.03309028712800279
8.415,1.1178128483661116e-05,78.7729129708691,0,90,1.0,6,0.02624562826534228
8.42,5.978135409912517e-06,78.49635460193645,0,90,1.0,6,0.020543393854359708
8.425,3.1396702713238487e-06,78.26964053277798,0,90,1.0,6,0.01586887696449452
8.43,1.6192875458531019e-06,78.08670624839122,0,90,1.0,6,0.012097036049303579
8.435,8.201353897972012e-07,77.94137962031026,0,90,1.0,7,0.009100610728046552
8.44,4.0791415086824765e-07,77.82768957220783,0,90,1.0,7,0.006756486024903727
8.445,1.9923866938774793e-07,77.74008871515312,0,90,1.0,7,0.004950282786662284
8.45,9.556527981051257e-08,77.67359597640825,0,90,1.0,7,0.0035792984826443475
8.455,4.501406988770349e-08,77.62387005880147,0,90,1.0,7,0.002554021830958191
8.46,0.0,77.58722717633347,0,90,1.0,7,0.0017984984811024924
8.465,0.0,77.56061722705192,0,90,1.0,7,0.0012498397330292983
8.47,0.0,77.54157182578224,0,90,1.0,7,0.0008571510470565349
8.475,0.0,77.5281359065581,0,90,1.0,7,0.0005801217847032107
8.48,0.0,77.5187923680159,0,90,1.0,7,0.0003874715054823622
8.485,0.0,77.51238685021202,0,90,1.0,7,0.00025539897344380554
8.49,0.0,77.50805747644297,0,90,1.0,7,0.00016613353490662431
8.495,0.0,77.50517244622698,0,90,1.0,7,0.00010664837581399748
8.5,0.0,77.50327681336077,0,90,1.0,7,6.756316207773912e-05
8.505,0.0,77.50204864264317,0,90,1.0,7,4.2240054498443365e-05
8.51,0.0,77.50126397793481,0,90,1.0,7,2.606140071777387e-05
8.515,0.0,77.50076961151682,0,90,1.0,7,1.5868278697234457e-05
8.52,0.0,77.50046244746694,0,90,1.0,7,9.534999318435607e-06
8.525,0.0,77.5002742281496,0,90,1.0,7,5.654188651688039e-06
8.53,0.0,77.50016047982528,0,90,1.0,7,3.308862376964489e-06
8.535,0.0,77.50009268034331,0,90,1.0,7,1.910934913702167e-06
8.54,0.0,77.50005282184985,0,90,1.0,7,1.089110306160477e-06
8.545,0.0,77.50002970970641,0,90,1.0,7,6.125712661976406e-07
8.55,0.001684486749771458,77.50001649080649,0,90,1.0,7,3.400166286075884e-07
8.555,0.004172395771277602,77.50000903325379,0,90,1.0,7,1.8625265545207306e-07
8.56,0.009438687428818865,77.50000488320897,0,90,1.0,7,1.0068472109656027e-07
8.565,0.019500507867137046,77.50000260510474,0,90,1.0,7,5.371349979232599e-08
8.57,0.03679496976339974,77.50000137152539,0,90,1.0,7,2.827887393210666e-08
8.575,0.06340728953298436,77.50000071259257,0,90,1.0,7,1.4692630232734841e-08
8.58,0.09979255396093453,77.5000003653739,0,90,1.0,7,7.53348232822261e-09
8.585,0.14343835518453557,77.5000001848811,0,90,1.0,7,3.811981493348979e-09
8.59,0.18829581417209276,77.50000009232224,0,90,1.0,7,1.903551314284151e-09
8.595,0.2257481735193119,77.50000004549659,0,90,1.0,7,9.380740491381112e-10
8.6,0.24718154073554727,77.50000002212637,0,90,1.0,7,4.5621385249161023e-10
8.605,0.24718154074102772,77.5000000106194,0,90,1.0,7,2.1895674734944046e-10
8.61,0.22574817354072055,77.50000000502978,0,90,1.0,7,1.0370671560915221e-10
8.615,0.18829581422840957,77.50000000235103,0,90,1.0,7,4.847483697377947e-11
8.62,0.14343835532456656,77.50000000108449,0,90,1.0,7,2.2360560138885067e-11
8.625,0.09979255431561854,77.50000000049369,0,90,1.0,7,1.0179074078476652e-11
8.63,0.06340729067170194,77.50000000022179,0,90,1.0,7,4.57296514515789e-12
8.635,0.03679497683410042,77.50000000009832,0,90,1.0,7,2.0273176035975807e-12
8.64,0.019500578284482293,77.50000000004302,0,90,1.0,7,8.869331386168343e-13
8.645,0.009439396781978427,77.50000000001857,0,90,1.0,7,3.8296055902616534e-13
8.65,0.004178588733610924,77.50000000000792,0,90,1.0,7,1.6320507373953641e-13
8.655,0.0017299316936037381,77.50000000000333,0,90,1.0,7,6.856371140942822e-14
8.66,0.0008997325756988589,77.50000000000138,0,90,1.0,7,2.842170943040401e-14
8.665,0.001634769674224814,77.50000000000057,0,90,1.0,7,1.1720292548620209e-14
8.67,0.00614904736476635,77.50000000000023,0,90,1.0,7,4.688117019448084e-15
8.675,0.02168080359963608,77.50000000000009,0,90,1.0,7,1.7580438822930315e-15
8.68,0.06433400338904088,77.50000000000003,0,90,1.0,7,5.860146274310105e-16
8.685,0.1593410769217493,77.50000000000001,0,90,1.0,7,2.9300731371550523e-16
8.69,0.3291989194808569,77.5,0,90,1.0,7,0.0
