Time,ECG,Pressure,R_Peaks,mean_hr,hrv_scale,Phase_Bin,Normalized_Pressure
0.0,0.001684486749771458,77.5,0,90,1.0,0,0.0
0.005,0.004172395771277602,77.5,0,90,1.0,0,0.0
0.01,0.009438687428818865,77.5,0,90,1.0,0,0.0
0.015,0.019500507867137046,77.5,0,90,1.0,0,0.0
0.02,0.03679496976339974,77.5,0,90,1.0,0,0.0
0.025,0.06340728953298436,77.5,0,90,1.0,0,0.0
0.03,0.09979255396093453,77.5,0,90,1.0,0,0.0
0.035,0.14343835518453557,77.5,0,90,1.0,0,0.0
0.04,0.18829581417209276,77.5,0,90,1.0,0,0.0
0.045,0.2257481735193119,77.5,0,90,1.0,0,0.0
0.05,0.24718154073554727,77.5,0,90,1.0,0,0.0
0.055,0.24718154074102772,77.5,0,90,1.0,0,0.0
0.06,0.22574817354072055,77.5,0,90,1.0,0,0.0
0.065,0.18829581422840957,77.5,0,90,1.0,0,0.0
0.07,0.14343835532456656,77.5,0,90,1.0,0,0.0
0.075,0.09979255431561854,77.5,0,90,1.0,0,0.0
0.08,0.06340729067170194,77.5,0,90,1.0,0,0.0
0.085,0.03679497683410042,77.5,0,90,1.0,0,0.0
0.09,0.019500578284482293,77.5,0,90,1.0,0,0.0
0.095,0.009439396781978427,77.5,0,90,1.0,0,0.0
0.1,0.004178588733610924,77.5,0,90,1.0,0,0.0
0.105,0.0017299316936037381,77.5,0,90,1.0,0,0.0
0.11,0.0008997325756988589,77.5,0,90,1.0,0,0.0
0.115,0.001634769674224814,77.5,0,90,1.0,0,0.0
0.12,0.00614904736476635,77.5,0,90,1.0,0,0.0
0.125,0.02168080359963608,77.5,0,90,1.0,0,0.0
0.13,0.06433400338904088,77.5,0,90,1.0,0,0.0
0.135,0.1593410769217493,77.5,0,90,1.0,0,0.0
0.14,0.3291989194808569,77.5,0,90,1.0,0,0.0
0.145,0.5672906802982638,77.5,0,90,1.0,0,0.0
0.15,0.815339152120446,77.5,0,90,1.0,0,0.0
0.155,0.9768711246313155,77.5,0,90,1.0,0,0.0
0.16,0.9726380909165361,77.5,0,90,1.0,0,0.0
0.165,0.7921091683291741,77.5,0,90,1.0,0,0.0
0.17,0.49139090102639077,77.5,0,90,1.0,0,0.0
0.175,0.15739335672107918,77.5,0,90,1.0,0,0.0
0.18,-0.11102342218909485,77.5,0,90,1.0,0,0.0
0.185,-0.2314207883647528,77.5,0,90,1.0,0,0.0
0.19,-0.2029124434754801,77.5,0,90,1.0,0,0.0
0.195,-0.11151350554305876,77.5,0,90,1.0,0,0.0
0.2,-0.039430666652076896,77.5,0,90,1.0,0,0.0
0.205,-0.006087703519843621,77.5,0,90,1.0,0,0.0
0.21,0.005350271385530551,77.5,0,90,1.0,0,0.0
0.215,0.010381647827441833,77.5,0,90,1.0,0,0.0
0.22,0.015115203303506243,77.5,0,90,1.0,0,0.0
0.225,0.021170964062928475,77.5,0,90,1.0,0,0.0
0.23,0.029082821134029553,77.5,0,90,1.0,0,0.0
0.235,0.03923107061708144,77.5,0,90,1.0,0,0.0
0.24,0.051969043308817596,77.5,0,90,1.0,0,0.0
0.245,0.06760532616283861,77.5,0,90,1.0,0,0.0
0.25,0.08636519236693461,77.5,0,90,1.0,0,0.0
0.255,0.10834733138818661,77.5,0,90,1.0,0,0.0
0.26,0.1334809643017884,77.5,0,90,1.0,0,0.0
0.265,0.16148868344343945,77.5,0,90,1.0,0,0.0
0.27,0.191860907532018,77.5,0,90,1.0,0,0.0
0.275,0.22384764873847726,77.5,0,90,1.0,0,0.0
0.28,0.25647215537198226,77.5,0,90,1.0,0,0.0
0.285,0.2885689161419028,77.5,0,90,1.0,0,0.0
0.29,0.31884566517832524,77.5,0,90,1.0,0,0.0
0.295,0.3459657668955683,77.5,0,90,1.0,0,0.0
0.3,0.3686441789190902,77.5,0,90,1.0,0,0.0
0.305,0.3857476379544367,77.5,0,90,1.0,0,0.0
0.31,0.3963882865005728,77.5,0,90,1.0,0,0.0
0.315,0.4,77.5,0,90,1.0,0,0.0
0.32,0.39638828650057273,77.5,0,90,1.0,0,0.0
0.325,0.38574763795443656,77.5,0,90,1.0,0,0.0
0.33,0.36864417891908974,77.5,0,90,1.0,0,0.0
0.335,0.345965766895568,77.5,0,90,1.0,0,0.0
0.34,0.3188456651783249,77.5,0,90,1.0,0,0.0
0.345,0.28856891614190205,77.5,0,90,1.0,0,0.0
0.35,0.2564721553719815,77.5,0,90,1.0,0,0.0
0.355,0.22384764873847685,77.5,0,90,1.0,0,0.0
0.36,0.19186090753201765,77.5,0,90,1.0,0,0.0
0.365,0.16148868344343878,77.5,0,90,1.0,0,0.0
0.37,0.1334809643017881,77.5,0,90,1.0,0,0.0
0.375,0.10834733138818531,77.5,0,90,1.0,0,0.0
0.38,0.08636519236690572,77.5,0,90,1.0,0,0.0
0.385,0.06760532616242629,77.5,0,90,1.0,0,0.0
0.39,0.05196904332202373,77.5,0,90,1.0,0,0.0
0.395,0.03923107185803287,77.5,0,90,1.0,0,0.0
0.4,0.02908287038705761,77.5,0,90,1.0,0,0.0
0.405,0.02117220077308346,77.5,0,90,1.0,0,0.0
0.41,0.0151361834125735,77.5,0,90,1.0,0,0.0
0.415,0.010626454858290009,77.5,0,90,1.0,0,0.0
0.42,0.007326255555493652,77.5,0,90,1.0,0,0.0
0.425,0.004960179211183015,77.5,0,90,1.0,0,0.0
0.43,0.0032978759379303545,77.5,0,90,1.0,0,0.0
0.435,0.002153242296767213,77.5,0,90,1.0,0,0.0
0.44,0.001380616732225004,77.5,0,90,1.0,0,0.0
0.445,0.0008693106590991584,77.5,0,90,1.0,0,0.0
0.45,0.000537524815942247,77.5,0,90,1.0,0,0.0
0.455,0.0003263951340288585,77.5,0,90,1.0,0,0.0
0.46,0.00019463030985187395,77.5,0,90,1.0,0,0.0
0.465,0.00011397219555062695,77.5,0,90,1.0,0,0.0
0.47,6.55403863487943e-05,77.5,0,90,1.0,0,0.0
0.475,3.701184389455385e-05,77.5,0,90,1.0,0,0.0
0.48,2.0525516217290957e-05,77.5,0,90,1.0,0,0.0
0.485,1.1178128483661116e-05,77.5,0,90,1.0,0,0.0
0.49,5.978135409912517e-06,77.5,0,90,1.0,0,0.0
0.495,3.1396702713238487e-06,77.5,0,90,1.0,0,0.0
0.5,1.6192875458531019e-06,77.5,0,90,1.0,0,0.0
0.505,8.201353897972012e-07,77.5,0,90,1.0,0,0.0
0.51,4.0791415086824765e-07,77.5,0,90,1.0,0,0.0
0.515,1.9923866938774793e-07,77.5,0,90,1.0,0,0.0
0.52,9.556527981051257e-08,77.5,0,90,1.0,0,0.0
0.525,4.501406988770349e-08,77.5,0,90,1.0,0,0.0
0.53,0.0,77.5,0,90,1.0,0,0.0
0.535,0.0,77.5,0,90,1.0,0,0.0
0.54,0.0,77.5,0,90,1.0,0,0.0
0.545,0.0,77.5,0,90,1.0,0,0.0
0.55,0.0,77.5,0,90,1.0,0,0.0
0.555,0.0,77.5,0,90,1.0,0,0.0
0.56,0.0,77.5,0,90,1.0,0,0.0
0.565,0.0,77.5,0,90,1.0,0,0.0
0.57,0.0,77.5,0,90,1.0,0,0.0
0.575,0.0,77.5,0,90,1.0,0,0.0
0.58,0.0,77.5,0,90,1.0,0,0.0
0.585,0.0,77.5,0,90,1.0,0,0.0
0.59,0.0,77.5,0,90,1.0,0,0.0
0.595,0.0,77.5,0,90,1.0,0,0.0
0.6,0.0,77.5,0,90,1.0,0,0.0
0.605,0.0,77.5,0,90,1.0,0,0.0
0.61,0.0,77.5,0,90,1.0,0,0.0
0.615,0.0,77.5,0,90,1.0,0,0.0
0.62,0.0,77.5,0,90,1.0,0,0.0
0.625,0.0,77.5,0,90,1.0,0,0.0
0.63,0.0,77.5,0,90,1.0,0,0.0
0.635,0.0,77.5,0,90,1.0,0,0.0
0.64,0.0,77.5,0,90,1.0,0,0.0
0.645,0.0,77.5,0,90,1.0,0,0.0
0.65,0.001684486749771458,77.5,0,90,1.0,0,0.0
0.655,0.004172395771277602,77.5,0,90,1.0,0,0.0
0.66,0.009438687428818865,77.5,0,90,1.0,0,0.0
0.665,0.019500507867137046,77.5,0,90,1.0,0,0.0
0.67,0.03679496976339974,77.5,0,90,1.0,0,0.0
0.675,0.06340728953298436,77.5,0,90,1.0,0,0.0
0.68,0.09979255396093453,77.5,0,90,1.0,0,0.0
0.685,0.14343835518453557,77.5,0,90,1.0,0,0.0
0.69,0.18829581417209276,77.5,0,90,1.0,0,0.0
0.695,0.2257481735193119,77.5,0,90,1.0,0,0.0
0.7,0.24718154073554727,77.5,0,90,1.0,0,0.0
0.705,0.24718154074102772,77.5,0,90,1.0,0,0.0
0.71,0.22574817354072055,77.5,0,90,1.0,0,0.0
0.715,0.18829581422840957,77.5,0,90,1.0,0,0.0
0.72,0.14343835532456656,77.5,0,90,1.0,0,0.0
0.725,0.09979255431561854,77.5,0,90,1.0,0,0.0
0.73,0.06340729067170194,77.5,0,90,1.0,0,0.0
0.735,0.03679497683410042,77.5,0,90,1.0,0,0.0
0.74,0.019500578284482293,77.5,0,90,1.0,0,0.0
0.745,0.009439396781978427,77.5,0,90,1.0,0,0.0
0.75,0.004178588733610924,77.5,0,90,1.0,0,0.0
0.755,0.0017299316936037381,77.5,0,90,1.0,0,0.0
0.76,0.0008997325756988589,77.5,0,90,1.0,0,0.0
0.765,0.001634769674224814,77.5,0,90,1.0,0,0.0
0.77,0.00614904736476635,77.5,0,90,1.0,0,0.0
0.775,0.02168080359963608,77.5,0,90,1.0,0,0.0
0.78,0.06433400338904088,77.5,0,90,1.0,0,0.0
0.785,0.1593410769217493,77.5,0,90,1.0,0,0.0
0.79,0.3291989194808569,77.5,0,90,1.0,0,0.0
0.795,0.5672906802982638,77.5,0,90,1.0,0,0.0
0.8,0.815339152120446,77.5,0,90,1.0,0,0.0
0.805,0.9768711246313155,77.50000285188469,1,90,1.0,0,5.88017461343474e-08
0.81,0.9726380909165361,77.500005472104,0,90,1.0,0,1.1282688645449e-07
0.815,0.7921091683291741,77.50001114553572,0,90,1.0,0,2.2980486026370402e-07
0.82,0.49139090102639077,77.50002494746741,0,90,1.0,0,5.143807713241201e-07
0.825,0.15739335672107918,77.50006223014493,0,90,1.0,0,1.283095771835169e-06
0.83,-0.11102342218909485,77.5001692753466,0,90,1.0,0,3.4902133318178834e-06
0.835,-0.2314207883647528,77.50048103204684,0,90,1.0,0,9.918186532683284e-06
0.84,-0.2029124434754801,77.50137207546508,0,90,1.0,0,2.8290215774943847e-05
0.845,-0.11151350554305876,77.50382388761822,0,90,1.0,0,7.884304367473877e-05
0.85,-0.039430666652076896,77.51025255192553,0,90,1.0,0,0.00021139282320685189
0.855,-0.006087703519843621,77.52622730260188,0,90,1.0,0,0.0005407691258119953
0.86,0.005350271385530551,77.56373480349473,0,90,1.0,0,0.0013141196596850547
0.865,0.010381647827441833,77.64679192528084,0,90,1.0,0,0.0030266376346564368
0.87,0.015115203303506243,77.82003264790949,0,90,1.0,0,0.006598611297102794
0.875,0.021170964062928475,78.16002289075324,0,90,1.0,0,0.013608719396974014
0.88,0.029082821134029553,78.78715565839514,0,90,1.0,0,0.026539291925672906
0.885,0.03923107061708144,79.87309703665223,0,90,1.0,0,0.04892983580726239
0.89,0.051969043308817596,81.6357728352696,0,90,1.0,0,0.08527366670658981
0.895,0.06760532616283861,84.31274116702575,0,90,1.0,0,0.14046889004176802
0.9,0.08636519236693461,88.10699478553131,0,90,1.0,0,0.21870092341301678
0.905,0.10834733138818661,93.10840244452054,0,90,1.0,0,0.3218227308148564
0.91,0.1334809643017884,99.20787973600085,0,90,1.0,0,0.44758514919589376
0.915,0.16148868344343945,106.03465479272373,0,90,1.0,0,0.5883433977881181
0.92,0.191860907532018,112.95149073900936,0,90,1.0,0,0.7309585719383372
0.925,0.22384764873847726,119.13158563547512,0,90,1.0,0,0.8583832089788684
0.93,0.25647215537198226,123.71388588995438,0,90,1.0,0,0.9528636265969976
0.935,0.2885689161419028,126.0,0,90,1.0,0,1.0
0.94,0.31884566517832524,125.63168033832994,0,90,1.0,0,0.9924057801717514
0.945,0.3459657668955683,122.68717513676035,0,90,1.0,0,0.9316943327167081
0.95,0.3686441789190902,117.66114684156429,0,90,1.0,0,0.8280648833312224
0.955,0.3857476379544367,111.33557350136091,0,90,1.0,0,0.6976406907497096
0.96,0.3963882865005728,104.5882963007817,0,90,1.0,0,0.5585215732119939
0.965,0.4,98.20380090084146,0,90,1.0,0,0.4268824928008548
0.97,0.39638828650057273,92.74127363349305,0,90,1.0,0,0.31425306460810415
0.975,0.38574763795443656,88.48579720411917,0,90,1.0,0,0.22651128255915806
0.98,0.36864417891908974,85.47562070635212,0,90,1.0,0,0.16444578775983748
0.985,0.345965766895568,83.57616312899322,0,90,1.0,0,0.1252817139998601
0.99,0.3188456651783249,82.5659171942369,0,90,1.0,0,0.10445190091210109
0.995,0.28856891614190205,82.2077740060747,0,90,1.0,0,0.09706750527989073
1.0,0.2564721553719815,82.29359471173308,0,90,1.0,0,0.09883700436563048
1.005,0.22384764873847685,82.66255827345258,0,90,1.0,0,0.10644450048355825
1.01,0.19186090753201765,83.20095515387028,0,90,1.0,0,0.11754546709010891
1.015,0.16148868344343878,83.83258540626372,0,90,1.0,0,0.13056877126316943
1.02,0.1334809643017881,84.50688720883298,0,90,1.0,0,0.1444719012130511
1.025,0.10834733138818531,85.18879930614817,0,90,1.0,0,0.1585319444566633
1.03,0.08636519236690572,85.85174343024126,0,90,1.0,0,0.1722008954688919
1.035,0.06760532616242629,86.47356190947447,0,90,1.0,0,0.1850218950407107
1.04,0.05196904332202373,87.0346351717773,0,90,1.0,0,0.19659041591293394
1.045,0.03923107185803287,87.51735949791845,0,90,1.0,0,0.20654349480244225
1.05,0.02908287038705761,87.90635065364523,0,90,1.0,0,0.2145639310029945
1.055,0.02117220077308346,88.1889541011337,0,90,1.0,0,0.22039080620894233
1.06,0.0151361834125735,88.35580849564253,0,90,1.0,0,0.22383110300293885
1.065,0.010626454858290009,88.4013164549309,0,90,1.0,0,0.22476941144187437
1.07,0.007326255555493652,88.32394120303454,0,90,1.0,0,0.2231740454233925
1.075,0.004960179211183015,88.12628788072502,0,90,1.0,0,0.21909871919020651
1.08,0.0032978759379303545,87.8149564468404,0,90,1.0,0,0.21267951436784327
1.085,0.002153242296767213,87.40017534035806,0,90,1.0,0,0.20412732660532085
1.09,0.001380616732225004,86.89524350085946,0,90,1.0,0,0.1937163608424632
1.095,0.0008693106590991584,86.31582296936395,0,90,1.0,0,0.18176954576008145
1.1,0.000537524815942247,85.67913444059066,0,90,1.0,0,0.16864194722867337
1.105,0.0003263951340288585,85.00311320618148,0,90,1.0,0,0.15470336507590685
1.11,0.00019463030985187395,84.3055827268295,0,90,1.0,0,0.1403212933366907
1.115,0.00011397219555062695,83.60349793607864,0,90,1.0,0,0.12584531826966266
1.12,6.55403863487943e-05,82.91230113964602,0,90,1.0,0,0.11159383793084575
1.125,3.701184389455385e-05,82.24542123587032,0,90,1.0,0,0.09784373682206855
1.13,2.0525516217290957e-05,81.613933357956,0,90,1.0,0,0.08482336820527836
1.135,1.1178128483661116e-05,81.0263823663777,0,90,1.0,0,0.07270891477067429
1.14,5.978135409912517e-06,80.48876119719017,0,90,1.0,0,0.06162394221010664
1.145,3.1396702713238487e-06,80.00462491990231,0,90,1.0,0,0.05164175092582087
1.15,1.6192875458531019e-06,79.57531413717051,0,90,1.0,0,0.042789982209701205
1.155,8.201353897972012e-07,79.20025733794617,0,90,1.0,0,0.035056852328787
1.16,4.0791415086824765e-07,78.8773208986497,0,90,1.0,0,0.028398369044323704
1.165,1.9923866938774793e-07,78.60317721354771,0,90,1.0,0,0.02274592192881876
1.17,9.556527981051257e-08,78.37366531514834,0,90,1.0,0,0.01801371783811018
1.175,4.501406988770349e-08,78.18412359953327,0,90,1.0,0,0.014105641227490006
1.18,0.0,78.02968017202754,0,90,1.0,0,0.010921240660361643
1.185,0.0,77.90549221983429,0,90,1.0,0,0.008360664326480135
1.19,0.0,77.80693117491525,0,90,1.0,0,0.0063284778333041036
1.195,0.0,77.72971488846713,0,90,1.0,0,0.00473638945293049
1.2,0.0,77.66999140059843,0,90,1.0,0,0.003504977331926474
1.205,0.0,77.624381109498,0,90,1.0,1,0.002564558958721715
1.21,0.0,77.58998529958369,0,90,1.0,1,0.001855367001725527
1.215,0.0,77.56436923879633,0,90,1.0,1,0.001327200799924356
1.22,0.0,77.54552760933194,0,90,1.0,1,0.0009387135944730149
1.225,0.0,77.53183911478689,0,90,1.0,1,0.0006564765935441408
1.23,0.0,77.52201591751752,0,90,1.0,1,0.0004539364436602307
1.235,0.0,77.51505227902882,0,90,1.0,1,0.00031035626863550747
1.24,0.0,77.51017553839584,0,90,1.0,1,0.00020980491537818461
1.245,0.0,77.50680146081736,0,90,1.0,1,0.0001402363055125154
1.25,0.0,77.5044950721781,0,90,1.0,1,9.268190057942428e-05
1.255,0.0,77.50293738454126,0,90,1.0,1,6.056462971659852e-05
1.26,0.0,77.5018979055961,0,90,1.0,1,3.9132074146298636e-05
1.265,0.0,77.50121248974423,0,90,1.0,1,2.499978854089444e-05
1.27,0.0,77.50076589847964,0,90,1.0,1,1.5791721229734977e-05
1.275,0.0,77.50047835906365,0,90,1.0,1,9.863073477303842e-06
1.28,0.0,77.50029541087085,0,90,1.0,1,6.090945790679284e-06
1.285,0.0,77.50018038009229,0,90,1.0,1,3.7191771605897154e-06
1.29,0.0,77.50010890314022,0,90,1.0,1,2.2454255714627526e-06
1.295,0.0,77.5000650102546,0,90,1.0,1,1.3404176206560017e-06
1.3,0.0,77.50003837187288,0,90,1.0,1,7.911726366100336e-07
1.305,0.0,77.50002239410928,0,90,1.0,1,4.617342119555482e-07
1.31,0.0,77.500012922432,0,90,1.0,1,2.6644189703577083e-07
1.315,0.0,77.50000737300255,0,90,1.0,1,1.520206710571899e-07
1.32,0.001684486749771458,77.50000415943343,0,90,1.0,1,8.576151403242865e-08
1.325,0.004172395771277602,77.50000232013706,0,90,1.0,1,4.783787745772006e-08
1.33,0.009438687428818865,77.50000127962515,0,90,1.0,1,2.6384023763010605e-08
1.335,0.019500507867137046,77.50000069781701,0,90,1.0,1,1.4387979687394222e-08
1.34,0.03679496976339974,77.50000037626171,0,90,1.0,1,7.75797339771351e-09
1.345,0.06340728953298436,77.5000002005987,0,90,1.0,1,4.136055786523112e-09
1.35,0.09979255396093453,77.50000010574405,0,90,1.0,1,2.1802896899129167e-09
1.355,0.14343835518453557,77.50000005511545,0,90,1.0,1,1.1364010305507842e-09
1.36,0.18829581417209276,77.50000002840406,0,90,1.0,1,5.856507123473758e-10
1.365,0.2257481735193119,77.50000001447363,0,90,1.0,1,2.984253119534186e-10
1.37,0.24718154073554727,77.50000000729229,0,90,1.0,1,1.503564100257978e-10
1.375,0.24718154074102772,77.50000000363279,0,90,1.0,1,7.490292464166318e-11
1.38,0.22574817354072055,77.50000000178939,0,90,1.0,1,3.689460192111527e-11
1.385,0.18829581422840957,77.50000000087148,0,90,1.0,1,1.7968673513603357e-11
1.39,0.14343835532456656,77.50000000041966,0,90,1.0,1,8.652798981332584e-12
1.395,0.09979255431561854,77.50000000019982,0,90,1.0,1,4.119975838153719e-12
1.4,0.06340729067170194,77.50000000009408,0,90,1.0,1,1.9397084167966446e-12
1.405,0.03679497683410042,77.50000000004378,0,90,1.0,1,9.027555335574716e-13
1.41,0.019500578284482293,77.50000000002015,0,90,1.0,1,4.154843708485864e-13
1.415,0.009439396781978427,77.50000000000917,0,90,1.0,1,1.8898971734650088e-13
1.42,0.004178588733610924,77.50000000000412,0,90,1.0,1,8.497212097749652e-14
1.425,0.0017299316936037381,77.50000000000183,0,90,1.0,1,3.779794346930017e-14
1.43,0.0008997325756988589,77.50000000000081,0,90,1.0,1,1.67014168817838e-14
1.435,0.001634769674224814,77.50000000000036,0,90,1.0,1,7.32518284288763e-15
1.44,0.00614904736476635,77.50000000000016,0,90,1.0,1,3.2230804508705575e-15
1.445,0.02168080359963608,77.50000000000006,0,90,1.0,1,1.172029254862021e-15
1.45,0.06433400338904088,77.50000000000003,0,90,1.0,1,5.860146274310105e-16
1.455,0.1593410769217493,77.50000000000001,0,90,1.0,1,2.9300731371550523e-16
1.46,0.3291989194808569,77.5,0,90,1.0,1,0.0
1.465,0.5672906802982638,77.5,0,90,1.0,1,0.0
1.47,0.815339152120446,77.5,0,90,1.0,1,0.0
1.475,0.9768711246313155,77.50000285700571,1,90,1.0,1,5.890733424991792e-08
1.48,0.9726380909165361,77.5000055981037,0,90,1.0,1,1.1542481851411701e-07
1.485,0.7921091683291741,77.50001170193522,0,90,1.0,1,2.412770148805872e-07
1.49,0.49139090102639077,77.5000270882034,0,90,1.0,1,5.585196576478281e-07
1.495,0.15739335672107918,77.50007030382385,0,90,1.0,1,1.4495633782883385e-06
1.5,-0.11102342218909485,77.50019904185636,0,90,1.0,1,4.1039558012827685e-06
1.505,-0.2314207883647528,77.50058607134292,0,90,1.0,1,1.2083945214904703e-05
1.51,-0.2029124434754801,77.50172157287263,0,90,1.0,1,3.549634788918851e-05
1.515,-0.11151350554305876,77.50491227303426,0,90,1.0,1,0.00010128398008792904
1.52,-0.039430666652076896,77.51341548520728,0,90,1.0,1,0.00027660794241804996
1.525,-0.006087703519843621,77.53479767151332,0,90,1.0,1,0.0007174777631611781
1.53,0.005350271385530551,77.58538694566,0,90,1.0,1,0.001760555580618663
1.535,0.010381647827441833,77.69780421918405,0,90,1.0,1,0.004078437508949487
1.54,0.015115203303506243,77.93212374321509,0,90,1.0,1,0.008909767901341991
1.545,0.021170964062928475,78.38971621807644,0,90,1.0,1,0.018344664290235957
1.55,0.029082821134029553,79.22592550239746,0,90,1.0,1,0.035586092832937295
1.555,0.03923107061708144,80.65382694330745,0,90,1.0,1,0.06502735965582372
1.56,0.051969043308817596,82.92814688244911,0,90,1.0,1,0.1119205542773013
1.565,0.06760532616283861,86.29905479142072,0,90,1.0,1,0.1814238101323859
1.57,0.08636519236693461,90.93310591840898,0,90,1.0,1,0.27697125604966977
1.575,0.10834733138818661,96.81375736041753,0,90,1.0,1,0.3982218012457222
1.58,0.1334809643017884,103.65218979533569,0,90,1.0,1,0.5392204081512513
1.585,0.16148868344343945,110.85098906485283,0,90,1.0,1,0.6876492590691304
1.59,0.191860907532018,117.55776115670236,0,90,1.0,1,0.8259332197258218
1.595,0.22384764873847726,122.81835656489098,0,90,1.0,1,0.9343991044307418
1.6,0.25647215537198226,125.79775358536652,0,90,1.0,1,0.9958299708322994
1.605,0.2885689161419028,126.0,0,90,1.0,1,1.0
1.61,0.31884566517832524,123.40809829602208,0,90,1.0,1,0.9465587277530325
1.615,0.3459657668955683,118.49003065599916,0,90,1.0,1,0.8451552712577147
1.62,0.3686441789190902,112.06852813875727,0,90,1.0,1,0.71275315750015
1.625,0.3857476379544367,105.10477932098621,0,90,1.0,1,0.5691707076492002
1.63,0.3963882865005728,98.47443100842273,0,90,1.0,1,0.4324624950190253
1.635,0.4,92.8066072912793,0,90,1.0,1,0.3156001503356558
1.64,0.39638828650057273,88.42148372327156,0,90,1.0,1,0.2251852314076611
1.645,0.38574763795443656,85.35990241659837,0,90,1.0,1,0.16205984364120357
1.65,0.36864417891908974,83.46944358620377,0,90,1.0,1,0.12308131105574777
1.655,0.345965766895568,82.50409108932574,0,90,1.0,1,0.1031771358623864
1.66,0.3188456651783249,82.20538889595129,0,90,1.0,1,0.09701832775157294
1.665,0.28856891614190205,82.35118221387862,0,90,1.0,1,0.10002437554388899
1.67,0.2564721553719815,82.77370137387766,0,90,1.0,1,0.10873611080160117
1.675,0.22384764873847685,83.35697885227354,0,90,1.0,1,0.12076245056234107
1.68,0.19186090753201765,84.0246919330554,0,90,1.0,1,0.13452973057846174
1.685,0.16148868344343878,84.72653191551647,0,90,1.0,1,0.1490006580518861
1.69,0.1334809643017881,85.42725699479512,0,90,1.0,1,0.16344859783082713
1.695,0.10834733138818531,86.09955203844497,0,90,1.0,1,0.17731035130814368
1.7,0.08636519236690572,86.72019234262434,0,90,1.0,1,0.1901070586108112
1.705,0.06760532616242629,87.26848870696234,0,90,1.0,1,0.20141213828788337
1.71,0.05196904332202373,87.72606423286395,0,90,1.0,1,0.21084668521368966
1.715,0.03923107185803287,88.07728034294114,0,90,1.0,1,0.2180882544936317
1.72,0.02908287038705761,88.30988433026353,0,90,1.0,1,0.22288421299512431
1.725,0.02117220077308346,88.41562988670005,0,90,1.0,1,0.2250645337463927
1.73,0.0151361834125735,88.39073171494468,0,90,1.0,1,0.22455116938030265
1.735,0.010626454858290009,88.23608061227844,0,90,1.0,1,0.2213624868511019
1.74,0.007326255555493652,87.95718762032197,0,90,1.0,1,0.2156121158829273
1.745,0.004960179211183015,87.56385719193653,0,90,1.0,1,0.20750221014302134
1.75,0.0032978759379303545,87.06961485035202,0,90,1.0,1,0.19731164639901083
1.755,0.002153242296767213,86.49093547163766,0,90,1.0,1,0.18538011281727124
1.76,0.001380616732225004,85.84633343081921,0,90,1.0,1,0.17208934908905596
1.765,0.0008693106590991584,85.15538449808108,0,90,1.0,1,0.15784297934187785
1.77,0.000537524815942247,84.43775108996621,0,90,1.0,1,0.14304641422610748
1.775,0.0003263951340288585,83.71227751571944,0,90,1.0,1,0.12808819620040074
1.78,0.00019463030985187395,82.99621117057644,0,90,1.0,1,0.11332394166136998
1.785,0.00011397219555062695,82.30459074772966,0,90,1.0,1,0.09906372675731262
1.79,6.55403863487943e-05,81.64982534565863,0,90,1.0,1,0.08556340918883767
1.795,3.701184389455385e-05,81.04147079905813,0,90,1.0,1,0.0730200164754254
1.8,2.0525516217290957e-05,80.4861934573874,0,90,1.0,1,0.06157099912138971
1.805,1.1178128483661116e-05,79.98789840738041,0,90,1.0,1,0.05129687437897759
1.81,5.978135409912517e-06,79.54798972143004,0,90,1.0,1,0.04222659219443386
1.815,3.1396702713238487e-06,79.1657251050575,0,90,1.0,1,0.03434484752695885
1.82,1.6192875458531019e-06,78.83862619104653,0,90,1.0,1,0.027600540021577923
1.825,8.201353897972012e-07,78.5629081394647,0,90,1.0,1,0.021915631741540122
1.83,4.0791415086824765e-07,78.33389731528789,0,90,1.0,1,0.017193759078100723
1.835,1.9923866938774793e-07,78.14641264967727,0,90,1.0,1,0.013328095869634505
1.84,9.556527981051257e-08,77.9950938659425,0,90,1.0,1,0.010208120947267908
1.845,4.501406988770349e-08,77.87466719823882,0,90,1.0,1,0.007725096870903608
1.85,0.0,77.78014587226397,0,90,1.0,1,0.00577620355183448
1.855,0.0,77.7069680038797,0,90,1.0,1,0.004267381523292672
1.86,0.0,77.651078485453,0,90,1.0,1,0.0031150203186185305
1.865,0.0,77.6089638555516,0,90,1.0,1,0.0022466774340534693
1.87,0.0,77.57765022693218,0,90,1.0,1,0.0016010356068490341
1.875,0.0,77.55467432434818,0,90,1.0,1,0.0011273056566635917
1.88,0.0,77.53803685039938,0,90,1.0,1,0.0007842649566882334
1.885,0.0,77.52614605077103,0,90,1.0,1,0.0005390938303305668
1.89,0.0,77.5177577558228,0,90,1.0,1,0.0003661392953154532
1.895,0.0,77.51191654857978,0,90,1.0,1,0.000245702032572712
1.9,0.0,77.507901204888,0,90,1.0,1,0.0001629114409896965
1.905,0.0,77.5051762660216,0,90,1.0,1,0.00010672713446612442
1.91,0.0,77.50335058222204,0,90,1.0,1,6.908416952660915e-05
1.915,0.0,77.50214291231161,0,90,1.0,1,4.4183759002311787e-05
1.92,0.0,77.50135415677913,0,90,1.0,1,2.792075833256313e-05
1.925,0.0,77.50084550060859,0,90,1.0,1,1.7433002238989895e-05
1.93,0.0,77.50052160209725,0,90,1.0,1,1.075468241754972e-05
1.935,0.0,77.50031793999378,0,90,1.0,1,6.555463789233549e-06
1.94,0.0,77.50019148352861,0,90,1.0,1,3.948113991960669e-06
1.945,0.0,77.50011394574456,0,90,1.0,1,2.3493967950292517e-06
1.95,0.0,77.50006699543745,0,90,1.0,1,1.381349225776202e-06
1.955,0.0,77.50003891999467,0,90,1.0,1,8.024741168107361e-07
1.96,0.0,77.50002233987531,0,90,1.0,1,4.6061598587565985e-07
1.965,0.0,77.5000126697821,0,90,1.0,1,2.6123262050673147e-07
1.97,0.001684486749771458,77.50000709966693,0,90,1.0,1,1.4638488517110878e-07
1.975,0.004172395771277602,77.50000393085688,0,90,1.0,1,8.104859540891112e-08
1.98,0.009438687428818865,77.50000215038844,0,90,1.0,1,4.433790597441029e-08
1.985,0.019500507867137046,77.50000116232353,0,90,1.0,1,2.3965433568911375e-08
1.99,0.03679496976339974,77.50000062075121,0,90,1.0,1,1.2798993992939508e-08
1.995,0.06340728953298436,77.50000032755825,0,90,1.0,1,6.7537784391404165e-09
2.0,0.09979255396093453,77.50000017078115,0,90,1.0,1,3.52126080870971e-09
2.005,0.14343835518453557,77.50000008797753,0,90,1.0,1,1.8139696022472824e-09
2.01,0.18829581417209276,77.50000004478,0,90,1.0,1,9.232988623366931e-10
2.015,0.2257481735193119,77.50000002252042,0,90,1.0,1,4.6433865229362745e-10
2.02,0.24718154073554727,77.50000001119051,0,90,1.0,1,2.3073212527303918e-10
2.025,0.24718154074102772,77.50000000549419,0,90,1.0,1,1.1328219462137492e-10
2.03,0.22574817354072055,77.50000000266525,0,90,1.0,1,5.495352168734301e-11
2.035,0.18829581422840957,77.50000000127747,0,90,1.0,1,2.6339599459141628e-11
2.04,0.14343835532456656,77.50000000060498,0,90,1.0,1,1.247390735949649e-11
2.045,0.09979255431561854,77.5000000002831,0,90,1.0,1,5.83699869652658e-12
2.05,0.06340729067170194,77.50000000013088,0,90,1.0,1,2.698597359319803e-12
2.055,0.03679497683410042,77.50000000005979,0,90,1.0,1,1.2326817688011305e-12
2.06,0.019500578284482293,77.50000000002699,0,90,1.0,1,5.564208887457445e-13
2.065,0.009439396781978427,77.50000000001204,0,90,1.0,1,2.481771947170329e-13
2.07,0.004178588733610924,77.5000000000053,0,90,1.0,1,1.0929172801588345e-13
2.075,0.0017299316936037381,77.5000000000023,0,90,1.0,1,4.746718482191185e-14
2.08,0.0008997325756988589,77.500000000001,0,90,1.0,1,2.0510511960085366e-14
2.085,0.001634769674224814,77.50000000000043,0,90,1.0,1,8.790219411465157e-15
2.09,0.00614904736476635,77.50000000000017,0,90,1.0,1,3.516087764586063e-15
2.095,0.02168080359963608,77.50000000000007,0,90,1.0,1,1.465036568577526e-15
2.1,0.06433400338904088,77.50000000000003,0,90,1.0,1,5.860146274310105e-16
2.105,0.1593410769217493,77.50000000000001,0,90,1.0,1,2.9300731371550523e-16
2.11,0.3291989194808569,77.5,0,90,1.0,1,0.0
2.115,0.5672906802982638,77.5,0,90,1.0,1,0.0
2.12,0.815339152120446,77.5,0,90,1.0,1,0.0
2.125,0.9768711246313155,77.50000284150002,1,90,1.0,1,5.858762928180591e-08
2.13,0.9726380909165361,77.5000055087254,0,90,1.0,1,1.1358196688794948e-07
2.135,0.7921091683291741,77.50001136395807,0,90,1.0,1,2.3430841373428661e-07
2.14,0.49139090102639077,77.50002585890292,0,90,1.0,1,5.331732559967612e-07
2.145,0.15739335672107918,77.50006577270929,0,90,1.0,1,1.356138335905626e-06
2.15,-0.11102342218909485,77.50018247875063,0,90,1.0,1,3.76244846661487e-06
2.155,-0.2314207883647528,77.50052776496497,0,90,1.0,1,1.0881751855078582e-05
2.16,-0.2029124434754801,77.50152756139154,0,90,1.0,1,3.1496111165786474e-05
2.165,-0.11151350554305876,77.50430755613382,0,90,1.0,1,8.88155903881271e-05
2.17,-0.039430666652076896,77.5116563600092,0,90,1.0,1,0.00024033731977727622
2.175,-0.006087703519843621,77.53002739545968,0,90,1.0,1,0.0006191215558697577
2.18,0.005350271385530551,77.57333096905042,0,90,1.0,1,0.0015119787433075698
2.185,0.010381647827441833,77.66940490223725,0,90,1.0,1,0.0034928845822112743
2.19,0.015115203303506243,77.86976747664984,0,90,1.0,1,0.007624071683501874
2.195,0.021170964062928475,78.26211431813414,0,90,1.0,1,0.01571369728111625
2.2,0.029082821134029553,78.98267513398078,0,90,1.0,1,0.03057062131919128
2.205,0.03923107061708144,80.22218766058688,0,90,1.0,1,0.05612758063065738
2.21,0.051969043308817596,82.21612057642412,0,90,1.0,1,0.09723959951389932
2.215,0.06760532616283861,85.20932922752098,0,90,1.0,1,0.15895524180455634
2.22,0.08636519236693461,89.39039798617173,0,90,1.0,1,0.24516284507570588
2.225,0.10834733138818661,94.8028006534978,0,90,1.0,1,0.35675877636077935
2.23,0.1334809643017884,101.25612781731577,0,90,1.0,1,0.48981706839826333
2.235,0.16148868344343945,108.27370857382006,0,90,1.0,1,0.6345094551303105
2.24,0.191860907532018,115.11341104223824,0,90,1.0,1,0.775534248293572
2.245,0.22384764873847726,120.88000833622657,0,90,1.0,1,0.8944331615716817
2.25,0.25647215537198226,124.71329532894552,0,90,1.0,1,0.9734700067823818
2.255,0.2885689161419028,126.0,0,90,1.0,1,1.0
2.26,0.31884566517832524,124.53834900968857,0,90,1.0,1,0.9698628661791459
2.265,0.3459657668955683,120.59493192202842,0,90,1.0,1,0.8885552973614108
2.27,0.3686441789190902,114.83222413300682,0,90,1.0,1,0.7697365800619963
2.275,0.3857476379544367,108.13422420586735,0,90,1.0,1,0.6316334887807702
2.28,0.3963882865005728,101.3936098555063,0,90,1.0,1,0.492651749598068
2.285,0.4,95.33064507931,0,90,1.0,1,0.3676421665837114
2.29,0.39638828650057273,90.39185276201252,0,90,1.0,1,0.2658113971548973
2.295,0.38574763795443656,86.73955542986523,0,90,1.0,1,0.19050629752299453
2.3,0.36864417891908974,84.31059562557269,0,90,1.0,1,0.14042465207366367
2.305,0.345965766895568,82.9065602268215,0,90,1.0,1,0.11147546859425768
2.31,0.3188456651783249,82.28033336831763,0,90,1.0,1,0.09856357460448717
2.315,0.28856891614190205,82.19778113694667,0,90,1.0,1,0.09686146674116852
2.32,0.2564721553719815,82.46927305071628,0,90,1.0,1,0.1024592381590986
2.325,0.22384764873847685,82.95682150774277,0,90,1.0,1,0.11251178366479946
2.33,0.19186090753201765,83.56687754099825,0,90,1.0,1,0.12509025857728348
2.335,0.16148868344343878,84.23787322707521,0,90,1.0,1,0.1389252211768085
2.34,0.1334809643017881,84.92832444149448,0,90,1.0,1,0.15316132869060786
2.345,0.10834733138818531,85.60801881012263,0,90,1.0,1,0.16717564556953876
2.35,0.08636519236690572,86.25260772478875,0,90,1.0,1,0.18046613865543806
2.355,0.06760532616242629,86.84089403560439,0,90,1.0,1,0.19259575331143078
2.36,0.05196904332202373,87.35388295636871,0,90,1.0,1,0.20317284446121045
2.365,0.03923107185803287,87.77481720348132,0,90,1.0,1,0.21185190110270763
2.37,0.02908287038705761,88.08966243795557,0,90,1.0,1,0.21834355542176428
2.375,0.02117220077308346,88.28771551986046,0,90,1.0,1,0.22242712412083412
2.38,0.0151361834125735,88.36214631799686,0,90,1.0,1,0.22396177975251258
2.385,0.010626454858290009,88.31036736727964,0,90,1.0,1,0.22289417252122967
2.39,0.007326255555493652,88.13417633763018,0,90,1.0,1,0.21926136778618927
2.395,0.004960179211183015,87.83965035915766,0,90,1.0,1,0.213188667199127
2.4,0.0032978759379303545,87.43679744267308,0,90,1.0,1,0.20488242149841407
2.405,0.002153242296767213,86.9389917989111,0,90,1.0,1,0.1946183876064145
2.41,0.001380616732225004,86.36223716698538,0,90,1.0,2,0.18272653952547177
2.415,0.0008693106590991584,85.72431461211428,0,90,1.0,2,0.16957349715699555
2.42,0.000537524815942247,85.04387789533241,0,90,1.0,2,0.15554387413056525
2.425,0.0003263951340288585,84.33956014461978,0,90,1.0,2,0.14102185865195427
2.43,0.00019463030985187395,83.62915046826862,0,90,1.0,2,0.1263742364591468
2.435,0.00011397219555062695,82.92888923969679,0,90,1.0,2,0.11193586061230489
2.44,6.55403863487943e-05,82.25291740154772,0,90,1.0,2,0.09799829693912823
2.445,3.701184389455385e-05,81.61289990625842,0,90,1.0,2,0.08480205992285401
2.45,2.0525516217290957e-05,81.01782800176962,0,90,1.0,2,0.07253253611896114
2.455,1.1178128483661116e-05,80.47399100328275,0,90,1.0,2,0.0613194021295412
2.46,5.978135409912517e-06,79.9850966673004,0,90,1.0,2,0.05123910654227622
2.465,3.1396702713238487e-06,79.55251108450634,0,90,1.0,2,0.04231981617538835
2.47,1.6192875458531019e-06,79.17558445710158,0,90,1.0,2,0.034548133136115024
2.475,8.201353897972012e-07,78.85202811529082,0,90,1.0,2,0.027876868356511774
2.48,4.0791415086824765e-07,78.57831019218708,0,90,1.0,2,0.022233199838908767
2.485,1.9923866938774793e-07,78.35004180586505,0,90,1.0,2,0.01752663517247519
2.49,9.556527981051257e-08,78.16233155760507,0,90,1.0,2,0.013656320775362298
2.495,4.501406988770349e-08,78.01009280593172,0,90,1.0,2,0.01051737744189113
2.5,0.0,77.88829476616297,0,90,1.0,2,0.008006077652844772
2.505,0.0,77.79215442099877,0,90,1.0,2,0.006023802494820002
2.51,0.0,77.71727110655786,0,90,1.0,2,0.004479816630058962
2.515,0.0,77.65970925268655,0,90,1.0,2,0.003292974282196985
2.52,0.0,77.61603707332719,0,90,1.0,2,0.0023925169758183882
2.525,0.0,77.58333012691409,0,90,1.0,2,0.0017181469466823053
2.53,0.0,77.55914879585012,0,90,1.0,2,0.0012195628010334112
2.535,0.0,77.54149811404007,0,90,1.0,2,0.0008556312173209687
2.54,0.0,77.52877725728622,0,90,1.0,2,0.0005933455110561316
2.545,0.0,77.51972463735181,0,90,1.0,2,0.0004066935536456509
2.55,0.0,77.51336310074132,0,90,1.0,2,0.00027552785033640716
2.555,0.0,77.50894837231351,0,90,1.0,2,0.0001845025219280774
2.56,0.0,77.50592269592266,0,90,1.0,2,0.00012211744170440163
2.565,0.0,77.50387465835057,0,90,1.0,2,7.988986289831832e-05
2.57,0.0,77.50250545138663,0,90,1.0,2,5.1658791476807595e-05
2.575,0.0,77.50160131633649,0,90,1.0,2,3.301683168021236e-05
2.58,0.0,77.50101159546982,0,90,1.0,2,2.0857638552975802e-05
2.585,0.0,77.5006316481158,0,90,1.0,2,1.3023672490711779e-05
2.59,0.0,77.50038983616128,0,90,1.0,2,8.037858995371654e-06
2.595,0.0,77.50023780863849,0,90,1.0,2,4.903270896659603e-06
2.6,0.0,77.50014338764066,0,90,1.0,2,2.9564461992214493e-06
2.605,0.0,77.50008545439401,0,90,1.0,2,1.7619462682629541e-06
2.61,0.0,77.5000503379664,0,90,1.0,2,1.0378962144255338e-06
2.615,0.0,77.50002930863025,0,90,1.0,2,6.04301654562995e-07
2.62,0.0,77.50001686684932,0,90,1.0,2,3.47770089106656e-07
2.625,0.0,77.50000959424924,0,90,1.0,2,1.9781957185729233e-07
2.63,0.001684486749771458,77.50000539419466,0,90,1.0,2,1.1122050843190777e-07
2.635,0.004172395771277602,77.50000299764929,0,90,1.0,2,6.180720184911667e-08
2.64,0.009438687428818865,77.50000164654504,0,90,1.0,2,3.394938235689233e-08
2.645,0.019500507867137046,77.50000089393305,0,90,1.0,2,1.8431609246878916e-08
2.65,0.03679496976339974,77.50000047970579,0,90,1.0,2,9.890841025930826e-09
2.655,0.06340728953298436,77.5000002544389,0,90,1.0,2,5.246162926755695e-09
2.66,0.09979255396093453,77.50000013339228,0,90,1.0,2,2.750356222265706e-09
2.665,0.14343835518453557,77.50000006912201,0,90,1.0,2,1.4251960711243151e-09
2.67,0.18829581417209276,77.50000003540305,0,90,1.0,2,7.299597444253993e-10
2.675,0.2257481735193119,77.5000000179227,0,90,1.0,2,3.695402380433678e-10
2.68,0.24718154073554727,77.5000000089682,0,90,1.0,2,1.8491134854689477e-10
2.685,0.24718154074102772,77.50000000443552,0,90,1.0,2,9.145402877151092e-11
2.69,0.22574817354072055,77.50000000216832,0,90,1.0,2,4.4707641941339216e-11
2.695,0.18829581422840957,77.50000000104771,0,90,1.0,2,2.160225721098934e-11
2.7,0.14343835532456656,77.50000000050038,0,90,1.0,2,1.0317080523236655e-11
2.705,0.09979255431561854,77.5000000002362,0,90,1.0,2,4.870074561265413e-12
2.71,0.06340729067170194,77.5000000001102,0,90,1.0,2,2.272271717863743e-12
2.715,0.03679497683410042,77.50000000005083,0,90,1.0,2,1.0480871611603622e-12
2.72,0.019500578284482293,77.50000000002316,0,90,1.0,2,4.776019213562735e-13
2.725,0.009439396781978427,77.50000000001044,0,90,1.0,2,2.1536037558089634e-13
2.73,0.004178588733610924,77.50000000000465,0,90,1.0,2,9.581339158497021e-14
2.735,0.0017299316936037381,77.50000000000205,0,90,1.0,2,4.2193053175032755e-14
2.74,0.0008997325756988589,77.5000000000009,0,90,1.0,2,1.845946076407683e-14
2.745,0.001634769674224814,77.50000000000038,0,90,1.0,2,7.911197470318642e-15
2.75,0.00614904736476635,77.50000000000016,0,90,1.0,2,3.2230804508705575e-15
2.755,0.02168080359963608,77.50000000000007,0,90,1.0,2,1.465036568577526e-15
2.76,0.06433400338904088,77.50000000000003,0,90,1.0,2,5.860146274310105e-16
2.765,0.1593410769217493,77.50000000000001,0,90,1.0,2,2.9300731371550523e-16
2.77,0.3291989194808569,77.5,0,90,1.0,2,0.0
2.775,0.5672906802982638,77.5,0,90,1.0,2,0.0
2.78,0.815339152120446,77.5,0,90,1.0,2,0.0
2.785,0.9768711246313155,77.5000028575978,1,90,1.0,2,5.8919542399643876e-08
2.79,0.9726380909165361,77.50000575945259,0,90,1.0,2,1.1875159982045045e-07
2.795,0.7921091683291741,77.50001247170877,0,90,1.0,2,2.571486344639141e-07
2.8,0.49139090102639077,77.5000302285082,0,90,1.0,2,6.232682101925974e-07
2.805,0.15739335672107918,77.50008277928515,0,90,1.0,2,1.7067893845565196e-06
2.81,-0.11102342218909485,77.50024711032393,0,90,1.0,2,5.095058225275896e-06
2.815,-0.2314207883647528,77.500761906128,0,90,1.0,2,1.570940470114036e-05
2.82,-0.2029124434754801,77.50232367895711,0,90,1.0,2,4.791090633219581e-05
2.825,-0.11151350554305876,77.50682980175638,0,90,1.0,2,0.00014082065477076134
2.83,-0.039430666652076896,77.5190818325946,0,90,1.0,2,0.00039343984731121776
2.835,-0.006087703519843621,77.55032658431828,0,90,1.0,2,0.0010376615323357632
2.84,0.005350271385530551,77.62486111399137,0,90,1.0,2,0.00257445595858499
2.845,0.010381647827441833,77.79089628192624,0,90,1.0,2,0.0059978614830151974
2.85,0.015115203303506243,78.13581030968653,0,90,1.0,2,0.013109490921371826
2.855,0.021170964062928475,78.80310418498046,0,90,1.0,2,0.02686812752537021
2.86,0.029082821134029553,80.0036503319219,0,90,1.0,2,0.05162165632828667
2.865,0.03923107061708144,82.00862464608667,0,90,1.0,2,0.09296133290900357
2.87,0.051969043308817596,85.1094351581589,0,90,1.0,2,0.15689557027131756
2.875,0.06760532616283861,89.53588442832962,0,90,1.0,2,0.24816256553256955
2.88,0.08636519236693461,95.34067984553826,0,90,1.0,2,0.36784906898017034
2.885,0.10834733138818661,102.2828802504138,0,90,1.0,2,0.5109872216580165
2.89,0.1334809643017884,109.76314796610146,0,90,1.0,2,0.6652195456928135
2.895,0.16148868344343945,116.8635603773981,0,90,1.0,2,0.8116198015958371
2.9,0.191860907532018,122.51408790040378,0,90,1.0,2,0.9281255237196656
2.905,0.22384764873847726,125.75350534267997,0,90,1.0,2,0.9949176359315458
2.91,0.25647215537198226,126.0,0,90,1.0,2,1.0
2.915,0.2885689161419028,123.22762570772198,0,90,1.0,2,0.9428376434581852
2.92,0.31884566517832524,117.97571147104895,0,90,1.0,2,0.8345507519803907
2.925,0.3459657668955683,111.18720976466966,0,90,1.0,2,0.6945816446323642
2.93,0.3686441789190902,103.94297749733238,0,90,1.0,2,0.5452160308728325
2.935,0.3857476379544367,97.19497900171685,0,90,1.0,2,0.4060820412725123
2.94,0.3963882865005728,91.58715852017986,0,90,1.0,2,0.2904568767047393
2.945,0.4,87.40231943688003,0,90,1.0,2,0.20417153478103164
2.95,0.39638828650057273,84.61776733767618,0,90,1.0,2,0.14675808943662236
2.955,0.38574763795443656,83.01870255620567,0,90,1.0,2,0.11378768157125088
2.96,0.36864417891908974,82.31532374904685,0,90,1.0,2,0.09928502575354338
2.965,0.345965766895568,82.22852513749818,0,90,1.0,2,0.0974953636597563
2.97,0.3188456651783249,82.53379724975913,0,90,1.0,2,0.10378963401565221
2.975,0.28856891614190205,83.07090796955741,0,90,1.0,2,0.11486408184654455
2.98,0.2564721553719815,83.73393365366984,0,90,1.0,2,0.12853471450865642
2.985,0.22384764873847685,84.45472567769907,0,90,1.0,2,0.1433964057257541
2.99,0.19186090753201765,85.18779931345597,0,90,1.0,2,0.15851132605063853
2.995,0.16148868344343878,85.89973780936282,0,90,1.0,2,0.1731904702961406
3.0,0.1334809643017881,86.56315147784285,0,90,1.0,2,0.18686910263593506
3.005,0.10834733138818531,87.15399280259183,0,90,1.0,2,0.1990513979915841
3.01,0.08636519236690572,87.65090403830237,0,90,1.0,2,0.20929699048046127
3.015,0.06760532616242629,88.03559075757407,0,90,1.0,2,0.21722867541389834
3.02,0.05196904332202373,88.2935803580661,0,90,1.0,2,0.22254804861991948
3.025,0.03923107185803287,88.41499512294472,0,90,1.0,2,0.22505144583391168
3.03,0.02908287038705761,88.3951361310454,0,90,1.0,2,0.2246419820834104
3.035,0.02117220077308346,88.23477150863336,0,90,1.0,2,0.22133549502336822
3.04,0.0151361834125735,87.94008324256698,0,90,1.0,2,0.2152594483003502
3.045,0.010626454858290009,87.52227066579813,0,90,1.0,2,0.20664475599583776
3.05,0.007326255555493652,86.99684394559772,0,90,1.0,2,0.19581121537314883
3.055,0.004960179211183015,86.38266910719653,0,90,1.0,2,0.18314781664322752
3.06,0.0032978759379303545,85.70084635302014,0,90,1.0,2,0.16908961552618845
3.065,0.002153242296767213,84.97351438020993,0,90,1.0,2,0.15409308000432853
3.07,0.001380616732225004,84.22267447021218,0,90,1.0,2,0.13861184474664295
3.075,0.0008693106590991584,83.46911983680923,0,90,1.0,2,0.12307463581049953
3.08,0.000537524815942247,82.73153966075022,0,90,1.0,2,0.10786679712887041
3.085,0.0003263951340288585,82.02584581584142,0,90,1.0,2,0.09331640857404992
3.09,0.00019463030985187395,81.36474634664565,0,90,1.0,2,0.07968549168341538
3.095,0.00011397219555062695,80.75756615651035,0,90,1.0,2,0.06716631250536804
3.1,6.55403863487943e-05,80.21029461204587,0,90,1.0,2,0.05588236313496642
3.105,3.701184389455385e-05,79.72582372581968,0,90,1.0,2,0.04589327269731299
3.11,2.0525516217290957e-05,79.30433029623575,0,90,1.0,2,0.037202686520324685
3.115,1.1178128483661116e-05,78.94375108500397,0,90,1.0,2,0.02976806360832922
3.12,5.978135409912517e-06,78.6403012861791,0,90,1.0,2,0.023511366725342178
3.125,3.1396702713238487e-06,78.38899212332203,0,90,1.0,2,0.01832973450148508
3.13,1.6192875458531019e-06,78.18411201851102,0,90,1.0,2,0.014105402443526096
3.135,8.201353897972012e-07,78.01964593661293,0,90,1.0,2,0.010714349208514058
3.14,4.0791415086824765e-07,77.88961786250023,0,90,1.0,2,0.008033357989695478
3.145,1.9923866938774793e-07,77.78835082046433,0,90,1.0,2,0.00594537774153259
3.15,9.556527981051257e-08,77.71064663791375,0,90,1.0,2,0.004343229647706275
3.155,4.501406988770349e-08,77.65189339194916,0,90,1.0,2,0.003131822514415644
3.16,0.0,77.60811208361164,0,90,1.0,2,0.002229115126013279
3.165,0.0,77.57595574061222,0,90,1.0,2,0.0015660977445817639
3.17,0.0,77.55267420338132,0,90,1.0,2,0.0010860660490992786
3.175,0.0,77.53605673168623,0,90,1.0,2,0.0007434377667263946
3.18,0.0,77.5243627185632,0,90,1.0,2,0.0005023240940865256
3.185,0.0,77.5162486074524,0,90,1.0,2,0.00033502283407003855
3.19,0.0,77.51069689058352,0,90,1.0,2,0.00022055444502097765
3.195,0.0,77.50695104289521,0,90,1.0,2,0.00014332047206618516
3.2,0.0,77.50445854743928,0,90,1.0,2,9.192881318112667e-05
3.205,0.0,77.50282285014478,0,90,1.0,2,5.820309576868745e-05
3.21,0.0,77.50176414087863,0,90,1.0,2,3.6374038734734734e-05
3.215,0.0,77.50108825259593,0,90,1.0,2,2.243819785432147e-05
3.22,0.0,77.50066263926765,0,90,1.0,2,1.3662665312272252e-05
3.225,0.0,77.5003982682018,0,90,1.0,2,8.21171550115913e-06
3.23,0.0,77.50023627899034,0,90,1.0,2,4.871731759648515e-06
3.235,0.0,77.50013836478986,0,90,1.0,2,2.8528822651972487e-06
3.24,0.0,77.50007997920402,0,90,1.0,2,1.6490557529262322e-06
3.245,0.0,77.50004563305828,0,90,1.0,2,9.408877995437504e-07
3.25,0.0,77.50002569999755,0,90,1.0,2,5.298968567120065e-07
3.255,0.001684486749771458,77.50001428688657,0,90,1.0,2,2.9457498078382865e-07
3.26,0.004172395771277602,77.50000783958583,0,90,1.0,2,1.6164094502753344e-07
3.265,0.009438687428818865,77.50000424619222,0,90,1.0,2,8.755035503444439e-08
3.27,0.019500507867137046,77.50000227016378,0,90,1.0,2,4.68075005376226e-08
3.275,0.03679496976339974,77.5000011980246,0,90,1.0,2,2.4701538262720017e-08
3.28,0.06340728953298436,77.50000062405849,0,90,1.0,2,1.2867185292053205e-08
3.285,0.09979255396093453,77.50000032087499,0,90,1.0,2,6.61597915055121e-09
3.29,0.14343835518453557,77.50000016285362,0,90,1.0,2,3.3578066787535154e-09
3.295,0.18829581417209276,77.50000008158494,0,90,1.0,2,1.682163778260127e-09
3.3,0.2257481735193119,77.50000004034351,0,90,1.0,2,8.318249090678495e-10
3.305,0.24718154073554727,77.50000001969192,0,90,1.0,2,4.060190625863207e-10
3.31,0.24718154074102772,77.50000000948755,0,90,1.0,2,1.956195938339416e-10
3.315,0.22574817354072055,77.50000000451202,0,90,1.0,2,9.303128714124149e-11
3.32,0.18829581422840957,77.50000000211806,0,90,1.0,2,4.367127507272748e-11
3.325,0.14343835532456656,77.50000000098143,0,90,1.0,2,2.0235671099820222e-11
3.33,0.09979255431561854,77.50000000044888,0,90,1.0,2,9.255222018331663e-12
3.335,0.06340729067170194,77.50000000020265,0,90,1.0,2,4.178284293583105e-12
3.34,0.03679497683410042,77.50000000009031,0,90,1.0,2,1.862061478662036e-12
3.345,0.019500578284482293,77.50000000003972,0,90,1.0,2,8.189554418348371e-13
3.35,0.009439396781978427,77.50000000001725,0,90,1.0,2,3.5571087885062335e-13
3.355,0.004178588733610924,77.50000000000739,0,90,1.0,2,1.523638031320627e-13
3.36,0.0017299316936037381,77.50000000000313,0,90,1.0,2,6.446160901741115e-14
3.365,0.0008997325756988589,77.50000000000131,0,90,1.0,2,2.695667286182648e-14
3.37,0.001634769674224814,77.50000000000054,0,90,1.0,2,1.1134277921189199e-14
3.375,0.00614904736476635,77.50000000000021,0,90,1.0,2,4.395109705732579e-15
3.38,0.02168080359963608,77.50000000000009,0,90,1.0,2,1.7580438822930315e-15
3.385,0.06433400338904088,77.50000000000003,0,90,1.0,2,5.860146274310105e-16
3.39,0.1593410769217493,77.50000000000001,0,90,1.0,2,2.9300731371550523e-16
3.395,0.3291989194808569,77.5,0,90,1.0,2,0.0
3.4,0.5672906802982638,77.5,0,90,1.0,2,0.0
3.405,0.815339152120446,77.5,0,90,1.0,2,0.0
3.41,0.9768711246313155,77.50000284359693,1,90,1.0,2,5.8630864561995826e-08
3.415,0.9726380909165361,77.50000548419933,0,90,1.0,2,1.1307627494144193e-07
3.42,0.7921091683291741,77.50001124088986,0,90,1.0,2,2.317709249813767e-07
3.425,0.49139090102639077,77.50002536697961,0,90,1.0,2,5.230305075000024e-07
3.43,0.15739335672107918,77.50006389056809,0,90,1.0,2,1.3173313007395262e-06
3.435,-0.11102342218909485,77.50017550461766,0,90,1.0,2,3.6186519104816886e-06
3.44,-0.2314207883647528,77.50050312573545,0,90,1.0,2,1.037372650410024e-05
3.445,-0.2029124434754801,77.50144560488555,0,90,1.0,2,2.9806286299926985e-05
3.45,-0.11151350554305876,77.50405253381912,0,90,1.0,2,8.355739833237495e-05
3.455,-0.039430666652076896,77.51091584732082,0,90,1.0,2,0.0002250690169240588
3.46,-0.006087703519843621,77.52802210333864,0,90,1.0,2,0.0005777753265699489
3.465,0.005350271385530551,77.56826624200473,0,90,1.0,2,0.0014075513815407234
3.47,0.010381647827441833,77.65747108052543,0,90,1.0,2,0.003246826402586094
3.475,0.015115203303506243,77.84353029025743,0,90,1.0,2,0.007083098768194506
3.48,0.021170964062928475,78.208294728616,0,90,1.0,2,0.014604015023010236
3.485,0.029082821134029553,78.87971080766134,0,90,1.0,2,0.02844764551879051
3.49,0.03923107061708144,80.03860769687986,0,90,1.0,2,0.052342426739791025
3.495,0.051969043308817596,81.9114678020172,0,90,1.0,2,0.0909580990106639
3.5,0.06760532616283861,84.73967911802492,0,90,1.0,2,0.14927173439226646
3.505,0.08636519236693461,88.71983424376735,0,90,1.0,2,0.23133678853128561
3.51,0.10834733138818661,93.92009701837561,0,90,1.0,2,0.3385587014098065
3.515,0.1334809643017884,100.19265177353559,0,90,1.0,2,0.46788972728939354
3.52,0.16148868344343945,107.11553201194583,0,90,1.0,2,0.6106295260195017
3.525,0.191860907532018,113.99980843728613,0,90,1.0,2,0.7525733698409512
3.53,0.22384764873847726,119.98355460807562,0,90,1.0,2,0.8759495795479509
3.535,0.25647215537198226,124.2034706308707,0,90,1.0,2,0.9629581573375402
3.54,0.2885689161419028,126.0,0,90,1.0,2,1.0
3.545,0.31884566517832524,125.0896730388076,0,90,1.0,2,0.9812303719341774
3.55,0.3459657668955683,121.64309031720336,0,90,1.0,2,0.9101668106639867
3.555,0.3686441789190902,116.23941024525399,0,90,1.0,2,0.7987507267062679
3.56,0.3857476379544367,109.71438740562652,0,90,1.0,2,0.6642141733118871
3.565,0.3963882865005728,102.95711288915504,0,90,1.0,2,0.5248889255495884
3.57,0.4,96.72341910788755,0,90,1.0,2,0.39635915686366086
3.575,0.39638828650057273,91.51813811820595,0,90,1.0,2,0.28903377563311244
3.58,0.38574763795443656,87.5651096594767,0,90,1.0,2,0.2075280342160145
3.585,0.36864417891908974,84.85055753012354,0,90,1.0,2,0.15155788721904204
3.59,0.345965766895568,83.20599367449054,0,90,1.0,2,0.11764935411320707
3.595,0.3188456651783249,82.39522658019695,0,90,1.0,2,0.10093250680818448
3.6,0.28856891614190205,82.18134970860318,0,90,1.0,2,0.09652267440418925
3.605,0.2564721553719815,82.36490781207327,0,90,1.0,2,0.10030737756852103
3.61,0.22384764873847685,82.79649701173709,0,90,1.0,2,0.10920612395334202
3.615,0.19186090753201765,83.37281201706614,0,90,1.0,3,0.12108890756837398
3.62,0.16148868344343878,84.02539184144003,0,90,1.0,3,0.1345441616791758
3.625,0.1334809643017881,84.70859251846929,0,90,1.0,3,0.14863077357668636
3.63,0.10834733138818531,85.39005201648826,0,90,1.0,3,0.1626814848760465
3.635,0.08636519236690572,86.044472758779,0,90,1.0,3,0.17617469605729885
3.64,0.06760532616242629,86.65025529584166,0,90,1.0,3,0.1886650576462198
3.645,0.05196904332202373,87.18810890053072,0,90,1.0,3,0.19975482269135508
3.65,0.03923107185803287,87.64083038423249,0,90,1.0,3,0.2090892862728348
3.655,0.02908287038705761,87.99366494888493,0,90,1.0,3,0.21636422575020467
3.66,0.02117220077308346,88.23487689607546,0,90,1.0,3,0.2213376679603188
3.665,0.0151361834125735,88.35631072246048,0,90,1.0,3,0.2238414581950614
3.67,0.010626454858290009,88.35381801207184,0,90,1.0,3,0.22379006210457403
3.675,0.007326255555493652,88.22748246937488,0,90,1.0,3,0.22118520555412116
3.68,0.004960179211183015,87.98161207029037,0,90,1.0,3,0.21611571278949213
3.685,0.0032978759379303545,87.62449423525337,0,90,1.0,3,0.20875245845883228
3.69,0.002153242296767213,87.1679318019965,0,90,1.0,3,0.199338800041165
3.695,0.001380616732225004,86.62659553682514,0,90,1.0,3,0.18817722756340485
3.7,0.0008693106590991584,86.01724256371354,0,90,1.0,3,0.1756132487363616
3.705,0.000537524815942247,85.35785865287932,0,90,1.0,3,0.16201770418307868
3.71,0.0003263951340288585,84.66678530372789,0,90,1.0,3,0.1477687691490287
3.715,0.00019463030985187395,83.96189001381458,0,90,1.0,3,0.1332348456456615
3.72,0.00011397219555062695,83.25983064690726,0,90,1.0,3,0.11875939478159302
3.725,6.55403863487943e-05,82.57545348721757,0,90,1.0,3,0.10464852550964067
3.73,3.701184389455385e-05,81.92135081114074,0,90,1.0,3,0.09116187239465445
3.735,2.0525516217290957e-05,81.30758917718623,0,90,1.0,3,0.07850699334404598
3.74,1.1178128483661116e-05,80.74160562584288,0,90,1.0,3,0.06683722939882226
3.745,5.978135409912517e-06,80.22825686325584,0,90,1.0,3,0.05625271883001725
3.75,3.1396702713238487e-06,79.76999719568829,0,90,1.0,3,0.046804065890480216
3.755,1.6192875458531019e-06,79.36715499256925,0,90,1.0,3,0.03849804108390215
3.76,8.201353897972012e-07,79.01827487455601,0,90,1.0,3,0.03130463658878378
3.765,4.0791415086824765e-07,78.72049337182925,0,90,1.0,3,0.0251648117902938
3.77,1.9923866938774793e-07,78.46991891897598,0,90,1.0,3,0.01999832822630882
3.775,9.556527981051257e-08,78.26199201676988,0,90,1.0,3,0.015711175603502697
3.78,4.501406988770349e-08,78.09180740822781,0,90,1.0,3,0.01220221460263522
3.785,0.0,77.95438643595452,0,90,1.0,3,0.009368792493907593
3.79,0.0,77.8448937347729,0,90,1.0,3,0.007111211026245273
3.795,0.0,77.75879759554243,0,90,1.0,3,0.005336032897782116
3.8,0.0,77.69197742146481,0,90,1.0,3,0.003958297349789957
3.805,0.0,77.640784569316,0,90,1.0,3,0.0029027746250721038
3.81,0.0,77.60206455450907,0,90,1.0,3,0.0021044238043107246
3.815,0.0,77.5731492398329,0,90,1.0,3,0.0015082317491319794
3.82,0.0,77.55182743021956,0,90,1.0,3,0.0010686068086507364
3.825,0.0,77.53630149568863,0,90,1.0,3,0.0007484844471883127
3.83,0.0,77.52513647346169,0,90,1.0,3,0.0005182778033337254
3.835,0.0,77.51720676241366,0,90,1.0,3,0.0003547786064673088
3.84,0.0,77.511644181374,0,90,1.0,3,0.00024008621389681167
3.845,0.0,77.50778993342809,0,90,1.0,3,0.00016061718408424248
3.85,0.0,77.50515197226336,0,90,1.0,3,0.00010622623223428528
3.855,0.0,77.50336843577756,0,90,1.0,3,6.945228407339903e-05
3.86,0.0,77.50217719842811,0,90,1.0,3,4.489068923947381e-05
3.865,0.0,77.50139117811788,0,90,1.0,3,2.868408490484136e-05
3.87,0.0,77.50087878462313,0,90,1.0,3,1.8119270579912145e-05
3.875,0.0,77.50054877857231,0,90,1.0,3,1.1315022109465176e-05
3.88,0.0,77.50033878707026,0,90,1.0,3,6.985300417782878e-06
3.885,0.0,77.50020676236647,0,90,1.0,3,4.263141576790151e-06
3.89,0.0,77.50012474729766,0,90,1.0,3,2.5721092301349007e-06
3.895,0.0,77.50007440562757,0,90,1.0,3,1.5341366509712372e-06
3.9,0.0,77.5000438728055,0,90,1.0,3,9.045939279563829e-07
3.905,0.0,77.50002557407974,0,90,1.0,3,5.273006132535284e-07
3.91,0.0,77.50001473735715,0,90,1.0,3,3.038630339786548e-07
3.915,0.0,77.50000839564733,0,90,1.0,3,1.7310613046545994e-07
3.92,0.001684486749771458,77.50000472828614,0,90,1.0,3,9.74904359394451e-08
3.925,0.004172395771277602,77.50000263249952,0,90,1.0,3,5.4278340539238665e-08
3.93,0.009438687428818865,77.50000144893144,0,90,1.0,3,2.987487510067366e-08
3.935,0.019500507867137046,77.50000078839227,0,90,1.0,3,1.6255510733581387e-08
3.94,0.03679496976339974,77.50000042408398,0,90,1.0,3,8.743999558777732e-09
3.945,0.06340728953298436,77.50000022551548,0,90,1.0,3,4.649803676113958e-09
3.95,0.09979255396093453,77.5000001185539,0,90,1.0,3,2.4444102915911515e-09
3.955,0.14343835518453557,77.50000006161271,0,90,1.0,3,1.270365146410768e-09
3.96,0.18829581417209276,77.5000000316548,0,90,1.0,3,6.526764283671113e-10
3.965,0.2257481735193119,77.5000000160777,0,90,1.0,3,3.3149909850368374e-10
3.97,0.24718154073554727,77.50000000807279,0,90,1.0,3,1.664492507169945e-10
3.975,0.24718154074102772,77.50000000400718,0,90,1.0,3,8.262220232149817e-11
3.98,0.22574817354072055,77.50000000196638,0,90,1.0,3,4.054400801344189e-11
3.985,0.18829581422840957,77.50000000095392,0,90,1.0,3,1.9668408940467004e-11
3.99,0.14343835532456656,77.50000000045748,0,90,1.0,3,9.432491443129545e-12
3.995,0.09979255431561854,77.50000000021689,0,90,1.0,3,4.471877621926041e-12
4.0,0.06340729067170194,77.50000000010165,0,90,1.0,3,2.095881315007009e-12
4.005,0.03679497683410042,77.5000000000471,0,90,1.0,3,9.710262376531843e-13
4.01,0.019500578284482293,77.50000000002157,0,90,1.0,3,4.4478510222013693e-13
4.015,0.009439396781978427,77.50000000000976,0,90,1.0,3,2.0129602452255209e-13
4.02,0.004178588733610924,77.50000000000438,0,90,1.0,3,9.02462526243756e-14
4.025,0.0017299316936037381,77.50000000000193,0,90,1.0,3,3.984899466530871e-14
4.03,0.0008997325756988589,77.50000000000085,0,90,1.0,3,1.7580438822930315e-14
4.035,0.001634769674224814,77.50000000000037,0,90,1.0,3,7.618190156603136e-15
4.04,0.00614904736476635,77.50000000000016,0,90,1.0,3,3.2230804508705575e-15
4.045,0.02168080359963608,77.50000000000007,0,90,1.0,3,1.465036568577526e-15
4.05,0.06433400338904088,77.50000000000003,0,90,1.0,3,5.860146274310105e-16
4.055,0.1593410769217493,77.50000000000001,0,90,1.0,3,2.9300731371550523e-16
4.06,0.3291989194808569,77.5,0,90,1.0,3,0.0
4.065,0.5672906802982638,77.5,0,90,1.0,3,0.0
4.07,0.815339152120446,77.5,0,90,1.0,3,0.0
4.075,0.9768711246313155,77.50000284154457,1,90,1.0,3,5.8588547859734405e-08
4.08,0.9726380909165361,77.5000053717146,0,90,1.0,3,1.1075700192038508e-07
4.085,0.7921091683291741,77.50001074298208,0,90,1.0,3,2.2150478524466606e-07
4.09,0.49139090102639077,77.50002348679206,0,90,1.0,3,4.842637538073627e-07
4.095,0.15739335672107918,77.50005697009982,0,90,1.0,3,1.1746412333992601e-06
4.1,-0.11102342218909485,77.50015058918197,0,90,1.0,3,3.1049315870189172e-06
4.105,-0.2314207883647528,77.50041701098533,0,90,1.0,3,8.598164645990409e-06
4.11,-0.2029124434754801,77.50116397212096,0,90,1.0,3,2.3999425174501196e-05
4.115,-0.11151350554305876,77.50318753865302,0,90,1.0,3,6.572244645408506e-05
4.12,-0.039430666652076896,77.5084286730719,0,90,1.0,3,0.00017378707364751163
4.125,-0.006087703519843621,77.52133349932207,0,90,1.0,3,0.0004398659654034723
4.13,0.005350271385530551,77.55144481044628,0,90,1.0,3,0.001060717741160502
4.135,0.010381647827441833,77.61790113559184,0,90,1.0,3,0.002430951249316211
4.14,0.015115203303506243,77.75645242828497,0,90,1.0,3,0.005287678933710787
4.145,0.021170964062928475,78.02903573913586,0,90,1.0,3,0.010907953384244619
4.15,0.029082821134029553,78.53459389389398,0,90,1.0,3,0.02133183286379348
4.155,0.03923107061708144,79.41759052329515,0,90,1.0,3,0.03953794893392055
4.16,0.051969043308817596,80.86806634460993,0,90,1.0,3,0.0694446668991738
4.165,0.06760532616283861,83.10540651559467,0,90,1.0,3,0.11557539207411682
4.17,0.08636519236693461,86.3392095926369,0,90,1.0,3,0.18225174417808052
4.175,0.10834733138818661,90.70649228025296,0,90,1.0,3,0.27229880990212285
4.18,0.1334809643017884,96.1949399697833,0,90,1.0,3,0.3854626797893465
4.185,0.16148868344343945,102.57400864906828,0,90,1.0,3,0.5169898690529542
4.19,0.191860907532018,109.36346526476575,0,90,1.0,3,0.656978665252902
4.195,0.22384764873847726,115.86591368470812,0,90,1.0,3,0.7910497666950127
4.2,0.25647215537198226,121.27294452158014,0,90,1.0,3,0.9025349385892814
4.205,0.2885689161419028,124.82763298613727,0,90,1.0,3,0.9758274842502531
4.21,0.31884566517832524,126.0,0,90,1.0,3,1.0
4.215,0.3459657668955683,124.61989252433693,0,90,1.0,3,0.9715441757595243
4.22,0.3686441789190902,120.92169697246845,0,90,1.0,3,0.8952927210818238
4.225,0.3857476379544367,115.48501558588413,0,90,1.0,3,0.7831961976470954
4.23,0.3963882865005728,109.09225998185437,0,90,1.0,3,0.6513868037495746
4.235,0.4,102.5515725266867,0,90,1.0,3,0.5165272685914784
4.24,0.39638828650057273,96.54013006952228,0,90,1.0,3,0.392580001433449
4.245,0.38574763795443656,91.50802050032742,0,90,1.0,3,0.2888251649552045
4.25,0.36864417891908974,87.65583209467765,0,90,1.0,3,0.2093985998902608
4.255,0.345965766895568,84.9730956654149,0,90,1.0,3,0.15408444670958563
4.26,0.3188456651783249,83.30975988570115,0,90,1.0,3,0.11978886362270422
4.265,0.28856891614190205,82.45172028278404,0,90,1.0,3,0.10209732541822758
4.27,0.2564721553719815,82.18025697684484,0,90,1.0,3,0.09650014385247103
4.275,0.22384764873847685,82.30741319769757,0,90,1.0,3,0.09912192160201176
4.28,0.19186090753201765,82.68926270610598,0,90,1.0,3,0.1069951073423913
4.285,0.16148868344343878,83.2241320744651,0,90,1.0,3,0.11802334174154852
4.29,0.1334809643017881,83.8435168279006,0,90,1.0,3,0.13079416140001238
4.295,0.10834733138818531,84.50150236715587,0,90,1.0,3,0.14436087354960547
4.3,0.08636519236690572,85.16587686988788,0,90,1.0,3,0.15805931690490477
4.305,0.06760532616242629,85.81199492104422,0,90,1.0,3,0.1713813385782313
4.31,0.05196904332202373,86.41920641796344,0,90,1.0,3,0.18390116325697808
4.315,0.03923107185803287,86.96917992923366,0,90,1.0,3,0.19524082328316827
4.32,0.02908287038705761,87.44541920646472,0,90,1.0,3,0.20506018982401486
4.325,0.02117220077308346,87.83342707600346,0,90,1.0,3,0.21306035208254556
4.33,0.0151361834125735,88.1211518756908,0,90,1.0,3,0.21899282217919175
4.335,0.010626454858290009,88.29949305211028,0,90,1.0,3,0.22266995983732535
4.34,0.007326255555493652,88.36273532154763,0,90,1.0,3,0.22397392415562128
4.345,0.004960179211183015,88.30883732354,0,90,1.0,3,0.22286262522762895
4.35,0.0032978759379303545,88.13953589889951,0,90,1.0,3,0.2193718742041136
4.355,0.002153242296767213,87.86025153974062,0,90,1.0,3,0.21361343380908487
4.36,0.001380616732225004,87.47979971200948,0,90,1.0,3,0.2057690662269996
4.365,0.0008693106590991584,87.00992868416755,0,90,1.0,3,0.19608100379726903
4.37,0.000537524815942247,86.46471740998916,0,90,1.0,3,0.18483953422658067
4.375,0.0003263951340288585,85.85987641344444,0,90,1.0,3,0.17236858584421524
4.38,0.00019463030985187395,85.21199997402755,0,90,1.0,3,0.15901030874283606
4.385,0.00011397219555062695,84.53781895883367,0,90,1.0,3,0.14510966925430244
4.39,6.55403863487943e-05,83.85350054309895,0,90,1.0,3,0.1310000111979164
4.395,3.701184389455385e-05,83.17403435574212,0,90,1.0,3,0.11699039908746645
4.4,2.0525516217290957e-05,82.51273515971924,0,90,1.0,3,0.10335536411792251
4.405,1.1178128483661116e-05,81.88088111637717,0,90,1.0,3,0.09032744569849831
4.41,5.978135409912517e-06,81.28749514724962,0,90,1.0,3,0.07809268344844567
4.415,3.1396702713238487e-06,80.73926599081013,0,90,1.0,3,0.0667889895012397
4.42,1.6192875458531019e-06,80.24059617216766,0,90,1.0,3,0.05650713757046714
4.425,8.201353897972012e-07,79.79375691779815,0,90,1.0,3,0.047293957068003066
4.43,4.0791415086824765e-07,79.39912541232576,0,90,1.0,3,0.039157224996407405
4.435,1.9923866938774793e-07,79.05547776723587,0,90,1.0,3,0.032071706540945794
4.44,9.556527981051257e-08,78.76031144478318,0,90,1.0,3,0.025985802985220293
4.445,4.501406988770349e-08,78.51017324373844,0,90,1.0,3,0.02082831430388527
4.45,0.0,78.30097276926729,0,90,1.0,3,0.016514902459119376
4.455,0.0,78.12826599064017,0,90,1.0,3,0.01295393795134378
4.46,0.0,77.98749847302761,0,90,1.0,3,0.010051514907785854
4.465,0.0,77.87420266617133,0,90,1.0,3,0.007715518890130479
4.47,0.0,77.78414786970576,0,90,1.0,3,0.005858718963005411
4.475,0.0,77.71344492859065,0,90,1.0,3,0.004400926362693753
4.48,0.0,77.6586102266577,0,90,1.0,3,0.0032703139517051565
4.485,0.0,77.61659513782196,0,90,1.0,3,0.0024040234602466038
4.49,0.0,77.58478784625699,0,90,1.0,3,0.0017482030156079722
4.495,0.0,77.56099450010981,0,90,1.0,3,0.001257618558965237
4.5,0.0,77.54340618910628,0,90,1.0,3,0.000894972971263469
4.505,0.0,77.53055741054968,0,90,1.0,3,0.0006300497020551748
4.51,0.0,77.521280672553,0,90,1.0,3,0.0004387767536701931
4.515,0.0,77.51466081314214,0,90,1.0,3,0.0003022848070544963
4.52,0.0,77.50999159166291,0,90,1.0,3,0.0002060121992352594
4.525,0.0,77.5067362035906,0,90,1.0,3,0.00013889079568259346
4.53,0.0,77.50449261953548,0,90,1.0,3,9.263133062852165e-05
4.535,0.0,77.50296406680117,0,90,1.0,3,6.11147794055557e-05
4.54,0.0,77.50193455126167,0,90,1.0,3,3.988765487978404e-05
4.545,0.0,77.5012490401714,0,90,1.0,3,2.5753405595913737e-05
4.55,0.0,77.50079776775692,0,90,1.0,3,1.644881973034083e-05
4.555,0.0,77.50050405794217,0,90,1.0,3,1.0392947261154929e-05
4.56,0.0,77.50031505643443,0,90,1.0,3,6.496008957339617e-06
4.565,0.0,77.5001948050246,0,90,1.0,3,4.016598445477752e-06
4.57,0.0,77.5001191559859,0,90,1.0,3,2.456824451536301e-06
4.575,0.0,77.5000721000363,0,90,1.0,3,1.4865986867166095e-06
4.58,0.0,77.50004315777153,0,90,1.0,3,8.898509593601591e-07
4.585,0.0,77.5000255556216,0,90,1.0,3,5.269200330859189e-07
4.59,0.0,77.50001496986195,0,90,1.0,3,3.086569474418735e-07
4.595,0.0,77.50000867467178,0,90,1.0,3,1.788592118673384e-07
4.6,0.0,77.5000049726995,0,90,1.0,3,1.0252988660148421e-07
4.605,0.001684486749771458,77.50000281991028,0,90,1.0,3,5.8142479971494826e-08
4.61,0.004172395771277602,77.50000158191183,0,90,1.0,3,3.261673879895864e-08
4.615,0.009438687428818865,77.50000087787598,0,90,1.0,3,1.810053559499475e-08
4.62,0.019500507867137046,77.50000048193445,0,90,1.0,3,9.936792776926202e-09
4.625,0.03679496976339974,77.50000026172589,0,90,1.0,3,5.3964100450534765e-09
4.63,0.06340728953298436,77.50000014060777,0,90,1.0,3,2.899129220768185e-09
4.635,0.09979255396093453,77.5000000747267,0,90,1.0,3,1.540756690617142e-09
4.64,0.14343835518453557,77.50000003928676,0,90,1.0,3,8.100362992053372e-10
4.645,0.18829581417209276,77.50000002043245,0,90,1.0,3,4.212876737040357e-10
4.65,0.2257481735193119,77.50000001051232,0,90,1.0,3,2.1674893724059412e-10
4.655,0.24718154073554727,77.50000000535033,0,90,1.0,3,1.1031608158463286e-10
4.66,0.24718154074102772,77.50000000269381,0,90,1.0,3,5.5542466387911174e-11
4.665,0.22574817354072055,77.5000000013417,0,90,1.0,3,2.766399251713571e-11
4.67,0.18829581422840957,77.50000000066107,0,90,1.0,3,1.3630407226731589e-11
4.675,0.14343835532456656,77.50000000032222,0,90,1.0,3,6.643647831185366e-12
4.68,0.09979255431561854,77.50000000015537,0,90,1.0,3,3.2034489608516187e-12
4.685,0.06340729067170194,77.50000000007411,0,90,1.0,3,1.5280331410263597e-12
4.69,0.03679497683410042,77.50000000003497,0,90,1.0,3,7.210909990538583e-13
4.695,0.019500578284482293,77.50000000001633,0,90,1.0,3,3.3666540345911553e-13
4.7,0.009439396781978427,77.50000000000753,0,90,1.0,3,1.5529387626921778e-13
4.705,0.004178588733610924,77.50000000000344,0,90,1.0,3,7.090776991915227e-14
4.71,0.0017299316936037381,77.50000000000155,0,90,1.0,3,3.193779719499007e-14
4.715,0.0008997325756988589,77.5000000000007,0,90,1.0,3,1.4357358372059756e-14
4.72,0.001634769674224814,77.50000000000031,0,90,1.0,3,6.446160901741115e-15
4.725,0.00614904736476635,77.50000000000013,0,90,1.0,3,2.637065823439547e-15
4.73,0.02168080359963608,77.50000000000006,0,90,1.0,3,1.172029254862021e-15
4.735,0.06433400338904088,77.50000000000003,0,90,1.0,3,5.860146274310105e-16
4.74,0.1593410769217493,77.50000000000001,0,90,1.0,3,2.9300731371550523e-16
4.745,0.3291989194808569,77.5,0,90,1.0,3,0.0
4.75,0.5672906802982638,77.5,0,90,1.0,3,0.0
4.755,0.815339152120446,77.5,0,90,1.0,3,0.0
4.76,0.9768711246313155,77.50000284359693,1,90,1.0,3,5.8630864561995826e-08
4.765,0.9726380909165361,77.50000548419933,0,90,1.0,3,1.1307627494144193e-07
4.77,0.7921091683291741,77.50001124088986,0,90,1.0,3,2.317709249813767e-07
4.775,0.49139090102639077,77.50002536697961,0,90,1.0,3,5.230305075000024e-07
4.78,0.15739335672107918,77.50006389056809,0,90,1.0,3,1.3173313007395262e-06
4.785,-0.11102342218909485,77.50017550461766,0,90,1.0,3,3.6186519104816886e-06
4.79,-0.2314207883647528,77.50050312573545,0,90,1.0,3,1.037372650410024e-05
4.795,-0.2029124434754801,77.50144560488555,0,90,1.0,3,2.9806286299926985e-05
4.8,-0.11151350554305876,77.50405253381912,0,90,1.0,3,8.355739833237495e-05
4.805,-0.039430666652076896,77.51091584732082,0,90,1.0,3,0.0002250690169240588
4.81,-0.006087703519843621,77.52802210333864,0,90,1.0,3,0.0005777753265699489
4.815,0.005350271385530551,77.56826624200473,0,90,1.0,3,0.0014075513815407234
4.82,0.010381647827441833,77.65747108052543,0,90,1.0,4,0.003246826402586094
4.825,0.015115203303506243,77.84353029025743,0,90,1.0,4,0.007083098768194506
4.83,0.021170964062928475,78.208294728616,0,90,1.0,4,0.014604015023010236
4.835,0.029082821134029553,78.87971080766134,0,90,1.0,4,0.02844764551879051
4.84,0.03923107061708144,80.03860769687986,0,90,1.0,4,0.052342426739791025
4.845,0.051969043308817596,81.9114678020172,0,90,1.0,4,0.0909580990106639
4.85,0.06760532616283861,84.73967911802492,0,90,1.0,4,0.14927173439226646
4.855,0.08636519236693461,88.71983424376735,0,90,1.0,4,0.23133678853128561
4.86,0.10834733138818661,93.92009701837561,0,90,1.0,4,0.3385587014098065
4.865,0.1334809643017884,100.19265177353559,0,90,1.0,4,0.46788972728939354
4.87,0.16148868344343945,107.11553201194583,0,90,1.0,4,0.6106295260195017
4.875,0.191860907532018,113.99980843728613,0,90,1.0,4,0.7525733698409512
4.88,0.22384764873847726,119.98355460807562,0,90,1.0,4,0.8759495795479509
4.885,0.25647215537198226,124.2034706308707,0,90,1.0,4,0.9629581573375402
4.89,0.2885689161419028,126.0,0,90,1.0,4,1.0
4.895,0.31884566517832524,125.0896730388076,0,90,1.0,4,0.9812303719341774
4.9,0.3459657668955683,121.64309031720336,0,90,1.0,4,0.9101668106639867
4.905,0.3686441789190902,116.23941024525399,0,90,1.0,4,0.7987507267062679
4.91,0.3857476379544367,109.71438740562652,0,90,1.0,4,0.6642141733118871
4.915,0.3963882865005728,102.95711288915504,0,90,1.0,4,0.5248889255495884
4.92,0.4,96.72341910788755,0,90,1.0,4,0.39635915686366086
4.925,0.39638828650057273,91.51813811820595,0,90,1.0,4,0.28903377563311244
4.93,0.38574763795443656,87.5651096594767,0,90,1.0,4,0.2075280342160145
4.935,0.36864417891908974,84.85055753012354,0,90,1.0,4,0.15155788721904204
4.94,0.345965766895568,83.20599367449054,0,90,1.0,4,0.11764935411320707
4.945,0.3188456651783249,82.39522658019695,0,90,1.0,4,0.10093250680818448
4.95,0.28856891614190205,82.18134970860318,0,90,1.0,4,0.09652267440418925
4.955,0.2564721553719815,82.36490781207327,0,90,1.0,4,0.10030737756852103
4.96,0.22384764873847685,82.79649701173709,0,90,1.0,4,0.10920612395334202
4.965,0.19186090753201765,83.37281201706614,0,90,1.0,4,0.12108890756837398
4.97,0.16148868344343878,84.02539184144003,0,90,1.0,4,0.1345441616791758
4.975,0.1334809643017881,84.70859251846929,0,90,1.0,4,0.14863077357668636
4.98,0.10834733138818531,85.39005201648826,0,90,1.0,4,0.1626814848760465
4.985,0.08636519236690572,86.044472758779,0,90,1.0,4,0.17617469605729885
4.99,0.06760532616242629,86.65025529584166,0,90,1.0,4,0.1886650576462198
4.995,0.05196904332202373,87.18810890053072,0,90,1.0,4,0.19975482269135508
5.0,0.03923107185803287,87.64083038423249,0,90,1.0,4,0.2090892862728348
5.005,0.02908287038705761,87.99366494888493,0,90,1.0,4,0.21636422575020467
5.01,0.02117220077308346,88.23487689607546,0,90,1.0,4,0.2213376679603188
5.015,0.0151361834125735,88.35631072246048,0,90,1.0,4,0.2238414581950614
5.02,0.010626454858290009,88.35381801207184,0,90,1.0,4,0.22379006210457403
5.025,0.007326255555493652,88.22748246937488,0,90,1.0,4,0.22118520555412116
5.03,0.004960179211183015,87.98161207029037,0,90,1.0,4,0.21611571278949213
5.035,0.0032978759379303545,87.62449423525337,0,90,1.0,4,0.20875245845883228
5.04,0.002153242296767213,87.1679318019965,0,90,1.0,4,0.199338800041165
5.045,0.001380616732225004,86.62659553682514,0,90,1.0,4,0.18817722756340485
5.05,0.0008693106590991584,86.01724256371354,0,90,1.0,4,0.1756132487363616
5.055,0.000537524815942247,85.35785865287932,0,90,1.0,4,0.16201770418307868
5.06,0.0003263951340288585,84.66678530372789,0,90,1.0,4,0.1477687691490287
5.065,0.00019463030985187395,83.96189001381458,0,90,1.0,4,0.1332348456456615
5.07,0.00011397219555062695,83.25983064690726,0,90,1.0,4,0.11875939478159302
5.075,6.55403863487943e-05,82.57545348721757,0,90,1.0,4,0.10464852550964067
5.08,3.701184389455385e-05,81.92135081114074,0,90,1.0,4,0.09116187239465445
5.085,2.0525516217290957e-05,81.30758917718623,0,90,1.0,4,0.07850699334404598
5.09,1.1178128483661116e-05,80.74160562584288,0,90,1.0,4,0.06683722939882226
5.095,5.978135409912517e-06,80.22825686325584,0,90,1.0,4,0.05625271883001725
5.1,3.1396702713238487e-06,79.76999719568829,0,90,1.0,4,0.046804065890480216
5.105,1.6192875458531019e-06,79.36715499256925,0,90,1.0,4,0.03849804108390215
5.11,8.201353897972012e-07,79.01827487455601,0,90,1.0,4,0.03130463658878378
5.115,4.0791415086824765e-07,78.72049337182925,0,90,1.0,4,0.0251648117902938
5.12,1.9923866938774793e-07,78.46991891897598,0,90,1.0,4,0.01999832822630882
5.125,9.556527981051257e-08,78.26199201676988,0,90,1.0,4,0.015711175603502697
5.13,4.501406988770349e-08,78.09180740822781,0,90,1.0,4,0.01220221460263522
5.135,0.0,77.95438643595452,0,90,1.0,4,0.009368792493907593
5.14,0.0,77.8448937347729,0,90,1.0,4,0.007111211026245273
5.145,0.0,77.75879759554243,0,90,1.0,4,0.005336032897782116
5.15,0.0,77.69197742146481,0,90,1.0,4,0.003958297349789957
5.155,0.0,77.640784569316,0,90,1.0,4,0.0029027746250721038
5.16,0.0,77.60206455450907,0,90,1.0,4,0.0021044238043107246
5.165,0.0,77.5731492398329,0,90,1.0,4,0.0015082317491319794
5.17,0.0,77.55182743021956,0,90,1.0,4,0.0010686068086507364
5.175,0.0,77.53630149568863,0,90,1.0,4,0.0007484844471883127
5.18,0.0,77.52513647346169,0,90,1.0,4,0.0005182778033337254
5.185,0.0,77.51720676241366,0,90,1.0,4,0.0003547786064673088
5.19,0.0,77.511644181374,0,90,1.0,4,0.00024008621389681167
5.195,0.0,77.50778993342809,0,90,1.0,4,0.00016061718408424248
5.2,0.0,77.50515197226336,0,90,1.0,4,0.00010622623223428528
5.205,0.0,77.50336843577756,0,90,1.0,4,6.945228407339903e-05
5.21,0.0,77.50217719842811,0,90,1.0,4,4.489068923947381e-05
5.215,0.0,77.50139117811788,0,90,1.0,4,2.868408490484136e-05
5.22,0.0,77.50087878462313,0,90,1.0,4,1.8119270579912145e-05
5.225,0.0,77.50054877857231,0,90,1.0,4,1.1315022109465176e-05
5.23,0.0,77.50033878707026,0,90,1.0,4,6.985300417782878e-06
5.235,0.0,77.50020676236647,0,90,1.0,4,4.263141576790151e-06
5.24,0.0,77.50012474729766,0,90,1.0,4,2.5721092301349007e-06
5.245,0.0,77.50007440562757,0,90,1.0,4,1.5341366509712372e-06
5.25,0.0,77.5000438728055,0,90,1.0,4,9.045939279563829e-07
5.255,0.0,77.50002557407974,0,90,1.0,4,5.273006132535284e-07
5.26,0.0,77.50001473735715,0,90,1.0,4,3.038630339786548e-07
5.265,0.0,77.50000839564733,0,90,1.0,4,1.7310613046545994e-07
5.27,0.001684486749771458,77.50000472828614,0,90,1.0,4,9.74904359394451e-08
5.275,0.004172395771277602,77.50000263249952,0,90,1.0,4,5.4278340539238665e-08
5.28,0.009438687428818865,77.50000144893144,0,90,1.0,4,2.987487510067366e-08
5.285,0.019500507867137046,77.50000078839227,0,90,1.0,4,1.6255510733581387e-08
5.29,0.03679496976339974,77.50000042408398,0,90,1.0,4,8.743999558777732e-09
5.295,0.06340728953298436,77.50000022551548,0,90,1.0,4,4.649803676113958e-09
5.3,0.09979255396093453,77.5000001185539,0,90,1.0,4,2.4444102915911515e-09
5.305,0.14343835518453557,77.50000006161271,0,90,1.0,4,1.270365146410768e-09
5.31,0.18829581417209276,77.5000000316548,0,90,1.0,4,6.526764283671113e-10
5.315,0.2257481735193119,77.5000000160777,0,90,1.0,4,3.3149909850368374e-10
5.32,0.24718154073554727,77.50000000807279,0,90,1.0,4,1.664492507169945e-10
5.325,0.24718154074102772,77.50000000400718,0,90,1.0,4,8.262220232149817e-11
5.33,0.22574817354072055,77.50000000196638,0,90,1.0,4,4.054400801344189e-11
5.335,0.18829581422840957,77.50000000095392,0,90,1.0,4,1.9668408940467004e-11
5.34,0.14343835532456656,77.50000000045748,0,90,1.0,4,9.432491443129545e-12
5.345,0.09979255431561854,77.50000000021689,0,90,1.0,4,4.471877621926041e-12
5.35,0.06340729067170194,77.50000000010165,0,90,1.0,4,2.095881315007009e-12
5.355,0.03679497683410042,77.5000000000471,0,90,1.0,4,9.710262376531843e-13
5.36,0.019500578284482293,77.50000000002157,0,90,1.0,4,4.4478510222013693e-13
5.365,0.009439396781978427,77.50000000000976,0,90,1.0,4,2.0129602452255209e-13
5.37,0.004178588733610924,77.50000000000438,0,90,1.0,4,9.02462526243756e-14
5.375,0.0017299316936037381,77.50000000000193,0,90,1.0,4,3.984899466530871e-14
5.38,0.0008997325756988589,77.50000000000085,0,90,1.0,4,1.7580438822930315e-14
5.385,0.001634769674224814,77.50000000000037,0,90,1.0,4,7.618190156603136e-15
5.39,0.00614904736476635,77.50000000000016,0,90,1.0,4,3.2230804508705575e-15
5.395,0.02168080359963608,77.50000000000007,0,90,1.0,4,1.465036568577526e-15
5.4,0.06433400338904088,77.50000000000003,0,90,1.0,4,5.860146274310105e-16
5.405,0.1593410769217493,77.50000000000001,0,90,1.0,4,2.9300731371550523e-16
5.41,0.3291989194808569,77.5,0,90,1.0,4,0.0
5.415,0.5672906802982638,77.5,0,90,1.0,4,0.0
5.42,0.815339152120446,77.5,0,90,1.0,4,0.0
5.425,0.9768711246313155,77.50000284403532,1,90,1.0,4,5.8639903544616635e-08
5.43,0.9726380909165361,77.50000563434857,0,90,1.0,4,1.161721354257923e-07
5.435,0.7921091683291741,77.50001194034442,0,90,1.0,4,2.4619266848754496e-07
5.44,0.49139090102639077,77.50002813743002,0,90,1.0,4,5.801531963196297e-07
5.445,0.15739335672107918,77.50007456926916,0,90,1.0,4,1.5375107043195215e-06
5.45,-0.11102342218909485,77.50021555237494,0,90,1.0,4,4.444378864730322e-06
5.455,-0.2314207883647528,77.50064634651709,0,90,1.0,4,1.332673231106653e-05
5.46,-0.2029124434754801,77.50192715835341,0,90,1.0,4,3.973522378166224e-05
5.465,-0.11151350554305876,77.50556436458237,0,90,1.0,4,0.00011472916664678985
5.47,-0.039430666652076896,77.5153360380951,0,90,1.0,4,0.0003162069710329893
5.475,-0.006087703519843621,77.54004933030063,0,90,1.0,4,0.0008257593876419144
5.48,0.005350271385530551,77.59872426259801,0,90,1.0,4,0.002035551806144569
5.485,0.010381647827441833,77.72927397114614,0,90,1.0,4,0.004727298374147262
5.49,0.015115203303506243,78.0011213460085,0,90,1.0,4,0.01033239888677326
5.495,0.021170964062928475,78.53026214977955,0,90,1.0,4,0.02124251855215558
5.5,0.029082821134029553,79.49175422945842,0,90,1.0,4,0.041067097514606646
5.505,0.03923107061708144,81.12018821167895,0,90,1.0,4,0.0746430559109062
5.51,0.051969043308817596,83.68572301825407,0,90,1.0,4,0.12754068078874364
5.515,0.06760532616283861,87.43548636982642,0,90,1.0,4,0.204855389068586
5.52,0.08636519236693461,92.5008021671065,0,90,1.0,4,0.30929489004343297
5.525,0.10834733138818661,98.78935026029112,0,90,1.0,4,0.4389556754699199
5.53,0.1334809643017884,105.90117170753103,0,90,1.0,4,0.585591169227444
5.535,0.16148868344343945,113.11621193300405,0,90,1.0,4,0.7343548852165784
5.54,0.191860907532018,119.48749438013431,0,90,1.0,4,0.8657215336110167
5.545,0.22384764873847726,124.03653874510518,0,90,1.0,4,0.9595162627856737
5.55,0.25647215537198226,126.0,0,90,1.0,4,1.0
5.555,0.2885689161419028,125.04326482741723,0,90,1.0,4,0.9802735015962316
5.56,0.31884566517832524,121.35937653466117,0,90,1.0,4,0.9043170419517766
5.565,0.3459657668955683,115.61360140385835,0,90,1.0,4,0.7858474516259455
5.57,0.3686441789190902,108.75594891707162,0,90,1.0,4,0.6444525549911674
5.575,0.3857476379544367,101.77461151529064,0,90,1.0,4,0.5005074539235185
5.58,0.3963882865005728,95.47810717617381,0,90,1.0,4,0.37068262218915066
5.585,0.4,90.36949924832,0,90,1.0,4,0.26535049996536075
5.59,0.39638828650057273,86.62992216347705,0,90,1.0,4,0.18824581780365046
5.595,0.38574763795443656,84.18612234560806,0,90,1.0,4,0.1378581926929496
5.6,0.36864417891908974,82.81567309579101,0,90,1.0,4,0.1096015071297116
5.605,0.345965766895568,82.24668045311486,0,90,1.0,4,0.09786970006422396
5.61,0.3188456651783249,82.22677563441158,0,90,1.0,4,0.09745929143116662
5.615,0.28856891614190205,82.55618463062414,0,90,1.0,4,0.10425122949740505
5.62,0.2564721553719815,83.09295775268306,0,90,1.0,4,0.11531871655016625
5.625,0.22384764873847685,83.74288099322293,0,90,1.0,4,0.12871919573655516
5.63,0.19186090753201765,84.44470761789947,0,90,1.0,4,0.1431898477917416
5.635,0.16148868344343878,85.15701212826306,0,90,1.0,4,0.15787653872707344
5.64,0.1334809643017881,85.84902108131057,0,90,1.0,4,0.17214476456310449
5.645,0.10834733138818531,86.49535961413758,0,90,1.0,4,0.18547133225025947
5.65,0.08636519236690572,87.07368281210313,0,90,1.0,4,0.1973955218990336
5.655,0.06760532616242629,87.56407233300035,0,90,1.0,4,0.2075066460412444
5.66,0.05196904332202373,87.94934169797176,0,90,1.0,4,0.21545034428807755
5.665,0.03923107185803287,88.21569761819234,0,90,1.0,4,0.22094221893180077
5.67,0.02908287038705761,88.35343302302121,0,90,1.0,4,0.22378212418600435
5.675,0.02117220077308346,88.35747043745516,0,90,1.0,4,0.22386536984443636
5.68,0.0151361834125735,88.22765859398775,0,90,1.0,4,0.22118883698943825
5.685,0.010626454858290009,87.96877763919233,0,90,1.0,4,0.21585108534417166
5.69,0.007326255555493652,87.59024579975109,0,90,1.0,4,0.20804630514950698
5.695,0.004960179211183015,87.10555038207744,0,90,1.0,4,0.19805258519747296
5.7,0.0032978759379303545,86.53145038403952,0,90,1.0,4,0.18621547183586631
5.705,0.002153242296767213,85.88701624442398,0,90,1.0,4,0.17292816998812321
5.71,0.001380616732225004,85.1925832624303,0,90,1.0,4,0.1586099641738207
5.715,0.0008693106590991584,84.46869833167638,0,90,1.0,4,0.14368450168404903
5.72,0.000537524815942247,83.73513500639436,0,90,1.0,4,0.1285594846679249
5.725,0.0003263951340288585,83.0100405618299,0,90,1.0,4,0.11360908374907003
5.73,0.00019463030985187395,82.30926233944837,0,90,1.0,4,0.09916004823604879
5.735,0.00011397219555062695,81.6458814331628,0,90,1.0,4,0.08548209140541854
5.74,6.55403863487943e-05,81.02996195780577,0,90,1.0,4,0.07278272077950036
5.745,3.701184389455385e-05,80.46850585648903,0,90,1.0,4,0.06120630631936147
5.75,2.0525516217290957e-05,79.96558814237727,0,90,1.0,4,0.05083686891499528
5.755,1.1178128483661116e-05,79.52263674653703,0,90,1.0,4,0.04170385044406251
5.76,5.978135409912517e-06,79.13881522901951,0,90,1.0,4,0.03379000472205183
5.765,3.1396702713238487e-06,78.81146536827063,0,90,1.0,4,0.02704052305712643
5.77,1.6192875458531019e-06,78.53656943790337,0,90,1.0,4,0.02137256572996633
5.775,8.201353897972012e-07,78.30919783276481,0,90,1.0,4,0.016684491397212564
5.78,4.0791415086824765e-07,78.12391547782335,0,90,1.0,4,0.012864236656151455
5.785,1.9923866938774793e-07,77.97512900761184,0,90,1.0,4,0.009796474383749296
5.79,9.556527981051257e-08,77.85736504432592,0,90,1.0,4,0.007368351429400348
5.795,4.501406988770349e-08,77.76547726284619,0,90,1.0,4,0.005473757996828657
5.8,0.0,77.69478581665143,0,90,1.0,4,0.00401620240518417
5.805,0.0,77.6411568854654,0,90,1.0,4,0.00291045124670941
5.81,0.0,77.60103260291042,0,90,1.0,4,0.002083146451761279
5.815,0.0,77.57142261616407,0,90,1.0,4,0.0014726312611148655
5.82,0.0,77.54986831612662,0,90,1.0,4,0.0010282127036416499
5.825,0.0,77.53438970032784,0,90,1.0,4,0.0007090659861409428
5.83,0.0,77.52342323181401,0,90,1.0,4,0.00048295323327850095
5.835,0.0,77.5157572338132,0,90,1.0,4,0.0003248914188289516
5.84,0.0,77.5104695467323,0,90,1.0,4,0.0002158669429339278
5.845,0.0,77.50687053439142,0,90,1.0,4,0.0001416605029159711
5.85,0.0,77.50445315583923,0,90,1.0,4,9.18176461696771e-05
5.855,0.0,77.50285075573734,0,90,1.0,4,5.8778468811167315e-05
5.86,0.0,77.50180246507347,0,90,1.0,4,3.7164228318914934e-05
5.865,0.0,77.50112561130648,0,90,1.0,4,2.320848054592744e-05
5.87,0.0,77.50069426420308,0,90,1.0,4,1.4314725836628867e-05
5.875,0.0,77.50042293715272,0,90,1.0,4,8.720353664334793e-06
5.88,0.0,77.50025447295847,0,90,1.0,4,5.246865123178123e-06
5.885,0.0,77.5001512245073,0,90,1.0,4,3.1180310784715326e-06
5.89,0.0,77.50008876003304,0,90,1.0,4,1.8301037739641372e-06
5.895,0.0,77.50005145498665,0,90,1.0,4,1.0609275597237956e-06
5.9,0.0,77.50002946132142,0,90,1.0,4,6.074499261445715e-07
5.905,0.0,77.50001666064122,0,90,1.0,4,3.4351837571521924e-07
5.91,0.001684486749771458,77.50000930563341,0,90,1.0,4,1.9186873015014592e-07
5.915,0.004172395771277602,77.50000513351583,0,90,1.0,4,1.0584568716572885e-07
5.92,0.009438687428818865,77.50000279703956,0,90,1.0,4,5.767091868891811e-08
5.925,0.019500507867137046,77.50000150520984,0,90,1.0,4,3.103525438474236e-08
5.93,0.03679496976339974,77.50000080003728,0,90,1.0,4,1.649561411176899e-08
5.935,0.06340728953298436,77.50000041998922,0,90,1.0,4,8.659571552381805e-09
5.94,0.09979255396093453,77.50000021776135,0,90,1.0,4,4.48992482139972e-09
5.945,0.14343835518453557,77.50000011151626,0,90,1.0,4,2.2993042796198217e-09
5.95,0.18829581417209276,77.50000005640405,0,90,1.0,4,1.162970054736565e-09
5.955,0.2257481735193119,77.50000002817715,0,90,1.0,4,5.809722645692803e-10
5.96,0.24718154073554727,77.50000001390269,0,90,1.0,4,2.866534501175845e-10
5.965,0.24718154074102772,77.5000000067751,0,90,1.0,4,1.396927018504357e-10
5.97,0.22574817354072055,77.50000000326096,0,90,1.0,4,6.723638827829698e-11
5.975,0.18829581422840957,77.50000000155022,0,90,1.0,4,3.196328883128332e-11
5.98,0.14343835532456656,77.50000000072787,0,90,1.0,4,1.5007541601194463e-11
5.985,0.09979255431561854,77.50000000033754,0,90,1.0,4,6.9595097153706806e-12
5.99,0.06340729067170194,77.5000000001546,0,90,1.0,4,3.1876265659109813e-12
5.995,0.03679497683410042,77.50000000006995,0,90,1.0,4,1.4421819981077167e-12
6.0,0.019500578284482293,77.50000000003125,0,90,1.0,4,6.44323082860396e-13
6.005,0.009439396781978427,77.50000000001378,0,90,1.0,4,2.8421709430404007e-13
6.01,0.004178588733610924,77.50000000000601,0,90,1.0,4,1.239420937016587e-13
6.015,0.0017299316936037381,77.50000000000259,0,90,1.0,4,5.332733109622195e-14
6.02,0.0008997325756988589,77.5000000000011,0,90,1.0,4,2.25615631560939e-14
6.025,0.001634769674224814,77.50000000000045,0,90,1.0,5,9.376234038896167e-15
6.03,0.00614904736476635,77.50000000000018,0,90,1.0,5,3.809095078301568e-15
6.035,0.02168080359963608,77.50000000000007,0,90,1.0,5,1.465036568577526e-15
6.04,0.06433400338904088,77.50000000000003,0,90,1.0,5,5.860146274310105e-16
6.045,0.1593410769217493,77.50000000000001,0,90,1.0,5,2.9300731371550523e-16
6.05,0.3291989194808569,77.5,0,90,1.0,5,0.0
6.055,0.5672906802982638,77.5,0,90,1.0,5,0.0
6.06,0.815339152120446,77.5,0,90,1.0,5,0.0
6.065,0.9768711246313155,77.50000285328441,1,90,1.0,5,5.883060647572643e-08
6.07,0.9726380909165361,77.50000562140409,0,90,1.0,5,1.1590523887282392e-07
6.075,0.7921091683291741,77.50001183073464,0,90,1.0,5,2.4393267289710397e-07
6.08,0.49139090102639077,77.50002762917026,0,90,1.0,5,5.696736136471992e-07
6.085,0.15739335672107918,77.50007245443882,0,90,1.0,5,1.4939059550923367e-06
6.09,-0.11102342218909485,77.50020725996767,0,90,1.0,5,4.273401395187075e-06
6.095,-0.2314207883647528,77.50061582704151,0,90,1.0,5,1.269746477348854e-05
6.1,-0.2029124434754801,77.50182248868452,0,90,1.0,5,3.757708627885804e-05
6.105,-0.11151350554305876,77.5052310715901,0,90,1.0,5,0.00010785714618768954
6.11,-0.039430666652076896,77.51435172175279,0,90,1.0,5,0.0002959117887172917
6.115,-0.006087703519843621,77.53735285072946,0,90,1.0,5,0.0007701618707105621
6.12,0.005350271385530551,77.5918691803079,0,90,1.0,5,0.0018942099032555814
6.125,0.010381647827441833,77.71309481986977,0,90,1.0,5,0.004393707626180756
6.13,0.015115203303506243,77.96566482587883,0,90,1.0,5,0.009601336616058397
6.135,0.021170964062928475,78.45812550344493,0,90,1.0,5,0.01975516501948315
6.14,0.029082821134029553,79.35558674678168,0,90,1.0,5,0.03825952055219964
6.145,0.03923107061708144,80.88198151748664,0,90,1.0,5,0.06973157768013682
6.15,0.051969043308817596,83.30025257051231,0,90,1.0,5,0.11959283650540853
6.155,0.06760532616283861,86.86014114836432,0,90,1.0,5,0.19299260099720247
6.16,0.08636519236693461,91.71228864363101,0,90,1.0,5,0.29303687925012395
6.165,0.10834733138818661,97.80423612993579,0,90,1.0,5,0.4186440439162018
6.17,0.1334809643017884,104.79307462662686,0,90,1.0,5,0.5627438067345745
6.175,0.16148868344343945,112.02004978372179,0,90,1.0,5,0.7117536037880781
6.18,0.191860907532018,118.58316466468419,0,90,1.0,5,0.8470755600965812
6.185,0.22384764873847726,123.51148828718976,0,90,1.0,5,0.9486904801482425
6.19,0.25647215537198226,126.0,0,90,1.0,5,1.0
6.195,0.2885689161419028,125.62830221298329,0,90,1.0,5,0.9923361281027482
6.2,0.31884566517832524,122.48203243932362,0,90,1.0,5,0.9274645863778066
6.205,0.3459657668955683,117.12925074937131,0,90,1.0,5,0.8170979535952847
6.21,0.3686441789190902,110.46116941721593,0,90,1.0,5,0.6796117405611531
6.215,0.3857476379544367,103.45897551850818,0,90,1.0,5,0.5352366086290347
6.22,0.3963882865005728,96.97065636772538,0,90,1.0,5,0.4014568323242347
6.225,0.4,91.56589466519785,0,90,1.0,5,0.29001844670511023
6.23,0.39638828650057273,87.49604796974954,0,90,1.0,5,0.206104081850506
6.235,0.38574763795443656,84.74329427423734,0,90,1.0,5,0.14934627369561532
6.24,0.36864417891908974,83.11746244254847,0,90,1.0,5,0.11582396788759737
6.245,0.345965766895568,82.3568848664176,0,90,1.0,5,0.10014195600861034
6.25,0.3188456651783249,82.20419486948393,0,90,1.0,5,0.09699370864915315
6.255,0.28856891614190205,82.4474226772088,0,90,1.0,5,0.102008714993996
6.26,0.2564721553719815,82.93146838815557,0,90,1.0,5,0.11198903893104258
6.265,0.22384764873847685,83.55144100802794,0,90,1.0,5,0.12477197954696775
6.27,0.19186090753201765,84.23890517799641,0,90,1.0,5,0.13894649851539
6.275,0.16148868344343878,84.94831218827366,0,90,1.0,5,0.15357344718090024
6.28,0.1334809643017881,85.64686744660881,0,90,1.0,5,0.16797664838368678
6.285,0.10834733138818531,86.30832747591782,0,90,1.0,5,0.18161499950346022
6.29,0.08636519236690572,86.90992131114385,0,90,1.0,5,0.19401899610605872
6.295,0.06760532616242629,87.43130093518502,0,90,1.0,5,0.20476909144711383
6.3,0.05196904332202373,87.85460739278714,0,90,1.0,5,0.21349705964509577
6.305,0.03923107185803287,88.16503318602679,0,90,1.0,5,0.21989759146446988
6.31,0.02908287038705761,88.35150634707973,0,90,1.0,5,0.2237423989088605
6.315,0.02117220077308346,88.40728293523891,0,90,1.0,5,0.22489243165441053
6.32,0.0151361834125735,88.33033092317498,0,90,1.0,5,0.22330579223041203
6.325,0.010626454858290009,88.12344658788109,0,90,1.0,5,0.21904013583259982
6.33,0.007326255555493652,87.79408397232552,0,90,1.0,5,0.2122491540685675
6.335,0.004960179211183015,87.35390857822988,0,90,1.0,5,0.20317337274700778
6.34,0.0032978759379303545,86.81811153597118,0,90,1.0,5,0.19212601105095226
6.345,0.002153242296767213,86.20454017631614,0,90,1.0,5,0.17947505518177614
6.35,0.001380616732225004,85.5327142396845,0,90,1.0,5,0.1656229740141133
6.355,0.0008693106590991584,84.82280306012088,0,90,1.0,5,0.15098563010558508
6.36,0.000537524815942247,84.09463776038064,0,90,1.0,5,0.13597191258516775
6.365,0.0003263951340288585,83.36682439710084,0,90,1.0,5,0.1209654514866153
6.37,0.00019463030985187395,82.65601043153745,0,90,1.0,5,0.10630949343376192
6.375,0.00011397219555062695,81.97633972309383,0,90,1.0,5,0.09229566439368721
6.38,6.55403863487943e-05,81.33911255053565,0,90,1.0,5,0.07915695980485868
6.385,3.701184389455385e-05,80.75264902476607,0,90,1.0,5,0.0670649283456922
6.39,2.0525516217290957e-05,80.22233844465784,0,90,1.0,5,0.05613068958057395
6.395,1.1178128483661116e-05,79.75084496649728,0,90,1.0,5,0.04640917456695429
6.4,5.978135409912517e-06,79.33843213578254,0,90,1.0,5,0.03790581723262969
6.405,3.1396702713238487e-06,78.9833655092204,0,90,1.0,5,0.030584855860214546
6.41,1.6192875458531019e-06,78.682353399043,0,90,1.0,5,0.02437842059882464
6.415,8.201353897972012e-07,78.43098993416538,0,90,1.0,5,0.019195668745677973
6.42,4.0791415086824765e-07,78.22417115200214,0,90,1.0,5,0.014931363958807063
6.425,1.9923866938774793e-07,78.05646263625866,0,90,1.0,5,0.011473456417704288
6.43,9.556527981051257e-08,77.92240529264143,0,90,1.0,5,0.008709387477142862
6.435,4.501406988770349e-08,77.81675337219069,0,90,1.0,5,0.006530997364756479
6.44,0.0,77.73464521201578,0,90,1.0,5,0.004838045608572738
6.445,0.0,77.6717120211314,0,90,1.0,5,0.0035404540439463563
6.45,0.0,77.62413328746686,0,90,1.0,5,0.002559449226120855
6.455,0.0,77.58864910755129,0,90,1.0,5,0.0018278166505420771
6.46,0.0,77.56254016636984,0,90,1.0,5,0.0012894879663885074
6.465,0.0,77.54358552186387,0,90,1.0,5,0.0008986705538943297
6.47,0.0,77.53000709975734,0,90,1.0,5,0.0006187030877802349
6.475,0.0,77.52040818335705,0,90,1.0,5,0.00042078728571233844
6.48,0.0,77.51371144502332,0,90,1.0,5,0.00028271020666635973
6.485,0.0,77.50910040372447,0,90,1.0,5,0.00018763719019534853
6.49,0.0,77.50596673357165,0,90,1.0,5,0.00012302543446709286
6.495,0.0,77.5038646590576,0,90,1.0,5,7.968369190923545e-05
6.5,0.0,77.50247277317126,0,90,1.0,5,5.098501384047511e-05
6.505,0.0,77.50156298902219,0,90,1.0,5,3.222657777711771e-05
6.51,0.0,77.50097594676535,0,90,1.0,5,2.0122613718576384e-05
6.515,0.0,77.50060199777202,0,90,1.0,5,1.2412325196347533e-05
6.52,0.0,77.50036682775895,0,90,1.0,5,7.563458947475906e-06
6.525,0.0,77.50022081473722,0,90,1.0,5,4.552881179766775e-06
6.53,0.0,77.50013130838836,0,90,1.0,5,2.707389450754996e-06
6.535,0.0,77.50007713570277,0,90,1.0,5,1.5904268611824797e-06
6.54,0.0,77.50004476277108,0,90,1.0,5,9.229437336633748e-07
6.545,0.0,77.5000256612047,0,90,1.0,5,5.290970041749967e-07
6.55,0.0,77.50001453234408,0,90,1.0,5,2.996359604512503e-07
6.555,0.001684486749771458,77.50000813004326,0,90,1.0,5,1.6762975784547157e-07
6.56,0.004172395771277602,77.50000449312597,0,90,1.0,5,9.264177259462213e-08
6.565,0.009438687428818865,77.50000245303015,0,90,1.0,5,5.057794121207688e-08
6.57,0.019500507867137046,77.50000132298747,0,90,1.0,5,2.7278092215731037e-08
6.575,0.03679496976339974,77.50000070486692,0,90,1.0,5,1.4533338564677289e-08
6.58,0.06340728953298436,77.50000037098563,0,90,1.0,5,7.64918827934304e-09
6.585,0.09979255396093453,77.50000019288817,0,90,1.0,5,3.97707558524004e-09
6.59,0.14343835518453557,77.5000000990724,0,90,1.0,5,2.042729788299016e-09
6.595,0.18829581417209276,77.50000005026877,0,90,1.0,5,1.0364694211715425e-09
6.6,0.2257481735193119,77.50000002519663,0,90,1.0,5,5.195180826198451e-10
6.605,0.24718154073554727,77.50000001247628,0,90,1.0,5,2.572428410033907e-10
6.61,0.24718154074102772,77.50000000610277,0,90,1.0,5,1.2583023283124142e-10
6.615,0.22574817354072055,77.50000000294894,0,90,1.0,5,6.080282669104563e-11
6.62,0.18829581422840957,77.50000000140768,0,90,1.0,5,2.90244254747168e-11
6.625,0.14343835532456656,77.5000000006638,0,90,1.0,5,1.3686664630964965e-11
6.63,0.09979255431561854,77.50000000030923,0,90,1.0,5,6.375839146449394e-12
6.635,0.06340729067170194,77.50000000014231,0,90,1.0,5,2.9341752395470693e-12
6.64,0.03679497683410042,77.50000000006469,0,90,1.0,5,1.3337692920329797e-12
6.645,0.019500578284482293,77.50000000002905,0,90,1.0,5,5.989069492344927e-13
6.65,0.009439396781978427,77.50000000001289,0,90,1.0,5,2.6575763353996326e-13
6.655,0.004178588733610924,77.50000000000564,0,90,1.0,5,1.1632390354505557e-13
6.66,0.0017299316936037381,77.50000000000244,0,90,1.0,5,5.03972579590669e-14
6.665,0.0008997325756988589,77.50000000000105,0,90,1.0,5,2.1682541214947386e-14
6.67,0.001634769674224814,77.50000000000044,0,90,1.0,5,9.083226725180661e-15
6.675,0.00614904736476635,77.50000000000018,0,90,1.0,5,3.809095078301568e-15
6.68,0.02168080359963608,77.50000000000007,0,90,1.0,5,1.465036568577526e-15
6.685,0.06433400338904088,77.50000000000003,0,90,1.0,5,5.860146274310105e-16
6.69,0.1593410769217493,77.50000000000001,0,90,1.0,5,2.9300731371550523e-16
6.695,0.3291989194808569,77.5,0,90,1.0,5,0.0
6.7,0.5672906802982638,77.5,0,90,1.0,5,0.0
6.705,0.815339152120446,77.5,0,90,1.0,5,0.0
6.71,0.9768711246313155,77.50000284322633,1,90,1.0,5,5.862322322426144e-08
6.715,0.9726380909165361,77.50000534910116,0,90,1.0,5,1.102907455352232e-07
6.72,0.7921091683291741,77.50001063505204,0,90,1.0,5,2.1927942341171353e-07
6.725,0.49139090102639077,77.50002307583767,0,90,1.0,5,4.757904675148218e-07
6.73,0.15739335672107918,77.5000554713907,0,90,1.0,5,1.143740014331155e-06
6.735,-0.11102342218909485,77.50014526993121,0,90,1.0,5,2.9952563136014092e-06
6.74,-0.2314207883647528,77.5003988898635,0,90,1.0,5,8.224533268130659e-06
6.745,-0.2029124434754801,77.5011054659756,0,90,1.0,5,2.279311289893738e-05
6.75,-0.11151350554305876,77.50300976888175,0,90,1.0,5,6.205709034543127e-05
6.755,-0.039430666652076896,77.50792185780857,0,90,1.0,5,0.00016333727440347813
6.76,-0.006087703519843621,77.51997904089026,0,90,1.0,5,0.0004119389874281015
6.765,0.005350271385530551,77.54805187102536,0,90,1.0,5,0.000990760227327109
6.77,0.010381647827441833,77.60993273918042,0,90,1.0,5,0.0022666544160911822
6.775,0.015115203303506243,77.73890414692885,0,90,1.0,5,0.0049258586995638304
6.78,0.021170964062928475,77.99279598451152,0,90,1.0,5,0.01016074194869107
6.785,0.029082821134029553,78.46442565053172,0,90,1.0,5,0.01988506495941697
6.79,0.03923107061708144,79.29027244272471,0,90,1.0,5,0.03691283387061265
6.795,0.051969043308817596,80.65176405432197,0,90,1.0,5,0.06498482586230872
6.8,0.06760532616283861,82.76179436299392,0,90,1.0,5,0.10849060542255515
6.805,0.08636519236693461,85.82984126010565,0,90,1.0,5,0.1717493043320753
6.81,0.10834733138818661,90.00401066771741,0,90,1.0,5,0.257814652942627
6.815,0.1334809643017884,95.29777724070067,0,90,1.0,5,0.3669644791897045
6.82,0.16148868344343945,101.52070486511198,0,90,1.0,5,0.4952722652600408
6.825,0.191860907532018,108.24076061437154,0,90,1.0,5,0.633830115760238
6.83,0.22384764873847726,114.80477932285345,0,90,1.0,5,0.7691707076877
6.835,0.25647215537198226,120.42962228136281,0,90,1.0,5,0.8851468511621198
6.84,0.2885689161419028,124.35209848293255,0,90,1.0,5,0.9660226491326298
6.845,0.31884566517832524,126.0,0,90,1.0,5,1.0
6.85,0.3459657668955683,125.13199699060715,0,90,1.0,5,0.982103030734168
6.855,0.3686441789190902,121.89956504594475,0,90,1.0,5,0.9154549494009228
6.86,0.3857476379544367,116.80934959217932,0,90,1.0,5,0.8105020534469962
6.865,0.3963882865005728,110.59911497723489,0,90,1.0,5,0.6824559789120596
6.87,0.4,104.06935062625563,0,90,1.0,5,0.5478216623970232
6.875,0.39638828650057273,97.92347769263611,0,90,1.0,5,0.421102632837858
6.88,0.38574763795443656,92.65949215512845,0,90,1.0,5,0.3125668485593494
6.885,0.36864417891908974,88.53181629485155,0,90,1.0,5,0.22746012979075364
6.89,0.345965766895568,85.57626122980984,0,90,1.0,5,0.16652085009917206
6.895,0.3188456651783249,83.67383914290984,0,90,1.0,5,0.12729565243113075
6.9,0.28856891614190205,82.62499201165721,0,90,1.0,5,0.1056699383846848
6.905,0.2564721553719815,82.2123239726345,0,90,1.0,5,0.09716131902339162
6.91,0.22384764873847685,82.24122011682826,0,90,1.0,5,0.09775711581089194
6.915,0.19186090753201765,82.5580522820505,0,90,1.0,5,0.10428973777423704
6.92,0.16148868344343878,83.05182219454407,0,90,1.0,5,0.11447056071224893
6.925,0.1334809643017881,83.64676889072895,0,90,1.0,5,0.12673750290162783
6.93,0.10834733138818531,84.29215130262087,0,90,1.0,5,0.1400443567550694
6.935,0.08636519236690572,84.95297587109219,0,90,1.0,5,0.15366960558952975
6.94,0.06760532616242629,85.6032141410097,0,90,1.0,5,0.16707658022700414
6.945,0.05196904332202373,86.22161625213593,0,90,1.0,5,0.17982713921929755
6.95,0.03923107185803287,86.78956826301784,0,90,1.0,5,0.19153748995913075
6.955,0.02908287038705761,87.29030500025087,0,90,1.0,5,0.20186195876805912
6.96,0.02117220077308346,87.70890109634271,0,90,1.0,5,0.21049280611015905
6.965,0.0151361834125735,88.03263653005703,0,90,1.0,5,0.21716776350633057
6.97,0.010626454858290009,88.25148247455117,0,90,1.0,5,0.22168005102167357
6.975,0.007326255555493652,88.35855638009744,0,90,1.0,5,0.22388776041438022
6.98,0.004960179211183015,88.35045923154104,0,90,1.0,5,0.22372080889775336
6.985,0.0032978759379303545,88.22744713680183,0,90,1.0,5,0.2211844770474604
6.99,0.002153242296767213,87.99341542663203,0,90,1.0,5,0.21635908096148507
6.995,0.001380616732225004,87.65569305578572,0,90,1.0,5,0.20939573310898388
7.0,0.0008693106590991584,87.22466123620943,0,90,1.0,5,0.20050847909710162
7.005,0.000537524815942247,86.71322360224083,0,90,1.0,5,0.189963373242079
7.01,0.0003263951340288585,86.13616550482689,0,90,1.0,5,0.17806526814076065
7.015,0.00019463030985187395,85.50944672085147,0,90,1.0,5,0.1651432313577623
7.02,0.00011397219555062695,84.84947457720351,0,90,1.0,5,0.15153555829285587
7.025,6.55403863487943e-05,84.17240320268115,0,90,1.0,5,0.1375753237666217
7.03,3.701184389455385e-05,83.49349969202193,0,90,1.0,5,0.12357731323756552
7.035,2.0525516217290957e-05,82.8266100918151,0,90,1.0,5,0.10982701220237316
7.04,1.1178128483661116e-05,82.18374823881719,0,90,1.0,5,0.09657212863540593
7.045,5.978135409912517e-06,81.57481966179543,0,90,1.0,5,0.08401690024320475
7.05,3.1396702713238487e-06,81.00748205938964,0,90,1.0,5,0.07231921771937412
7.055,1.6192875458531019e-06,80.48713423047259,0,90,1.0,5,0.061590396504589515
7.06,8.201353897972012e-07,80.01701749313209,0,90,1.0,5,0.051897267899630665
7.065,4.0791415086824765e-07,79.59840805263835,0,90,1.0,5,0.04326614541522367
7.07,1.9923866938774793e-07,79.23087565482302,0,90,1.0,5,0.03568815783140255
7.075,9.556527981051257e-08,78.91258311223406,0,90,1.0,5,0.029125424994516702
7.08,4.501406988770349e-08,78.64060262096777,0,90,1.0,5,0.023517579813768435
7.085,0.0,78.41122774696173,0,90,1.0,5,0.018788200968283056
7.09,0.0,78.22026402057521,0,90,1.0,5,0.01485080454794257
7.095,0.0,78.06328569392375,0,90,1.0,5,0.0116141380190463
7.1,0.0,77.93585088962875,0,90,1.0,5,0.00898661628100522
7.105,0.0,77.83367169477451,0,90,1.0,5,0.006879828758237296
7.11,0.0,77.75273943637394,0,90,1.0,5,0.005211122399462747
7.115,0.0,77.68940824197168,0,90,1.0,5,0.0039053245767356024
7.12,0.0,77.64044198158881,0,90,1.0,5,0.0028957109605939712
7.125,0.0,77.60303083963844,0,90,1.0,5,0.00212434720903991
7.13,0.0,77.57478418147271,0,90,1.0,5,0.0015419418860352196
7.135,0.0,77.55370620498225,0,90,1.0,5,0.001107344432623672
7.14,0.0,77.53816026664151,0,90,1.0,5,0.0007868096214744733
7.145,0.0,77.5268269037557,0,90,1.0,5,0.0005531320362000976
7.15,0.0,77.51865958225872,0,90,1.0,5,0.00038473365481898506
7.155,0.0,77.51284119666562,0,90,1.0,5,0.00026476694155915014
7.16,0.0,77.50874341903805,0,90,1.0,5,0.00018027668119700757
7.165,0.0,77.505890189993,0,90,1.0,5,0.00012144721635044119
7.17,0.0,77.50392599307456,0,90,1.0,5,8.09483108156721e-05
7.175,0.0,77.50258905913398,0,90,1.0,5,5.338266255632296e-05
7.18,0.0,77.5016892993909,0,90,1.0,5,3.483091527636903e-05
7.185,0.0,77.50109054476202,0,90,1.0,5,2.2485459010757733e-05
7.19,0.0,77.50069655045753,0,90,1.0,5,1.436186510378067e-05
7.195,0.0,77.50044018362493,0,90,1.0,5,9.075951029515017e-06
7.2,0.0,77.50027522469445,0,90,1.0,5,5.674735968003793e-06
7.205,0.0,77.50017026019599,0,90,1.0,5,3.510519504872493e-06
7.21,0.0,77.50010421040284,0,90,1.0,5,2.1486680997647275e-06
7.215,0.0,77.50006310753771,0,90,1.0,5,1.3011863445954827e-06
7.22,0.0,77.5000378114743,0,90,1.0,5,7.796180268049977e-07
7.225,0.0,77.50002241497207,0,90,1.0,5,4.6216437247672616e-07
7.23,0.0,77.5000131469499,0,90,1.0,6,2.710711318914693e-07
7.235,0.0,77.50000762928833,0,90,1.0,6,1.57304914093458e-07
7.24,0.0,77.50000438041506,0,90,1.0,6,9.031783636216751e-08
7.245,0.001684486749771458,77.50000248839153,0,90,1.0,6,5.1307041859058467e-08
7.25,0.004172395771277602,77.50000139860276,0,90,1.0,6,2.8837170360667496e-08
7.255,0.009438687428818865,77.50000077775401,0,90,1.0,6,1.6036165165526644e-08
7.26,0.019500507867137046,77.50000042791977,0,90,1.0,6,8.823088092895821e-09
7.265,0.03679496976339974,77.50000023294568,0,90,1.0,6,4.803003722119365e-09
7.27,0.06340728953298436,77.50000012546401,0,90,1.0,6,2.586886855929198e-09
7.275,0.09979255396093453,77.50000006685839,0,90,1.0,6,1.3785235221371999e-09
7.28,0.14343835518453557,77.50000003525047,0,90,1.0,6,7.268137248980359e-10
7.285,0.18829581417209276,77.50000001838849,0,90,1.0,6,3.791441387650209e-10
7.29,0.2257481735193119,77.50000000949072,0,90,1.0,6,1.9568493446490017e-10
7.295,0.24718154073554727,77.50000000484647,0,90,1.0,6,9.99272142695359e-11
7.3,0.24718154074102772,77.50000000244863,0,90,1.0,6,5.048721120437756e-11
7.305,0.22574817354072055,77.50000000122404,0,90,1.0,6,2.5237891959571327e-11
7.31,0.18829581422840957,77.50000000060538,0,90,1.0,6,1.2482111564280523e-11
7.315,0.14343835532456656,77.50000000029624,0,90,1.0,6,6.108030461713422e-12
7.32,0.09979255431561854,77.50000000014343,0,90,1.0,6,2.9573228173305944e-12
7.325,0.06340729067170194,77.50000000006871,0,90,1.0,6,1.4166903618144677e-12
7.33,0.03679497683410042,77.50000000003256,0,90,1.0,6,6.712797557222225e-13
7.335,0.019500578284482293,77.50000000001526,0,90,1.0,6,3.146898549304526e-13
7.34,0.009439396781978427,77.50000000000708,0,90,1.0,6,1.4591764223032162e-13
7.345,0.004178588733610924,77.50000000000325,0,90,1.0,6,6.70986748408507e-14
7.35,0.0017299316936037381,77.50000000000148,0,90,1.0,6,3.047276062641254e-14
7.355,0.0008997325756988589,77.50000000000067,0,90,1.0,6,1.3771343744628746e-14
7.36,0.001634769674224814,77.5000000000003,0,90,1.0,6,6.15315358802561e-15
7.365,0.00614904736476635,77.50000000000013,0,90,1.0,6,2.637065823439547e-15
7.37,0.02168080359963608,77.50000000000006,0,90,1.0,6,1.172029254862021e-15
7.375,0.06433400338904088,77.50000000000003,0,90,1.0,6,5.860146274310105e-16
7.38,0.1593410769217493,77.50000000000001,0,90,1.0,6,2.9300731371550523e-16
7.385,0.3291989194808569,77.5,0,90,1.0,6,0.0
7.39,0.5672906802982638,77.5,0,90,1.0,6,0.0
7.395,0.815339152120446,77.5,0,90,1.0,6,0.0
7.4,0.9768711246313155,77.50000284455477,1,90,1.0,6,5.865061384095488e-08
7.405,0.9726380909165361,77.50000580215873,0,90,1.0,6,1.1963213866046006e-07
7.41,0.7921091683291741,77.50001275539046,0,90,1.0,6,2.6299774139467264e-07
7.415,0.49139090102639077,77.50003153289097,0,90,1.0,6,6.501627004562926e-07
7.42,0.15739335672107918,77.50008834514392,0,90,1.0,6,1.8215493592205602e-06
7.425,-0.11102342218909485,77.50026962696381,0,90,1.0,6,5.559318841517676e-06
7.43,-0.2314207883647528,77.50084721852477,0,90,1.0,6,1.746842319109944e-05
7.435,-0.2029124434754801,77.50262352697138,0,90,1.0,6,5.4093339616011907e-05
7.44,-0.11151350554305876,77.5078033638614,0,90,1.0,6,0.00016089410023502665
7.445,-0.039430666652076896,77.52199868923158,0,90,1.0,6,0.00045358122126969516
7.45,-0.006087703519843621,77.55839158559259,0,90,1.0,6,0.0012039502184038775
7.455,0.005350271385530551,77.64544907945715,0,90,1.0,6,0.0029989500919000256
7.46,0.010381647827441833,77.83943363242335,0,90,1.0,6,0.006998631596357746
7.465,0.015115203303506243,78.24149114478274,0,90,1.0,6,0.015288477212015301
7.47,0.021170964062928475,79.01552596208309,0,90,1.0,6,0.03124795798109462
7.475,0.029082821134029553,80.39745622062914,0,90,1.0,6,0.059741365373796665
7.48,0.03923107061708144,82.68089569707755,0,90,1.0,6,0.10682259169232053
7.485,0.051969043308817596,86.16349000922408,0,90,1.0,6,0.1786286599840016
7.49,0.06760532616283861,91.04761566539297,0,90,1.0,6,0.27933228176067976
7.495,0.08636519236693461,97.31105705610833,0,90,1.0,6,0.40847540321872833
7.5,0.10834733138818661,104.59124514857123,0,90,1.0,6,0.558582374197345
7.505,0.1334809643017884,112.14479230420652,0,90,1.0,6,0.714325614519722
7.51,0.16148868344343945,118.93414437414808,0,90,1.0,6,0.8543122551370738
7.515,0.191860907532018,123.84829352749307,0,90,1.0,6,0.9556349180926406
7.52,0.22384764873847726,126.0,0,90,1.0,6,1.0
7.525,0.25647215537198226,124.99217715523251,0,90,1.0,6,0.9792201475305672
7.53,0.2885689161419028,121.04437142658236,0,90,1.0,6,0.8978220912697393
7.535,0.31884566517832524,114.92472257434005,0,90,1.0,6,0.7716437644193825
7.54,0.3459657668955683,107.71690768839707,0,90,1.0,6,0.6230290245030324
7.545,0.3686441789190902,100.51955294559312,0,90,1.0,6,0.4746299576410952
7.55,0.3857476379544367,94.19220054499121,0,90,1.0,6,0.3441690834018806
7.555,0.3963882865005728,89.22431615738736,0,90,1.0,6,0.2417384774719044
7.56,0.4,85.7397757016038,0,90,1.0,6,0.16989228250729493
7.565,0.39638828650057273,83.59551274299349,0,90,1.0,6,0.1256806751132679
7.57,0.38574763795443656,82.51202148824075,0,90,1.0,6,0.10334064924207728
7.575,0.36864417891908974,82.18453997599953,0,90,1.0,6,0.09658845311339231
7.58,0.345965766895568,82.35069195328542,0,90,1.0,6,0.10001426707804989
7.585,0.3188456651783249,82.81534105407329,0,90,1.0,6,0.10959466090872755
7.59,0.28856891614190205,83.44684964319964,0,90,1.0,6,0.12261545656081735
7.595,0.2564721553719815,84.16077579935893,0,90,1.0,6,0.1373355834919367
7.6,0.22384764873847685,84.90235137585982,0,90,1.0,6,0.15262580156412006
7.605,0.19186090753201765,85.6331163605077,0,90,1.0,6,0.1676931208352103
7.61,0.16148868344343878,86.32276772136484,0,90,1.0,6,0.1819127365229864
7.615,0.1334809643017881,86.94520055538263,0,90,1.0,6,0.1947464032037655
7.62,0.10834733138818531,87.47723188509201,0,90,1.0,6,0.2057161213421033
7.625,0.08636519236690572,87.89875236903507,0,90,1.0,6,0.2144072653409292
7.63,0.06760532616242629,88.19347427941852,0,90,1.0,6,0.2204840057612067
7.635,0.05196904332202373,88.34978775287364,0,90,1.0,6,0.22370696397677606
7.64,0.03923107185803287,88.36145639506222,0,90,1.0,6,0.22394755453736537
7.645,0.02908287038705761,88.22801050891252,0,90,1.0,6,0.22119609296726842
7.65,0.02117220077308346,87.95477284458106,0,90,1.0,6,0.21556232669239295
7.655,0.0151361834125735,87.55250483419901,0,90,1.0,6,0.20726814091131984
7.66,0.010626454858290009,87.03670299958162,0,90,1.0,6,0.1966330515377654
7.665,0.007326255555493652,86.42660878786413,0,90,1.0,6,0.18405378944049744
7.67,0.004960179211183015,85.74401975485523,0,90,1.0,6,0.16997978875990166
7.675,0.0032978759379303545,85.01200421327506,0,90,1.0,6,0.15488668480979512
7.68,0.002153242296767213,84.25362432761578,0,90,1.0,6,0.13924998613640788
7.685,0.001380616732225004,83.4907645732292,0,90,1.0,6,0.1235209190356536
7.69,0.0008693106590991584,82.74314518763843,0,90,1.0,6,0.10810608634306047
7.695,0.000537524815942247,82.02757644937837,0,90,1.0,6,0.09335209173976027
7.7,0.0003263951340288585,81.35748261877617,0,90,1.0,6,0.07953572409847783
7.705,0.00019463030985187395,80.74269753063376,0,90,1.0,6,0.0668597428996652
7.71,0.00011397219555062695,80.18951010980362,0,90,1.0,6,0.05545381669698187
7.715,6.55403863487943e-05,79.70091970511072,0,90,1.0,6,0.045379787734241665
7.72,3.701184389455385e-05,79.27704937041982,0,90,1.0,6,0.036640193204532316
7.725,2.0525516217290957e-05,78.91566034163318,0,90,1.0,6,0.029188873023364634
7.73,1.1178128483661116e-05,78.61271236828955,0,90,1.0,6,0.022942523057516498
7.735,5.978135409912517e-06,78.36292100843355,0,90,1.0,6,0.017792185740897845
7.74,3.1396702713238487e-06,78.16027286034101,0,90,1.0,6,0.013613873409092989
7.745,1.6192875458531019e-06,77.99847126514554,0,90,1.0,6,0.01027775804423793
7.75,8.201353897972012e-07,77.87129669790625,0,90,1.0,6,0.0076556020186854794
7.755,4.0791415086824765e-07,77.7728766174986,0,90,1.0,6,0.005626322010280338
7.76,1.9923866938774793e-07,77.69786812413626,0,90,1.0,6,0.004079755136830178
7.765,9.556527981051257e-08,77.64156295752402,0,90,1.0,6,0.0029188238664745575
7.77,4.501406988770349e-08,77.59992811506405,0,90,1.0,6,0.0020603735064751677
7.775,0.0,77.56959692327771,0,90,1.0,6,0.0014349881088188555
7.78,0.0,77.54782518554492,0,90,1.0,6,0.0009860862998953192
7.785,0.0,77.53242556585776,0,90,1.0,6,0.0006685683682013222
7.79,0.0,77.52169115816386,0,90,1.0,6,0.000447240374512603
7.795,0.0,77.51431667597406,0,90,1.0,6,0.0002951891953414032
7.8,0.0,77.50932321990186,0,90,1.0,6,0.00019223133818265347
7.805,0.0,77.5059903739918,0,90,1.0,6,0.000123512865810454
7.81,0.0,77.503797573812,0,90,1.0,6,7.830049096894785e-05
7.815,0.0,77.50237532362256,0,90,1.0,6,4.897574479502613e-05
7.82,0.0,77.50146589758421,0,90,1.0,6,3.02246924579589e-05
7.825,0.0,77.5008925832809,0,90,1.0,6,1.840377898765462e-05
7.83,0.0,77.50053623868786,0,90,1.0,6,1.1056467790873172e-05
7.835,0.0,77.50031785702697,0,90,1.0,6,6.553753133424103e-06
7.84,0.0,77.50018589588124,0,90,1.0,6,3.832904767934976e-06
7.845,0.0,77.50010726844758,0,90,1.0,6,2.211720568632784e-06
7.85,0.0,77.50006107148786,0,90,1.0,6,1.2592059353252255e-06
7.855,0.0,77.5000343059368,0,90,1.0,6,7.073389029596677e-07
7.86,0.001684486749771458,77.50001901359956,0,90,1.0,6,3.920329805206381e-07
7.865,0.004172395771277602,77.50001039737434,0,90,1.0,6,2.143788523562293e-07
7.87,0.009438687428818865,77.50000560979892,0,90,1.0,6,1.1566595708714398e-07
7.875,0.019500507867137046,77.50000298631205,0,90,1.0,6,6.157344442332952e-08
7.88,0.03679496976339974,77.50000156851023,0,90,1.0,6,3.2340417079729975e-08
7.885,0.06340728953298436,77.50000081283763,0,90,1.0,6,1.6759538691554346e-08
7.89,0.09979255396093453,77.5000004156086,0,90,1.0,6,8.569249410863177e-09
7.895,0.14343835518453557,77.50000020966674,0,90,1.0,6,4.323025511448859e-09
7.9,0.18829581417209276,77.50000010436113,0,90,1.0,6,2.151775976186006e-09
7.905,0.2257481735193119,77.50000005125219,0,90,1.0,6,1.0567461132952828e-09
7.91,0.24718154073554727,77.5000000248342,0,90,1.0,6,5.120452240908449e-10
7.915,0.24718154074102772,77.50000001187277,0,90,1.0,6,2.447994064045206e-10
7.92,0.22574817354072055,77.5000000056004,0,90,1.0,6,1.1547213128408461e-10
7.925,0.18829581422840957,77.50000000260646,0,90,1.0,6,5.374135043050196e-11
7.93,0.14343835532456656,77.50000000119687,0,90,1.0,6,2.467766197574728e-11
7.935,0.09979255431561854,77.50000000054226,0,90,1.0,6,1.1180573076756249e-11
7.94,0.06340729067170194,77.5000000002424,0,90,1.0,6,4.997825750045373e-12
7.945,0.03679497683410042,77.50000000010691,0,90,1.0,6,2.204294021081746e-12
7.95,0.019500578284482293,77.50000000004653,0,90,1.0,6,9.593059451045642e-13
7.955,0.009439396781978427,77.50000000001998,0,90,1.0,6,4.1196828308400036e-13
7.96,0.004178588733610924,77.50000000000846,0,90,1.0,6,1.7433935166072562e-13
7.965,0.0017299316936037381,77.50000000000354,0,90,1.0,6,7.295882111516081e-14
7.97,0.0008997325756988589,77.50000000000146,0,90,1.0,6,3.017975331269704e-14
7.975,0.001634769674224814,77.5000000000006,0,90,1.0,6,1.230630717605122e-14
7.98,0.00614904736476635,77.50000000000024,0,90,1.0,6,4.9811243331635886e-15
7.985,0.02168080359963608,77.5000000000001,0,90,1.0,6,2.0510511960085364e-15
7.99,0.06433400338904088,77.50000000000004,0,90,1.0,6,8.790219411465157e-16
7.995,0.1593410769217493,77.50000000000001,0,90,1.0,6,2.9300731371550523e-16
8.0,0.3291989194808569,77.5,0,90,1.0,6,0.0
8.005,0.5672906802982638,77.5,0,90,1.0,6,0.0
8.01,0.815339152120446,77.5,0,90,1.0,6,0.0
8.015,0.9768711246313155,77.50000284322633,1,90,1.0,6,5.862322322426144e-08
8.02,0.9726380909165361,77.50000534910116,0,90,1.0,6,1.102907455352232e-07
8.025,0.7921091683291741,77.50001063505204,0,90,1.0,6,2.1927942341171353e-07
8.03,0.49139090102639077,77.50002307583767,0,90,1.0,6,4.757904675148218e-07
8.035,0.15739335672107918,77.5000554713907,0,90,1.0,6,1.143740014331155e-06
8.04,-0.11102342218909485,77.50014526993121,0,90,1.0,6,2.9952563136014092e-06
8.045,-0.2314207883647528,77.5003988898635,0,90,1.0,6,8.224533268130659e-06
8.05,-0.2029124434754801,77.5011054659756,0,90,1.0,6,2.279311289893738e-05
8.055,-0.11151350554305876,77.50300976888175,0,90,1.0,6,6.205709034543127e-05
8.06,-0.039430666652076896,77.50792185780857,0,90,1.0,6,0.00016333727440347813
8.065,-0.006087703519843621,77.51997904089026,0,90,1.0,6,0.0004119389874281015
8.07,0.005350271385530551,77.54805187102536,0,90,1.0,6,0.000990760227327109
8.075,0.010381647827441833,77.60993273918042,0,90,1.0,6,0.0022666544160911822
8.08,0.015115203303506243,77.73890414692885,0,90,1.0,6,0.0049258586995638304
8.085,0.021170964062928475,77.99279598451152,0,90,1.0,6,0.01016074194869107
8.09,0.029082821134029553,78.46442565053172,0,90,1.0,6,0.01988506495941697
8.095,0.03923107061708144,79.29027244272471,0,90,1.0,6,0.03691283387061265
8.1,0.051969043308817596,80.65176405432197,0,90,1.0,6,0.06498482586230872
8.105,0.06760532616283861,82.76179436299392,0,90,1.0,6,0.10849060542255515
8.11,0.08636519236693461,85.82984126010565,0,90,1.0,6,0.1717493043320753
8.115,0.10834733138818661,90.00401066771741,0,90,1.0,6,0.257814652942627
8.12,0.1334809643017884,95.29777724070067,0,90,1.0,6,0.3669644791897045
8.125,0.16148868344343945,101.52070486511198,0,90,1.0,6,0.4952722652600408
8.13,0.191860907532018,108.24076061437154,0,90,1.0,6,0.633830115760238
8.135,0.22384764873847726,114.80477932285345,0,90,1.0,6,0.7691707076877
8.14,0.25647215537198226,120.42962228136281,0,90,1.0,6,0.8851468511621198
8.145,0.2885689161419028,124.35209848293255,0,90,1.0,6,0.9660226491326298
8.15,0.31884566517832524,126.0,0,90,1.0,6,1.0
8.155,0.3459657668955683,125.13199699060715,0,90,1.0,6,0.982103030734168
8.16,0.3686441789190902,121.89956504594475,0,90,1.0,6,0.9154549494009228
8.165,0.3857476379544367,116.80934959217932,0,90,1.0,6,0.8105020534469962
8.17,0.3963882865005728,110.59911497723489,0,90,1.0,6,0.6824559789120596
8.175,0.4,104.06935062625563,0,90,1.0,6,0.5478216623970232
8.18,0.39638828650057273,97.92347769263611,0,90,1.0,6,0.421102632837858
8.185,0.38574763795443656,92.65949215512845,0,90,1.0,6,0.3125668485593494
8.19,0.36864417891908974,88.53181629485155,0,90,1.0,6,0.22746012979075364
8.195,0.345965766895568,85.57626122980984,0,90,1.0,6,0.16652085009917206
8.2,0.3188456651783249,83.67383914290984,0,90,1.0,6,0.12729565243113075
8.205,0.28856891614190205,82.62499201165721,0,90,1.0,6,0.1056699383846848
8.21,0.2564721553719815,82.2123239726345,0,90,1.0,6,0.09716131902339162
8.215,0.22384764873847685,82.24122011682826,0,90,1.0,6,0.09775711581089194
8.22,0.19186090753201765,82.5580522820505,0,90,1.0,6,0.10428973777423704
8.225,0.16148868344343878,83.05182219454407,0,90,1.0,6,0.11447056071224893
8.23,0.1334809643017881,83.64676889072895,0,90,1.0,6,0.12673750290162783
8.235,0.10834733138818531,84.29215130262087,0,90,1.0,6,0.1400443567550694
8.24,0.08636519236690572,84.95297587109219,0,90,1.0,6,0.15366960558952975
8.245,0.06760532616242629,85.6032141410097,0,90,1.0,6,0.16707658022700414
8.25,0.05196904332202373,86.22161625213593,0,90,1.0,6,0.17982713921929755
8.255,0.03923107185803287,86.78956826301784,0,90,1.0,6,0.19153748995913075
8.26,0.02908287038705761,87.29030500025087,0,90,1.0,6,0.20186195876805912
8.265,0.02117220077308346,87.70890109634271,0,90,1.0,6,0.21049280611015905
8.27,0.0151361834125735,88.03263653005703,0,90,1.0,6,0.21716776350633057
8.275,0.010626454858290009,88.25148247455117,0,90,1.0,6,0.22168005102167357
8.28,0.007326255555493652,88.35855638009744,0,90,1.0,6,0.22388776041438022
8.285,0.004960179211183015,88.35045923154104,0,90,1.0,6,0.22372080889775336
8.29,0.0032978759379303545,88.22744713680183,0,90,1.0,6,0.2211844770474604
8.295,0.002153242296767213,87.99341542663203,0,90,1.0,6,0.21635908096148507
8.3,0.001380616732225004,87.65569305578572,0,90,1.0,6,0.20939573310898388
8.305,0.0008693106590991584,87.22466123620943,0,90,1.0,6,0.20050847909710162
8.31,0.000537524815942247,86.71322360224083,0,90,1.0,6,0.189963373242079
8.315,0.0003263951340288585,86.13616550482689,0,90,1.0,6,0.17806526814076065
8.32,0.00019463030985187395,85.50944672085147,0,90,1.0,6,0.1651432313577623
8.325,0.00011397219555062695,84.84947457720351,0,90,1.0,6,0.15153555829285587
8.33,6.55403863487943e-05,84.17240320268115,0,90,1.0,6,0.1375753237666217
8.335,3.701184389455385e-05,83.49349969202193,0,90,1.0,6,0.12357731323756552
8.34,2.0525516217290957e-05,82.8266100918151,0,90,1.0,6,0.10982701220237316
8.345,1.1178128483661116e-05,82.18374823881719,0,90,1.0,6,0.09657212863540593
8.35,5.978135409912517e-06,81.57481966179543,0,90,1.0,6,0.08401690024320475
8.355,3.1396702713238487e-06,81.00748205938964,0,90,1.0,6,0.07231921771937412
8.36,1.6192875458531019e-06,80.48713423047259,0,90,1.0,6,0.061590396504589515
8.365,8.201353897972012e-07,80.01701749313209,0,90,1.0,6,0.051897267899630665
8.37,4.0791415086824765e-07,79.59840805263835,0,90,1.0,6,0.04326614541522367
8.375,1.9923866938774793e-07,79.23087565482302,0,90,1.0,6,0.03568815783140255
8.38,9.556527981051257e-08,78.91258311223406,0,90,1.0,6,0.029125424994516702
8.385,4.501406988770349e-08,78.64060262096777,0,90,1.0,6,0.023517579813768435
8.39,0.0,78.41122774696173,0,90,1.0,6,0.018788200968283056
8.395,0.0,78.22026402057521,0,90,1.0,6,0.01485080454794257
8.4,0.0,78.06328569392375,0,90,1.0,6,0.0116141380190463
8.405,0.0,77.93585088962875,0,90,1.0,6,0.00898661628100522
8.41,0.0,77.83367169477451,0,90,1.0,6,0.006879828758237296
8.415,0.0,77.75273943637394,0,90,1.0,6,0.005211122399462747
8.42,0.0,77.68940824197168,0,90,1.0,6,0.0039053245767356024
8.425,0.0,77.64044198158881,0,90,1.0,6,0.0028957109605939712
8.43,0.0,77.60303083963844,0,90,1.0,6,0.00212434720903991
8.435,0.0,77.57478418147271,0,90,1.0,7,0.0015419418860352196
8.44,0.0,77.55370620498225,0,90,1.0,7,0.001107344432623672
8.445,0.0,77.53816026664151,0,90,1.0,7,0.0007868096214744733
8.45,0.0,77.5268269037557,0,90,1.0,7,0.0005531320362000976
8.455,0.0,77.51865958225872,0,90,1.0,7,0.00038473365481898506
8.46,0.0,77.51284119666562,0,90,1.0,7,0.00026476694155915014
8.465,0.0,77.50874341903805,0,90,1.0,7,0.00018027668119700757
8.47,0.0,77.505890189993,0,90,1.0,7,0.00012144721635044119
8.475,0.0,77.50392599307456,0,90,1.0,7,8.09483108156721e-05
8.48,0.0,77.50258905913398,0,90,1.0,7,5.338266255632296e-05
8.485,0.0,77.5016892993909,0,90,1.0,7,3.483091527636903e-05
8.49,0.0,77.50109054476202,0,90,1.0,7,2.2485459010757733e-05
8.495,0.0,77.50069655045753,0,90,1.0,7,1.436186510378067e-05
8.5,0.0,77.50044018362493,0,90,1.0,7,9.075951029515017e-06
8.505,0.0,77.50027522469445,0,90,1.0,7,5.674735968003793e-06
8.51,0.0,77.50017026019599,0,90,1.0,7,3.510519504872493e-06
8.515,0.0,77.50010421040284,0,90,1.0,7,2.1486680997647275e-06
8.52,0.0,77.50006310753771,0,90,1.0,7,1.3011863445954827e-06
8.525,0.0,77.5000378114743,0,90,1.0,7,7.796180268049977e-07
8.53,0.0,77.50002241497207,0,90,1.0,7,4.6216437247672616e-07
8.535,0.0,77.5000131469499,0,90,1.0,7,2.710711318914693e-07
8.54,0.0,77.50000762928833,0,90,1.0,7,1.57304914093458e-07
8.545,0.0,77.50000438041506,0,90,1.0,7,9.031783636216751e-08
8.55,0.001684486749771458,77.50000248839153,0,90,1.0,7,5.1307041859058467e-08
8.555,0.004172395771277602,77.50000139860276,0,90,1.0,7,2.8837170360667496e-08
8.56,0.009438687428818865,77.50000077775401,0,90,1.0,7,1.6036165165526644e-08
8.565,0.019500507867137046,77.50000042791977,0,90,1.0,7,8.823088092895821e-09
8.57,0.03679496976339974,77.50000023294568,0,90,1.0,7,4.803003722119365e-09
8.575,0.06340728953298436,77.50000012546401,0,90,1.0,7,2.586886855929198e-09
8.58,0.09979255396093453,77.50000006685839,0,90,1.0,7,1.3785235221371999e-09
8.585,0.14343835518453557,77.50000003525047,0,90,1.0,7,7.268137248980359e-10
8.59,0.18829581417209276,77.50000001838849,0,90,1.0,7,3.791441387650209e-10
8.595,0.2257481735193119,77.50000000949072,0,90,1.0,7,1.9568493446490017e-10
8.6,0.24718154073554727,77.50000000484647,0,90,1.0,7,9.99272142695359e-11
8.605,0.24718154074102772,77.50000000244863,0,90,1.0,7,5.048721120437756e-11
8.61,0.22574817354072055,77.50000000122404,0,90,1.0,7,2.5237891959571327e-11
8.615,0.18829581422840957,77.50000000060538,0,90,1.0,7,1.2482111564280523e-11
8.62,0.14343835532456656,77.50000000029624,0,90,1.0,7,6.108030461713422e-12
8.625,0.09979255431561854,77.50000000014343,0,90,1.0,7,2.9573228173305944e-12
8.63,0.06340729067170194,77.50000000006871,0,90,1.0,7,1.4166903618144677e-12
8.635,0.03679497683410042,77.50000000003256,0,90,1.0,7,6.712797557222225e-13
8.64,0.019500578284482293,77.50000000001526,0,90,1.0,7,3.146898549304526e-13
8.645,0.009439396781978427,77.50000000000708,0,90,1.0,7,1.4591764223032162e-13
8.65,0.004178588733610924,77.50000000000325,0,90,1.0,7,6.70986748408507e-14
8.655,0.0017299316936037381,77.50000000000148,0,90,1.0,7,3.047276062641254e-14
8.66,0.0008997325756988589,77.50000000000067,0,90,1.0,7,1.3771343744628746e-14
8.665,0.001634769674224814,77.5000000000003,0,90,1.0,7,6.15315358802561e-15
8.67,0.00614904736476635,77.50000000000013,0,90,1.0,7,2.637065823439547e-15
8.675,0.02168080359963608,77.50000000000006,0,90,1.0,7,1.172029254862021e-15
8.68,0.06433400338904088,77.50000000000003,0,90,1.0,7,5.860146274310105e-16
