Time,ECG,Pressure,R_Peaks,mean_hr,hrv_scale,Phase_Bin,Normalized_Pressure
0.0,0.001684486749771458,77.5,0,90,1.0,0,0.0
0.005,0.004172395771277602,77.5,0,90,1.0,0,0.0
0.01,0.009438687428818865,77.5,0,90,1.0,0,0.0
0.015,0.019500507867137046,77.5,0,90,1.0,0,0.0
0.02,0.03679496976339974,77.5,0,90,1.0,0,0.0
0.025,0.06340728953298436,77.5,0,90,1.0,0,0.0
0.03,0.09979255396093453,77.5,0,90,1.0,0,0.0
0.035,0.14343835518453557,77.5,0,90,1.0,0,0.0
0.04,0.18829581417209276,77.5,0,90,1.0,0,0.0
0.045,0.2257481735193119,77.5,0,90,1.0,0,0.0
0.05,0.24718154073554727,77.5,0,90,1.0,0,0.0
0.055,0.24718154074102772,77.5,0,90,1.0,0,0.0
0.06,0.22574817354072055,77.5,0,90,1.0,0,0.0
0.065,0.18829581422840957,77.5,0,90,1.0,0,0.0
0.07,0.14343835532456656,77.5,0,90,1.0,0,0.0
0.075,0.09979255431561854,77.5,0,90,1.0,0,0.0
0.08,0.06340729067170194,77.5,0,90,1.0,0,0.0
0.085,0.03679497683410042,77.5,0,90,1.0,0,0.0
0.09,0.019500578284482293,77.5,0,90,1.0,0,0.0
0.095,0.009439396781978427,77.5,0,90,1.0,0,0.0
0.1,0.004178588733610924,77.5,0,90,1.0,0,0.0
0.105,0.0017299316936037381,77.5,0,90,1.0,0,0.0
0.11,0.0008997325756988589,77.5,0,90,1.0,0,0.0
0.115,0.001634769674224814,77.5,0,90,1.0,0,0.0
0.12,0.00614904736476635,77.5,0,90,1.0,0,0.0
0.125,0.02168080359963608,77.5,0,90,1.0,0,0.0
0.13,0.06433400338904088,77.5,0,90,1.0,0,0.0
0.135,0.1593410769217493,77.5,0,90,1.0,0,0.0
0.14,0.3291989194808569,77.5,0,90,1.0,0,0.0
0.145,0.5672906802982638,77.5,0,90,1.0,0,0.0
0.15,0.815339152120446,77.5,0,90,1.0,0,0.0
0.155,0.9768711246313155,77.5,0,90,1.0,0,0.0
0.16,0.9726380909165361,77.5,0,90,1.0,0,0.0
0.165,0.7921091683291741,77.5,0,90,1.0,0,0.0
0.17,0.49139090102639077,77.5,0,90,1.0,0,0.0
0.175,0.15739335672107918,77.5,0,90,1.0,0,0.0
0.18,-0.11102342218909485,77.5,0,90,1.0,0,0.0
0.185,-0.2314207883647528,77.5,0,90,1.0,0,0.0
0.19,-0.2029124434754801,77.5,0,90,1.0,0,0.0
0.195,-0.11151350554305876,77.5,0,90,1.0,0,0.0
0.2,-0.039430666652076896,77.5,0,90,1.0,0,0.0
0.205,-0.006087703519843621,77.5,0,90,1.0,0,0.0
0.21,0.005350271385530551,77.5,0,90,1.0,0,0.0
0.215,0.010381647827441833,77.5,0,90,1.0,0,0.0
0.22,0.015115203303506243,77.5,0,90,1.0,0,0.0
0.225,0.021170964062928475,77.5,0,90,1.0,0,0.0
0.23,0.029082821134029553,77.5,0,90,1.0,0,0.0
0.235,0.03923107061708144,77.5,0,90,1.0,0,0.0
0.24,0.051969043308817596,77.5,0,90,1.0,0,0.0
0.245,0.06760532616283861,77.5,0,90,1.0,0,0.0
0.25,0.08636519236693461,77.5,0,90,1.0,0,0.0
0.255,0.10834733138818661,77.5,0,90,1.0,0,0.0
0.26,0.1334809643017884,77.5,0,90,1.0,0,0.0
0.265,0.16148868344343945,77.5,0,90,1.0,0,0.0
0.27,0.191860907532018,77.5,0,90,1.0,0,0.0
0.275,0.22384764873847726,77.5,0,90,1.0,0,0.0
0.28,0.25647215537198226,77.5,0,90,1.0,0,0.0
0.285,0.2885689161419028,77.5,0,90,1.0,0,0.0
0.29,0.31884566517832524,77.5,0,90,1.0,0,0.0
0.295,0.3459657668955683,77.5,0,90,1.0,0,0.0
0.3,0.3686441789190902,77.5,0,90,1.0,0,0.0
0.305,0.3857476379544367,77.5,0,90,1.0,0,0.0
0.31,0.3963882865005728,77.5,0,90,1.0,0,0.0
0.315,0.4,77.5,0,90,1.0,0,0.0
0.32,0.39638828650057273,77.5,0,90,1.0,0,0.0
0.325,0.38574763795443656,77.5,0,90,1.0,0,0.0
0.33,0.36864417891908974,77.5,0,90,1.0,0,0.0
0.335,0.345965766895568,77.5,0,90,1.0,0,0.0
0.34,0.3188456651783249,77.5,0,90,1.0,0,0.0
0.345,0.28856891614190205,77.5,0,90,1.0,0,0.0
0.35,0.2564721553719815,77.5,0,90,1.0,0,0.0
0.355,0.22384764873847685,77.5,0,90,1.0,0,0.0
0.36,0.19186090753201765,77.5,0,90,1.0,0,0.0
0.365,0.16148868344343878,77.5,0,90,1.0,0,0.0
0.37,0.1334809643017881,77.5,0,90,1.0,0,0.0
0.375,0.10834733138818531,77.5,0,90,1.0,0,0.0
0.38,0.08636519236690572,77.5,0,90,1.0,0,0.0
0.385,0.06760532616242629,77.5,0,90,1.0,0,0.0
0.39,0.05196904332202373,77.5,0,90,1.0,0,0.0
0.395,0.03923107185803287,77.5,0,90,1.0,0,0.0
0.4,0.02908287038705761,77.5,0,90,1.0,0,0.0
0.405,0.02117220077308346,77.5,0,90,1.0,0,0.0
0.41,0.0151361834125735,77.5,0,90,1.0,0,0.0
0.415,0.010626454858290009,77.5,0,90,1.0,0,0.0
0.42,0.007326255555493652,77.5,0,90,1.0,0,0.0
0.425,0.004960179211183015,77.5,0,90,1.0,0,0.0
0.43,0.0032978759379303545,77.5,0,90,1.0,0,0.0
0.435,0.002153242296767213,77.5,0,90,1.0,0,0.0
0.44,0.001380616732225004,77.5,0,90,1.0,0,0.0
0.445,0.0008693106590991584,77.5,0,90,1.0,0,0.0
0.45,0.000537524815942247,77.5,0,90,1.0,0,0.0
0.455,0.0003263951340288585,77.5,0,90,1.0,0,0.0
0.46,0.00019463030985187395,77.5,0,90,1.0,0,0.0
0.465,0.00011397219555062695,77.5,0,90,1.0,0,0.0
0.47,6.55403863487943e-05,77.5,0,90,1.0,0,0.0
0.475,3.701184389455385e-05,77.5,0,90,1.0,0,0.0
0.48,2.0525516217290957e-05,77.5,0,90,1.0,0,0.0
0.485,1.1178128483661116e-05,77.5,0,90,1.0,0,0.0
0.49,5.978135409912517e-06,77.5,0,90,1.0,0,0.0
0.495,3.1396702713238487e-06,77.5,0,90,1.0,0,0.0
0.5,1.6192875458531019e-06,77.5,0,90,1.0,0,0.0
0.505,8.201353897972012e-07,77.5,0,90,1.0,0,0.0
0.51,4.0791415086824765e-07,77.5,0,90,1.0,0,0.0
0.515,1.9923866938774793e-07,77.5,0,90,1.0,0,0.0
0.52,9.556527981051257e-08,77.5,0,90,1.0,0,0.0
0.525,4.501406988770349e-08,77.5,0,90,1.0,0,0.0
0.53,0.0,77.5,0,90,1.0,0,0.0
0.535,0.0,77.5,0,90,1.0,0,0.0
0.54,0.0,77.5,0,90,1.0,0,0.0
0.545,0.0,77.5,0,90,1.0,0,0.0
0.55,0.0,77.5,0,90,1.0,0,0.0
0.555,0.0,77.5,0,90,1.0,0,0.0
0.56,0.0,77.5,0,90,1.0,0,0.0
0.565,0.0,77.5,0,90,1.0,0,0.0
0.57,0.0,77.5,0,90,1.0,0,0.0
0.575,0.0,77.5,0,90,1.0,0,0.0
0.58,0.0,77.5,0,90,1.0,0,0.0
0.585,0.0,77.5,0,90,1.0,0,0.0
0.59,0.0,77.5,0,90,1.0,0,0.0
0.595,0.0,77.5,0,90,1.0,0,0.0
0.6,0.0,77.5,0,90,1.0,0,0.0
0.605,0.0,77.5,0,90,1.0,0,0.0
0.61,0.0,77.5,0,90,1.0,0,0.0
0.615,0.0,77.5,0,90,1.0,0,0.0
0.62,0.0,77.5,0,90,1.0,0,0.0
0.625,0.0,77.5,0,90,1.0,0,0.0
0.63,0.0,77.5,0,90,1.0,0,0.0
0.635,0.0,77.5,0,90,1.0,0,0.0
0.64,0.0,77.5,0,90,1.0,0,0.0
0.645,0.0,77.5,0,90,1.0,0,0.0
0.65,0.0,77.5,0,90,1.0,0,0.0
0.655,0.0,77.5,0,90,1.0,0,0.0
0.66,0.0,77.5,0,90,1.0,0,0.0
0.665,0.0,77.5,0,90,1.0,0,0.0
0.67,0.0,77.5,0,90,1.0,0,0.0
0.675,0.0,77.5,0,90,1.0,0,0.0
0.68,0.0,77.5,0,90,1.0,0,0.0
0.685,0.0,77.5,0,90,1.0,0,0.0
0.69,0.0,77.5,0,90,1.0,0,0.0
0.695,0.0,77.5,0,90,1.0,0,0.0
0.7,0.0,77.5,0,90,1.0,0,0.0
0.705,0.001684486749771458,77.5,0,90,1.0,0,0.0
0.71,0.004172395771277602,77.5,0,90,1.0,0,0.0
0.715,0.009438687428818865,77.5,0,90,1.0,0,0.0
0.72,0.019500507867137046,77.5,0,90,1.0,0,0.0
0.725,0.03679496976339974,77.5,0,90,1.0,0,0.0
0.73,0.06340728953298436,77.5,0,90,1.0,0,0.0
0.735,0.09979255396093453,77.5,0,90,1.0,0,0.0
0.74,0.14343835518453557,77.5,0,90,1.0,0,0.0
0.745,0.18829581417209276,77.5,0,90,1.0,0,0.0
0.75,0.2257481735193119,77.5,0,90,1.0,0,0.0
0.755,0.24718154073554727,77.5,0,90,1.0,0,0.0
0.76,0.24718154074102772,77.5,0,90,1.0,0,0.0
0.765,0.22574817354072055,77.5,0,90,1.0,0,0.0
0.77,0.18829581422840957,77.5,0,90,1.0,0,0.0
0.775,0.14343835532456656,77.5,0,90,1.0,0,0.0
0.78,0.09979255431561854,77.5,0,90,1.0,0,0.0
0.785,0.06340729067170194,77.5,0,90,1.0,0,0.0
0.79,0.03679497683410042,77.5,0,90,1.0,0,0.0
0.795,0.019500578284482293,77.5,0,90,1.0,0,0.0
0.8,0.009439396781978427,77.5,0,90,1.0,0,0.0
0.805,0.004178588733610924,77.5,0,90,1.0,0,0.0
0.81,0.0017299316936037381,77.5,0,90,1.0,0,0.0
0.815,0.0008997325756988589,77.5,0,90,1.0,0,0.0
0.82,0.001634769674224814,77.5,0,90,1.0,0,0.0
0.825,0.00614904736476635,77.5,0,90,1.0,0,0.0
0.83,0.02168080359963608,77.5,0,90,1.0,0,0.0
0.835,0.06433400338904088,77.5,0,90,1.0,0,0.0
0.84,0.1593410769217493,77.5,0,90,1.0,0,0.0
0.845,0.3291989194808569,77.5,0,90,1.0,0,0.0
0.85,0.5672906802982638,77.5,0,90,1.0,0,0.0
0.855,0.815339152120446,77.5,0,90,1.0,0,0.0
0.86,0.9768711246313155,77.50000284455477,1,90,1.0,0,5.865061384095488e-08
0.865,0.9726380909165361,77.50000580215873,0,90,1.0,0,1.1963213866046006e-07
0.87,0.7921091683291741,77.50001275539046,0,90,1.0,0,2.6299774139467264e-07
0.875,0.49139090102639077,77.50003153289097,0,90,1.0,0,6.501627004562926e-07
0.88,0.15739335672107918,77.50008834514392,0,90,1.0,0,1.8215493592205602e-06
0.885,-0.11102342218909485,77.50026962696381,0,90,1.0,0,5.559318841517676e-06
0.89,-0.2314207883647528,77.50084721852477,0,90,1.0,0,1.746842319109944e-05
0.895,-0.2029124434754801,77.50262352697138,0,90,1.0,0,5.4093339616011907e-05
0.9,-0.11151350554305876,77.5078033638614,0,90,1.0,0,0.00016089410023502665
0.905,-0.039430666652076896,77.52199868923158,0,90,1.0,0,0.00045358122126969516
0.91,-0.006087703519843621,77.55839158559259,0,90,1.0,0,0.0012039502184038775
0.915,0.005350271385530551,77.64544907945715,0,90,1.0,0,0.0029989500919000256
0.92,0.010381647827441833,77.83943363242335,0,90,1.0,0,0.006998631596357746
0.925,0.015115203303506243,78.24149114478274,0,90,1.0,0,0.015288477212015301
0.93,0.021170964062928475,79.01552596208309,0,90,1.0,0,0.03124795798109462
0.935,0.029082821134029553,80.39745622062914,0,90,1.0,0,0.059741365373796665
0.94,0.03923107061708144,82.68089569707755,0,90,1.0,0,0.10682259169232053
0.945,0.051969043308817596,86.16349000922408,0,90,1.0,0,0.1786286599840016
0.95,0.06760532616283861,91.04761566539297,0,90,1.0,0,0.27933228176067976
0.955,0.08636519236693461,97.31105705610833,0,90,1.0,0,0.40847540321872833
0.96,0.10834733138818661,104.59124514857123,0,90,1.0,0,0.558582374197345
0.965,0.1334809643017884,112.14479230420652,0,90,1.0,0,0.714325614519722
0.97,0.16148868344343945,118.93414437414808,0,90,1.0,0,0.8543122551370738
0.975,0.191860907532018,123.84829352749307,0,90,1.0,0,0.9556349180926406
0.98,0.22384764873847726,126.0,0,90,1.0,0,1.0
0.985,0.25647215537198226,124.99217715523251,0,90,1.0,0,0.9792201475305672
0.99,0.2885689161419028,121.04437142658236,0,90,1.0,0,0.8978220912697393
0.995,0.31884566517832524,114.92472257434005,0,90,1.0,0,0.7716437644193825
1.0,0.3459657668955683,107.71690768839707,0,90,1.0,0,0.6230290245030324
1.005,0.3686441789190902,100.51955294559312,0,90,1.0,0,0.4746299576410952
1.01,0.3857476379544367,94.19220054499121,0,90,1.0,0,0.3441690834018806
1.015,0.3963882865005728,89.22431615738736,0,90,1.0,0,0.2417384774719044
1.02,0.4,85.7397757016038,0,90,1.0,0,0.16989228250729493
1.025,0.39638828650057273,83.59551274299349,0,90,1.0,0,0.1256806751132679
1.03,0.38574763795443656,82.51202148824075,0,90,1.0,0,0.10334064924207728
1.035,0.36864417891908974,82.18453997599953,0,90,1.0,0,0.09658845311339231
1.04,0.345965766895568,82.35069195328542,0,90,1.0,0,0.10001426707804989
1.045,0.3188456651783249,82.81534105407329,0,90,1.0,0,0.10959466090872755
1.05,0.28856891614190205,83.44684964319964,0,90,1.0,0,0.12261545656081735
1.055,0.2564721553719815,84.16077579935893,0,90,1.0,0,0.1373355834919367
1.06,0.22384764873847685,84.90235137585982,0,90,1.0,0,0.15262580156412006
1.065,0.19186090753201765,85.6331163605077,0,90,1.0,0,0.1676931208352103
1.07,0.16148868344343878,86.32276772136484,0,90,1.0,0,0.1819127365229864
1.075,0.1334809643017881,86.94520055538263,0,90,1.0,0,0.1947464032037655
1.08,0.10834733138818531,87.47723188509201,0,90,1.0,0,0.2057161213421033
1.085,0.08636519236690572,87.89875236903507,0,90,1.0,0,0.2144072653409292
1.09,0.06760532616242629,88.19347427941852,0,90,1.0,0,0.2204840057612067
1.095,0.05196904332202373,88.34978775287364,0,90,1.0,0,0.22370696397677606
1.1,0.03923107185803287,88.36145639506222,0,90,1.0,0,0.22394755453736537
1.105,0.02908287038705761,88.22801050891252,0,90,1.0,0,0.22119609296726842
1.11,0.02117220077308346,87.95477284458106,0,90,1.0,0,0.21556232669239295
1.115,0.0151361834125735,87.55250483419901,0,90,1.0,0,0.20726814091131984
1.12,0.010626454858290009,87.03670299958162,0,90,1.0,0,0.1966330515377654
1.125,0.007326255555493652,86.42660878786413,0,90,1.0,0,0.18405378944049744
1.13,0.004960179211183015,85.74401975485523,0,90,1.0,0,0.16997978875990166
1.135,0.0032978759379303545,85.01200421327506,0,90,1.0,0,0.15488668480979512
1.14,0.002153242296767213,84.25362432761578,0,90,1.0,0,0.13924998613640788
1.145,0.001380616732225004,83.4907645732292,0,90,1.0,0,0.1235209190356536
1.15,0.0008693106590991584,82.74314518763843,0,90,1.0,0,0.10810608634306047
1.155,0.000537524815942247,82.02757644937837,0,90,1.0,0,0.09335209173976027
1.16,0.0003263951340288585,81.35748261877617,0,90,1.0,0,0.07953572409847783
1.165,0.00019463030985187395,80.74269753063376,0,90,1.0,0,0.0668597428996652
1.17,0.00011397219555062695,80.18951010980362,0,90,1.0,0,0.05545381669698187
1.175,6.55403863487943e-05,79.70091970511072,0,90,1.0,0,0.045379787734241665
1.18,3.701184389455385e-05,79.27704937041982,0,90,1.0,0,0.036640193204532316
1.185,2.0525516217290957e-05,78.91566034163318,0,90,1.0,0,0.029188873023364634
1.19,1.1178128483661116e-05,78.61271236828955,0,90,1.0,0,0.022942523057516498
1.195,5.978135409912517e-06,78.36292100843355,0,90,1.0,0,0.017792185740897845
1.2,3.1396702713238487e-06,78.16027286034101,0,90,1.0,0,0.013613873409092989
1.205,1.6192875458531019e-06,77.99847126514554,0,90,1.0,1,0.01027775804423793
1.21,8.201353897972012e-07,77.87129669790625,0,90,1.0,1,0.0076556020186854794
1.215,4.0791415086824765e-07,77.7728766174986,0,90,1.0,1,0.005626322010280338
1.22,1.9923866938774793e-07,77.69786812413626,0,90,1.0,1,0.004079755136830178
1.225,9.556527981051257e-08,77.64156295752402,0,90,1.0,1,0.0029188238664745575
1.23,4.501406988770349e-08,77.59992811506405,0,90,1.0,1,0.0020603735064751677
1.235,0.0,77.56959692327771,0,90,1.0,1,0.0014349881088188555
1.24,0.0,77.54782518554492,0,90,1.0,1,0.0009860862998953192
1.245,0.0,77.53242556585776,0,90,1.0,1,0.0006685683682013222
1.25,0.0,77.52169115816386,0,90,1.0,1,0.000447240374512603
1.255,0.0,77.51431667597406,0,90,1.0,1,0.0002951891953414032
1.26,0.0,77.50932321990186,0,90,1.0,1,0.00019223133818265347
1.265,0.0,77.5059903739918,0,90,1.0,1,0.000123512865810454
1.27,0.0,77.503797573812,0,90,1.0,1,7.830049096894785e-05
1.275,0.0,77.50237532362256,0,90,1.0,1,4.897574479502613e-05
1.28,0.0,77.50146589758421,0,90,1.0,1,3.02246924579589e-05
1.285,0.0,77.5008925832809,0,90,1.0,1,1.840377898765462e-05
1.29,0.0,77.50053623868786,0,90,1.0,1,1.1056467790873172e-05
1.295,0.0,77.50031785702697,0,90,1.0,1,6.553753133424103e-06
1.3,0.0,77.50018589588124,0,90,1.0,1,3.832904767934976e-06
1.305,0.0,77.50010726844758,0,90,1.0,1,2.211720568632784e-06
1.31,0.0,77.50006107148786,0,90,1.0,1,1.2592059353252255e-06
1.315,0.0,77.5000343059368,0,90,1.0,1,7.073389029596677e-07
1.32,0.001684486749771458,77.50001901359956,0,90,1.0,1,3.920329805206381e-07
1.325,0.004172395771277602,77.50001039737434,0,90,1.0,1,2.143788523562293e-07
1.33,0.009438687428818865,77.50000560979892,0,90,1.0,1,1.1566595708714398e-07
1.335,0.019500507867137046,77.50000298631205,0,90,1.0,1,6.157344442332952e-08
1.34,0.03679496976339974,77.50000156851023,0,90,1.0,1,3.2340417079729975e-08
1.345,0.06340728953298436,77.50000081283763,0,90,1.0,1,1.6759538691554346e-08
1.35,0.09979255396093453,77.5000004156086,0,90,1.0,1,8.569249410863177e-09
1.355,0.14343835518453557,77.50000020966674,0,90,1.0,1,4.323025511448859e-09
1.36,0.18829581417209276,77.50000010436113,0,90,1.0,1,2.151775976186006e-09
1.365,0.2257481735193119,77.50000005125219,0,90,1.0,1,1.0567461132952828e-09
1.37,0.24718154073554727,77.5000000248342,0,90,1.0,1,5.120452240908449e-10
1.375,0.24718154074102772,77.50000001187277,0,90,1.0,1,2.447994064045206e-10
1.38,0.22574817354072055,77.5000000056004,0,90,1.0,1,1.1547213128408461e-10
1.385,0.18829581422840957,77.50000000260646,0,90,1.0,1,5.374135043050196e-11
1.39,0.14343835532456656,77.50000000119687,0,90,1.0,1,2.467766197574728e-11
1.395,0.09979255431561854,77.50000000054226,0,90,1.0,1,1.1180573076756249e-11
1.4,0.06340729067170194,77.5000000002424,0,90,1.0,1,4.997825750045373e-12
1.405,0.03679497683410042,77.50000000010691,0,90,1.0,1,2.204294021081746e-12
1.41,0.019500578284482293,77.50000000004653,0,90,1.0,1,9.593059451045642e-13
1.415,0.009439396781978427,77.50000000001998,0,90,1.0,1,4.1196828308400036e-13
1.42,0.004178588733610924,77.50000000000846,0,90,1.0,1,1.7433935166072562e-13
1.425,0.0017299316936037381,77.50000000000354,0,90,1.0,1,7.295882111516081e-14
1.43,0.0008997325756988589,77.50000000000146,0,90,1.0,1,3.017975331269704e-14
1.435,0.001634769674224814,77.5000000000006,0,90,1.0,1,1.230630717605122e-14
1.44,0.00614904736476635,77.50000000000024,0,90,1.0,1,4.9811243331635886e-15
1.445,0.02168080359963608,77.5000000000001,0,90,1.0,1,2.0510511960085364e-15
1.45,0.06433400338904088,77.50000000000004,0,90,1.0,1,8.790219411465157e-16
1.455,0.1593410769217493,77.50000000000001,0,90,1.0,1,2.9300731371550523e-16
1.46,0.3291989194808569,77.5,0,90,1.0,1,0.0
1.465,0.5672906802982638,77.5,0,90,1.0,1,0.0
1.47,0.815339152120446,77.5,0,90,1.0,1,0.0
1.475,0.9768711246313155,77.5000028564677,1,90,1.0,1,5.889624128602796e-08
1.48,0.9726380909165361,77.50000545335169,0,90,1.0,1,1.1244024103548654e-07
1.485,0.7921091683291741,77.50001103870419,0,90,1.0,1,2.2760214818910904e-07
1.49,0.49139090102639077,77.50002451145392,0,90,1.0,1,5.053908023807342e-07
1.495,0.15739335672107918,77.50006056508865,0,90,1.0,1,1.2487647143423357e-06
1.5,-0.11102342218909485,77.500163159277,0,90,1.0,1,3.364108803999002e-06
1.505,-0.2314207883647528,77.50045963921588,0,90,1.0,1,9.477097234556608e-06
1.51,-0.2029124434754801,77.50130157200853,0,90,1.0,1,2.6836536258334144e-05
1.515,-0.11151350554305876,77.50360621062502,0,90,1.0,1,7.435485824789184e-05
1.52,-0.039430666652076896,77.50962435840236,0,90,1.0,1,0.0001984403794301553
1.525,-0.006087703519843621,77.5245336611205,0,90,1.0,1,0.0005058486828969172
1.53,0.005350271385530551,77.55946841825335,0,90,1.0,1,0.0012261529536772287
1.535,0.010381647827441833,77.63674715233715,0,90,1.0,1,0.002819528914168054
1.54,0.015115203303506243,77.79792448353166,0,90,1.0,1,0.006142772856322871
1.545,0.021170964062928475,78.11453494517251,0,90,1.0,1,0.012670823611804292
1.55,0.029082821134029553,78.69968859351175,0,90,1.0,1,0.0247358472889021
1.555,0.03923107061708144,79.71601941372563,0,90,1.0,1,0.04569112193248727
1.56,0.051969043308817596,81.3726112396058,0,90,1.0,1,0.07984765442486191
1.565,0.06760532616283861,83.90214348528451,0,90,1.0,1,0.13200295845947446
1.57,0.08636519236693461,87.51194056320449,0,90,1.0,1,0.2064317641897833
1.575,0.10834733138818661,92.31057839827544,0,90,1.0,1,0.305372750479906
1.58,0.1334809643017884,98.22445209684186,0,90,1.0,1,0.42730829065653314
1.585,0.16148868344343945,104.93176617201091,0,90,1.0,1,0.5656034262270291
1.59,0.191860907532018,111.84734002058431,0,90,1.0,1,0.7081925777440065
1.595,0.22384764873847726,118.18353745375319,0,90,1.0,1,0.8388358237887256
1.6,0.25647215537198226,123.08912705128517,0,90,1.0,1,0.9399820010574262
1.605,0.2885689161419028,125.83623498218132,0,90,1.0,1,0.9966234016944603
1.61,0.31884566517832524,126.0,0,90,1.0,1,1.0
1.615,0.3459657668955683,123.57027949337669,0,90,1.0,1,0.9499026699665296
1.62,0.3686441789190902,118.95531468006659,0,90,1.0,1,0.8547487562900329
1.625,0.3857476379544367,112.8759914170416,0,90,1.0,1,0.7294018848874557
1.63,0.3963882865005728,106.18868862199935,0,90,1.0,1,0.5915193530309144
1.635,0.4,99.69679952472116,0,90,1.0,1,0.45766596958187955
1.64,0.39638828650057273,94.00737257354771,0,90,1.0,1,0.3403581973927363
1.645,0.38574763795443656,89.46469600444867,0,90,1.0,1,0.24669476297832307
1.65,0.36864417891908974,86.1609302263463,0,90,1.0,1,0.1785758809555937
1.655,0.345965766895568,83.99956239812894,0,90,1.0,1,0.1340115958377102
1.66,0.3188456651783249,82.77835198542279,0,90,1.0,1,0.10883199969943892
1.665,0.28856891614190205,82.26364992927617,0,90,1.0,1,0.09821958617064268
1.67,0.2564721553719815,82.24082003149722,0,90,1.0,1,0.0977488666288087
1.675,0.22384764873847685,82.53843885242503,0,90,1.0,1,0.1038853371634027
1.68,0.19186090753201765,83.03228371198631,0,90,1.0,1,0.11406770540177957
1.685,0.16148868344343878,83.63787548612598,0,90,1.0,1,0.12655413373455623
1.69,0.1334809643017881,84.29912711951967,0,90,1.0,1,0.14018818803133334
1.695,0.10834733138818531,84.97779720332112,0,90,1.0,1,0.15418138563548694
1.7,0.08636519236690572,85.64573159835365,0,90,1.0,1,0.167953228832034
1.705,0.06760532616242629,86.28008889382897,0,90,1.0,1,0.18103276069750462
1.71,0.05196904332202373,86.86092112745918,0,90,1.0,1,0.19300868304039542
1.715,0.03923107185803287,87.37030590214425,0,90,1.0,1,0.2035114618998815
1.72,0.02908287038705761,87.79235702367464,0,90,1.0,1,0.2122135468798895
1.725,0.02117220077308346,88.11364773149214,0,90,1.0,1,0.2188380975565389
1.73,0.0151361834125735,88.32375687702194,0,90,1.0,1,0.22317024488705023
1.735,0.010626454858290009,88.41576824699521,0,90,1.0,1,0.2250673865359838
1.74,0.007326255555493652,88.38662664092895,0,90,1.0,1,0.22446652867894748
1.745,0.004960179211183015,88.2372990391203,0,90,1.0,1,0.22138760905402685
1.75,0.0032978759379303545,87.97271905935307,0,90,1.0,1,0.21593235173923853
1.755,0.002153242296767213,87.60151563015489,0,90,1.0,1,0.20827867278669882
1.76,0.001380616732225004,87.1355455413843,0,90,1.0,1,0.19867104209039801
1.765,0.0008693106590991584,86.58926483861305,0,90,1.0,1,0.18740752244562983
1.77,0.000537524815942247,85.97898542150867,0,90,1.0,1,0.17482444168059108
1.775,0.0003263951340288585,85.32207004119032,0,90,1.0,1,0.16127979466371783
1.78,0.00019463030985187395,84.63612080609002,0,90,1.0,1,0.1471365114657736
1.785,0.00011397219555062695,83.93821340240603,0,90,1.0,1,0.1327466680908461
1.79,6.55403863487943e-05,83.24422209684201,0,90,1.0,1,0.11843756900705173
1.795,3.701184389455385e-05,82.5682702000534,0,90,1.0,1,0.10450041649594649
1.8,2.0525516217290957e-05,81.92232827693294,0,90,1.0,1,0.09118202632851431
1.805,1.1178128483661116e-05,81.31596934262296,0,90,1.0,1,0.0786797802602673
1.81,5.978135409912517e-06,80.7562778662365,0,90,1.0,1,0.06713974981930931
1.815,3.1396702713238487e-06,80.24789870051464,0,90,1.0,1,0.056657705165250295
1.82,1.6192875458531019e-06,79.79320384552783,0,90,1.0,1,0.047282553516037676
1.825,8.201353897972012e-07,79.39254966509434,0,90,1.0,1,0.03902164257926466
1.83,4.0791415086824765e-07,79.04459487797472,0,90,1.0,1,0.03184731707164365
1.835,1.9923866938774793e-07,78.74665010120292,0,90,1.0,1,0.025704125797998287
1.84,9.556527981051257e-08,78.4950324497986,0,90,1.0,1,0.02051613298553815
1.845,4.501406988770349e-08,78.28540306685832,0,90,1.0,1,0.0161938776671819
1.85,0.0,78.11307078741693,0,90,1.0,1,0.012640634792101656
1.855,0.0,77.97325077488534,0,90,1.0,1,0.00975774793578028
1.86,0.0,77.86127235160261,0,90,1.0,1,0.007448914466033154
1.865,0.0,77.7727349529587,0,90,1.0,1,0.005623401091931963
1.87,0.0,77.70361489944557,0,90,1.0,1,0.004198245349393168
1.875,0.0,77.65032838439267,0,90,1.0,1,0.0030995543173745416
1.88,0.0,77.60975772765077,0,90,1.0,1,0.002263045930943784
1.885,0.0,77.57924865595666,0,90,1.0,1,0.0016339929063229112
1.89,0.0,77.55658631135569,0,90,1.0,1,0.001166728069189428
1.895,0.0,77.53995706181816,0,90,1.0,1,0.0008238569447042692
1.9,0.0,77.5279021961484,0,90,1.0,1,0.000575303013369142
1.905,0.0,77.5192684114055,0,90,1.0,1,0.00039728683310320627
1.91,0.0,77.51315879480705,0,90,1.0,1,0.000271315356846487
1.915,0.0,77.50888687354049,0,90,1.0,1,0.00018323450598948688
1.92,0.0,77.50593532585206,0,90,1.0,1,0.0001223778526198859
1.925,0.0,77.50392015117043,0,90,1.0,1,8.082785918419439e-05
1.93,0.0,77.5025604938901,0,90,1.0,1,5.279368845569395e-05
1.935,0.0,77.50165389279071,0,90,1.0,1,3.4100882282752264e-05
1.94,0.0,77.5010564614286,0,90,1.0,1,2.1782709868122447e-05
1.945,0.0,77.5006673637583,0,90,1.0,1,1.3760077490646321e-05
1.95,0.0,77.50041690228181,0,90,1.0,1,8.595923336355385e-06
1.955,0.0,77.50025755418267,0,90,1.0,1,5.310395518912647e-06
1.96,0.0,77.50015734959284,0,90,1.0,1,3.2443215018505274e-06
1.965,0.0,77.5000950660219,0,90,1.0,1,1.9601241628662914e-06
1.97,0.0,77.5000567999168,0,90,1.0,1,1.1711323052683848e-06
1.975,0.0,77.50003356083515,0,90,1.0,1,6.91975982456909e-07
1.98,0.0,77.50001961013126,0,90,1.0,1,4.0433260332084156e-07
1.985,0.0,77.50001133159184,0,90,1.0,1,2.3364106877378027e-07
1.99,0.0,77.50000647536162,0,90,1.0,1,1.3351261063502365e-07
1.995,0.001684486749771458,77.50000365931513,0,90,1.0,1,7.544979642205494e-08
2.0,0.004172395771277602,77.50000204502338,0,90,1.0,1,4.216543049654685e-08
2.005,0.009438687428818865,77.50000113021072,0,90,1.0,1,2.3303313807830526e-08
2.01,0.019500507867137046,77.50000061770804,0,90,1.0,1,1.2736248234751216e-08
2.015,0.03679496976339974,77.50000033386414,0,90,1.0,1,6.8837966255065934e-09
2.02,0.06340728953298436,77.50000017845099,0,90,1.0,1,3.6794018370463013e-09
2.025,0.09979255396093453,77.50000009432587,0,90,1.0,1,1.9448632944668417e-09
2.03,0.14343835518453557,77.50000004930664,0,90,1.0,1,1.0166316540037479e-09
2.035,0.18829581417209276,77.5000000254884,0,90,1.0,1,5.255341087850519e-10
2.04,0.2257481735193119,77.50000001302995,0,90,1.0,1,2.686586989530605e-10
2.045,0.24718154073554727,77.50000000658727,0,90,1.0,1,1.3582002418505787e-10
2.05,0.24718154074102772,77.5000000032933,0,90,1.0,1,6.790297991699976e-11
2.055,0.22574817354072055,77.50000000162824,0,90,1.0,1,3.3571898983581445e-11
2.06,0.18829581422840957,77.5000000007961,0,90,1.0,1,1.6414562721656317e-11
2.065,0.14343835532456656,77.50000000038493,0,90,1.0,1,7.936689106611891e-12
2.07,0.09979255431561854,77.50000000018406,0,90,1.0,1,3.795030727243224e-12
2.075,0.06340729067170194,77.50000000008704,0,90,1.0,1,1.7946697965074695e-12
2.08,0.03679497683410042,77.5000000000407,0,90,1.0,1,8.39172946481207e-13
2.085,0.019500578284482293,77.50000000001882,0,90,1.0,1,3.879416833593289e-13
2.09,0.009439396781978427,77.50000000000861,0,90,1.0,1,1.7756243211159617e-13
2.095,0.004178588733610924,77.5000000000039,0,90,1.0,1,8.028400395804844e-14
2.1,0.0017299316936037381,77.50000000000173,0,90,1.0,1,3.574689227329164e-14
2.105,0.0008997325756988589,77.50000000000077,0,90,1.0,1,1.5822394940637283e-14
2.11,0.001634769674224814,77.50000000000034,0,90,1.0,1,7.032175529172126e-15
2.115,0.00614904736476635,77.50000000000014,0,90,1.0,1,2.930073137155052e-15
2.12,0.02168080359963608,77.50000000000006,0,90,1.0,1,1.172029254862021e-15
2.125,0.06433400338904088,77.50000000000003,0,90,1.0,1,5.860146274310105e-16
2.13,0.1593410769217493,77.50000000000001,0,90,1.0,1,2.9300731371550523e-16
2.135,0.3291989194808569,77.5,0,90,1.0,1,0.0
2.14,0.5672906802982638,77.5,0,90,1.0,1,0.0
2.145,0.815339152120446,77.5,0,90,1.0,1,0.0
2.15,0.9768711246313155,77.50000284586159,1,90,1.0,1,5.8677558500516847e-08
2.155,0.9726380909165361,77.50000540621835,0,90,1.0,1,1.1146841957598394e-07
2.16,0.7921091683291741,77.5000108768639,0,90,1.0,1,2.2426523498287464e-07
2.165,0.49139090102639077,77.5000239632854,0,90,1.0,1,4.940883587719842e-07
2.17,0.15739335672107918,77.50005866103898,0,90,1.0,1,1.2095059582978926e-06
2.175,-0.11102342218909485,77.5001565274914,0,90,1.0,1,3.2273709566722866e-06
2.18,-0.2314207883647528,77.50043717338163,0,90,1.0,1,9.013884157259303e-06
2.185,-0.2029124434754801,77.50122904689188,0,90,1.0,1,2.534117302843697e-05
2.19,-0.11151350554305876,77.50338542462353,0,90,1.0,1,6.980256955733511e-05
2.195,-0.039430666652076896,77.50899344295689,0,90,1.0,1,0.0001854318135441804
2.2,-0.006087703519843621,77.52284424176906,0,90,1.0,1,0.00047101529420751363
2.205,0.005350271385530551,77.55523138800068,0,90,1.0,1,0.0011387915051686152
2.21,0.010381647827441833,77.62679470536686,0,90,1.0,1,0.002614323821997157
2.215,0.015115203303506243,77.77602863433232,0,90,1.0,1,0.005691312048089076
2.22,0.021170964062928475,78.06941882061071,0,90,1.0,1,0.011740594239396024
2.225,0.029082821134029553,78.61264705687972,0,90,1.0,1,0.022941176430509753
2.23,0.03923107061708144,79.55887006289213,0,90,1.0,1,0.04245092913179641
2.235,0.051969043308817596,81.10733409746567,0,90,1.0,1,0.07437802262815808
2.24,0.06760532616283861,83.4840347084959,0,90,1.0,1,0.12338215893805975
2.245,0.08636519236693461,86.89791075708786,0,90,1.0,1,0.19377135581624447
2.25,0.10834733138818661,91.47290531438892,0,90,1.0,1,0.28810114050286445
2.255,0.1334809643017884,97.16780461229023,0,90,1.0,1,0.40552174458330364
2.26,0.16148868344343945,103.70838557386074,0,90,1.0,1,0.5403790839971286
2.265,0.191860907532018,110.56339952140614,0,90,1.0,1,0.6817195777609514
2.27,0.22384764873847726,116.9905505634757,0,90,1.0,1,0.8142381559479525
2.275,0.25647215537198226,122.1585552525796,0,90,1.0,1,0.9207949536614352
2.28,0.2885689161419028,125.32204653102696,0,90,1.0,1,0.9860215779593187
2.285,0.31884566517832524,126.0,0,90,1.0,1,1.0
2.29,0.3459657668955683,124.09929318952061,0,90,1.0,1,0.960810168856095
2.295,0.3686441789190902,119.94001348411793,0,90,1.0,1,0.8750518244148026
2.3,0.3857476379544367,114.17337664266108,0,90,1.0,1,0.7561520957249708
2.305,0.3963882865005728,107.62152108345802,0,90,1.0,1,0.6210622903805777
2.31,0.4,101.0936464742221,0,90,1.0,1,0.4864669376128268
2.315,0.39638828650057273,95.23476363020654,0,90,1.0,1,0.3656652294887947
2.32,0.38574763795443656,90.4435854989949,0,90,1.0,1,0.2668780515256682
2.325,0.36864417891908974,86.86645009682657,0,90,1.0,1,0.19312268240879524
2.33,0.345965766895568,84.44866361769579,0,90,1.0,1,0.14327141479785124
2.335,0.3188456651783249,83.01238886958782,0,90,1.0,1,0.11365750246572832
2.34,0.28856891614190205,82.33219786893802,0,90,1.0,1,0.09963294575129947
2.345,0.2564721553719815,82.19037236159303,0,90,1.0,1,0.09670870848645433
2.35,0.22384764873847685,82.4067713597822,0,90,1.0,1,0.10117054350066387
2.355,0.19186090753201765,82.84733349045737,0,90,1.0,1,0.11025429877231697
2.36,0.16148868344343878,83.41925731830845,0,90,1.0,1,0.12204654264553512
2.365,0.1334809643017881,84.06060249564256,0,90,1.0,1,0.13527015454933106
2.37,0.10834733138818531,84.7296112585338,0,90,1.0,1,0.14906414966049059
2.375,0.08636519236690572,85.39633568541677,0,90,1.0,1,0.16281104506013966
2.38,0.06760532616242629,86.03717687645855,0,90,1.0,1,0.17602426549399064
2.385,0.05196904332202373,86.63190565549688,0,90,1.0,1,0.18828671454632742
2.39,0.03923107185803287,87.16241124326619,0,90,1.0,1,0.19922497408796272
2.395,0.02908287038705761,87.61248306715446,0,90,1.0,1,0.20850480550833933
2.4,0.02117220077308346,87.96811794886472,0,90,1.0,1,0.21583748348174672
2.405,0.0151361834125735,88.21802622801505,0,90,1.0,1,0.22099023150546493
2.41,0.010626454858290009,88.35414161770949,0,90,1.0,2,0.2237967343857626
2.415,0.007326255555493652,88.37202232834514,0,90,1.0,2,0.22416540883185854
2.42,0.004960179211183015,88.27108106749418,0,90,1.0,2,0.22208414572152949
2.425,0.0032978759379303545,88.05461363524023,0,90,1.0,2,0.21762089969567486
2.43,0.002153242296767213,87.7296191903864,0,90,1.0,2,0.21091998330693612
2.435,0.001380616732225004,87.30642415743608,0,90,1.0,2,0.20219431252445533
2.44,0.0008693106590991584,86.79813742453794,0,90,1.0,2,0.19171417370181323
2.445,0.000537524815942247,86.21997675578243,0,90,1.0,2,0.17979333517077167
2.45,0.0003263951340288585,85.58851459767371,0,90,1.0,2,0.16677349685925172
2.455,0.00019463030985187395,84.92089522273513,0,90,1.0,2,0.15300814892237374
2.46,0.00011397219555062695,84.2340743273611,0,90,1.0,2,0.13884689334765155
2.465,6.55403863487943e-05,83.54412713946391,0,90,1.0,2,0.1246211781332765
2.47,3.701184389455385e-05,82.86566255613282,0,90,1.0,2,0.11063221765222306
2.475,2.0525516217290957e-05,82.2113698868779,0,90,1.0,2,0.09714164715212173
2.48,1.1178128483661116e-05,81.59171264922182,0,90,1.0,2,0.08436520926230553
2.485,5.978135409912517e-06,81.0147717845139,0,90,1.0,2,0.07246952133018345
2.49,3.1396702713238487e-06,80.48622973646444,0,90,1.0,2,0.06157174714359665
2.495,1.6192875458531019e-06,80.00947792665202,0,90,1.0,2,0.0517418129206603
2.5,8.201353897972012e-07,79.58582382558662,0,90,1.0,2,0.04300667681621888
2.505,4.0791415086824765e-07,79.21477027933115,0,90,1.0,2,0.03535608823363192
2.51,1.9923866938774793e-07,78.89433892375651,0,90,1.0,2,0.02874925615992798
2.515,9.556527981051257e-08,78.62141105818226,0,90,1.0,2,0.02312187748829404
2.52,4.501406988770349e-08,78.39206273455854,0,90,1.0,2,0.018393046073371874
2.525,0.0,78.20187543065295,0,90,1.0,2,0.014471658363978296
2.53,0.0,78.04620888776554,0,90,1.0,2,0.01126203892300092
2.535,0.0,77.9204279351801,0,90,1.0,2,0.00866861722020826
2.54,0.0,77.82007993256983,0,90,1.0,2,0.0065995862385531045
2.545,0.0,77.74102351106553,0,90,1.0,2,0.004969556929186289
2.55,0.0,77.67951239873214,0,90,1.0,2,0.003701286571796767
2.555,0.0,77.63224022257143,0,90,1.0,2,0.0027266025272458896
2.56,0.0,77.59635333975864,0,90,1.0,2,0.0019866667991471345
2.565,0.0,77.56943909521827,0,90,1.0,2,0.0014317339220262168
2.57,0.0,77.54949660528963,0,90,1.0,2,0.0010205485626728467
2.575,0.0,77.53489641831816,0,90,1.0,2,0.000719513779755774
2.58,0.0,77.52433438497737,0,90,1.0,2,0.0005017398964405191
2.585,0.0,77.51678394216378,0,90,1.0,2,0.0003460606631707969
2.59,0.0,77.51144989895161,0,90,1.0,2,0.0002360803907548608
2.595,0.0,77.50772579914724,0,90,1.0,2,0.00015929482777810147
2.6,0.0,77.50515607531464,0,90,1.0,2,0.00010631083122978725
2.605,0.0,77.50340352677404,0,90,1.0,2,7.017580977394714e-05
2.61,0.0,77.50222214896947,0,90,1.0,2,4.581750452506846e-05
2.615,0.0,77.50143499784357,0,90,1.0,2,2.9587584403599846e-05
2.62,0.0,77.50091656528996,0,90,1.0,2,1.8898253401142864e-05
2.625,0.0,77.50057904143834,0,90,1.0,2,1.1938998728714274e-05
2.63,0.0,77.50036181782804,0,90,1.0,2,7.460161402809014e-06
2.635,0.0,77.50022361676467,0,90,1.0,2,4.610654941678749e-06
2.64,0.0,77.50013669506535,0,90,1.0,2,2.818454955680882e-06
2.645,0.0,77.50008264857955,0,90,1.0,2,1.7040944237109704e-06
2.65,0.0,77.50004942560916,0,90,1.0,2,1.0190847250055179e-06
2.655,0.0,77.50002923497637,0,90,1.0,2,6.027830178735121e-07
2.66,0.0,77.50001710360048,0,90,1.0,2,3.5265155637829334e-07
2.665,0.0,77.50000989706493,0,90,1.0,2,2.0406319438350074e-07
2.67,0.0,77.50000566447123,0,90,1.0,2,1.1679322127063117e-07
2.675,0.001684486749771458,77.50000320661198,0,90,1.0,2,6.611571089922212e-08
2.68,0.004172395771277602,77.50000179542606,0,90,1.0,2,3.7019093989544774e-08
2.685,0.009438687428818865,77.50000099431209,0,90,1.0,2,2.0501280178652132e-08
2.69,0.019500507867137046,77.50000054464309,0,90,1.0,2,1.1229754354363397e-08
2.695,0.03679496976339974,77.50000029507699,0,90,1.0,2,6.084061584429552e-09
2.7,0.06340728953298436,77.50000015812218,0,90,1.0,2,3.2602510656811926e-09
2.705,0.09979255396093453,77.50000008380778,0,90,1.0,2,1.727995396256879e-09
2.71,0.14343835518453557,77.50000004393492,0,90,1.0,2,9.058745964119732e-10
2.715,0.18829581417209276,77.50000002278082,0,90,1.0,2,4.697077183101503e-10
2.72,0.2257481735193119,77.50000001168324,0,90,1.0,2,2.408915678614969e-10
2.725,0.24718154073554727,77.5000000059264,0,90,1.0,2,1.221937190607183e-10
2.73,0.24718154074102772,77.5000000029734,0,90,1.0,2,6.130709227795003e-11
2.735,0.22574817354072055,77.50000000147553,0,90,1.0,2,3.0423242390394625e-11
2.74,0.18829581422840957,77.50000000072423,0,90,1.0,2,1.4932531728883294e-11
2.745,0.14343835532456656,77.50000000035159,0,90,1.0,2,7.249293948635315e-12
2.75,0.09979255431561854,77.50000000016882,0,90,1.0,2,3.4809268869402023e-12
2.755,0.06340729067170194,77.50000000008018,0,90,1.0,2,1.6531472639828805e-12
2.76,0.03679497683410042,77.50000000003766,0,90,1.0,2,7.764693813460888e-13
2.765,0.019500578284482293,77.5000000000175,0,90,1.0,2,3.606920031837869e-13
2.77,0.009439396781978427,77.50000000000804,0,90,1.0,2,1.6584213956297595e-13
2.775,0.004178588733610924,77.50000000000365,0,90,1.0,2,7.530287962488484e-14
2.78,0.0017299316936037381,77.50000000000165,0,90,1.0,2,3.3988848390998606e-14
2.785,0.0008997325756988589,77.50000000000072,0,90,1.0,2,1.4943372999490767e-14
2.79,0.001634769674224814,77.50000000000033,0,90,1.0,2,6.73916821545662e-15
2.795,0.00614904736476635,77.50000000000014,0,90,1.0,2,2.930073137155052e-15
2.8,0.02168080359963608,77.50000000000006,0,90,1.0,2,1.172029254862021e-15
2.805,0.06433400338904088,77.50000000000003,0,90,1.0,2,5.860146274310105e-16
2.81,0.1593410769217493,77.50000000000001,0,90,1.0,2,2.9300731371550523e-16
2.815,0.3291989194808569,77.5,0,90,1.0,2,0.0
2.82,0.5672906802982638,77.5,0,90,1.0,2,0.0
2.825,0.815339152120446,77.5,0,90,1.0,2,0.0
2.83,0.9768711246313155,77.50000284586159,1,90,1.0,2,5.8677558500516847e-08
2.835,0.9726380909165361,77.50000554640805,0,90,1.0,2,1.1435892881458993e-07
2.84,0.7921091683291741,77.50001151682932,0,90,1.0,2,2.374603983045426e-07
2.845,0.49139090102639077,77.50002643002445,0,90,1.0,2,5.449489576934416e-07
2.85,0.15739335672107918,77.50006790101995,0,90,1.0,2,1.4000210298195504e-06
2.855,-0.11102342218909485,77.50019028911501,0,90,1.0,2,3.923486907442379e-06
2.86,-0.2314207883647528,77.50055528372543,0,90,1.0,2,1.1449148977995606e-05
2.865,-0.2029124434754801,77.5016191003873,0,90,1.0,2,3.338351314024416e-05
2.87,-0.11151350554305876,77.50459268016454,0,90,1.0,2,9.469443638216635e-05
2.875,-0.039430666652076896,77.51248521717368,0,90,1.0,2,0.00025742715822012853
2.88,-0.006087703519843621,77.53227388620262,0,90,1.0,2,0.0006654409526312796
2.885,0.005350271385530551,77.57900721106344,0,90,1.0,2,0.0016290146611018807
2.89,0.010381647827441833,77.68277725789753,0,90,1.0,2,0.003768603255619115
2.895,0.015115203303506243,77.89914273187748,0,90,1.0,2,0.008229747049020112
2.9,0.021170964062928475,78.32227751227126,0,90,1.0,2,0.01695417551074755
2.905,0.029082821134029553,79.09751100293126,0,90,1.0,2,0.03293837119445889
2.91,0.03923107061708144,80.42630442384339,0,90,1.0,2,0.06033617368749259
2.915,0.051969043308817596,82.55354337917821,0,90,1.0,2,0.10419677070470533
2.92,0.06760532616283861,85.72706210298368,0,90,1.0,2,0.16963014645327176
2.925,0.08636519236693461,90.12554414875623,0,90,1.0,2,0.26032049791249967
2.93,0.10834733138818661,95.76438236317041,0,90,1.0,2,0.3765852033643384
2.935,0.1334809643017884,102.40631247838554,0,90,1.0,2,0.5135322160491865
2.94,0.16148868344343945,109.51624731799802,0,90,1.0,2,0.6601288106803715
2.945,0.191860907532018,116.29749655462248,0,90,1.0,2,0.7999483825695357
2.95,0.22384764873847726,121.82388594751711,0,90,1.0,2,0.9138945556189095
2.955,0.25647215537198226,125.24436869130892,0,90,1.0,2,0.9844199730166788
2.96,0.2885689161419028,126.0,0,90,1.0,2,1.0
2.965,0.31884566517832524,123.97778706854874,0,90,1.0,2,0.9583048880113142
2.97,0.3459657668955683,119.54358950815404,0,90,1.0,2,0.8668781341887432
2.975,0.3686441789190902,113.44132554854066,0,90,1.0,2,0.7410582587327972
2.98,0.3857476379544367,106.59703250521925,0,90,1.0,2,0.599938814540603
2.985,0.3963882865005728,99.89899699454637,0,90,1.0,2,0.46183498957827557
2.99,0.4,94.02516929242782,0,90,1.0,2,0.3407251400500581
2.995,0.39638828650057273,89.3603322958374,0,90,1.0,2,0.24454293393479165
3.0,0.38574763795443656,86.00561321118767,0,90,1.0,2,0.1753734682719106
3.005,0.36864417891908974,83.85152120488316,0,90,1.0,2,0.13095920010068363
3.01,0.345965766895568,82.67378992307566,0,90,1.0,2,0.10667608088815793
3.015,0.3188456651783249,82.21795644486333,0,90,1.0,2,0.09727745247140893
3.02,0.28856891614190205,82.25491311032039,0,90,1.0,2,0.09803944557361624
3.025,0.2564721553719815,82.60568848479885,0,90,1.0,2,0.10527192752162572
3.03,0.22384764873847685,83.14350119463039,0,90,1.0,2,0.11636084937382245
3.035,0.19186090753201765,83.78381880877807,0,90,1.0,2,0.12956327440779516
3.04,0.16148868344343878,84.47111934410529,0,90,1.0,2,0.14373441946608845
3.045,0.1334809643017881,85.16736816282359,0,90,1.0,2,0.15809006521285757
3.05,0.10834733138818531,85.84401473859923,0,90,1.0,2,0.17204154100204594
3.055,0.08636519236690572,86.47738375513784,0,90,1.0,2,0.18510069598222342
3.06,0.06760532616242629,87.04656798666497,0,90,1.0,2,0.1968364533332983
3.065,0.05196904332202373,87.53286735530213,0,90,1.0,2,0.2068632444392192
3.07,0.03923107185803287,87.92003875076709,0,90,1.0,2,0.21484615980963073
3.075,0.02908287038705761,88.1948762403954,0,90,1.0,2,0.22051291217310107
3.08,0.02117220077308346,88.34783554716185,0,90,1.0,2,0.22366671231261545
3.085,0.0151361834125735,88.37354028569607,0,90,1.0,2,0.22419670692156837
3.09,0.010626454858290009,88.27108106749418,0,90,1.0,2,0.22208414572152949
3.095,0.007326255555493652,88.04406438191086,0,90,1.0,2,0.21740338931774963
3.1,0.004960179211183015,87.70040053904515,0,90,1.0,2,0.21031753688752883
3.105,0.0032978759379303545,87.25184573884796,0,90,1.0,2,0.20106898430614353
3.11,0.002153242296767213,86.71333452777212,0,90,1.0,2,0.18996566036643545
3.115,0.001380616732225004,86.10215528685912,0,90,1.0,2,0.17736402653317765
3.12,0.0008693106590991584,85.43703209507676,0,90,1.0,2,0.16365014629024247
3.125,0.000537524815942247,84.73718067857484,0,90,1.0,2,0.14922022017680092
3.13,0.0003263951340288585,84.02140412721407,0,90,1.0,2,0.1344619407673004
3.135,0.00019463030985187395,83.30728624532938,0,90,1.0,2,0.11973786072844081
3.14,0.00011397219555062695,82.61052800894745,0,90,1.0,2,0.10537171152468978
3.145,6.55403863487943e-05,81.94445724555983,0,90,1.0,2,0.09163829372288314
3.15,3.701184389455385e-05,81.31972513974611,0,90,1.0,2,0.07875721937620848
3.155,2.0525516217290957e-05,80.74418725350604,0,90,1.0,2,0.06689045883517611
3.16,1.1178128483661116e-05,80.22295293316265,0,90,1.0,2,0.056143359446652476
3.165,5.978135409912517e-06,79.75857634759942,0,90,1.0,2,0.046568584486585886
3.17,3.1396702713238487e-06,79.35135557138227,0,90,1.0,2,0.038172279822314865
3.175,1.6192875458531019e-06,78.9997032039245,0,90,1.0,2,0.030921715544834992
3.18,8.201353897972012e-07,78.70055267993662,0,90,1.0,2,0.02475366350384785
3.185,4.0791415086824765e-07,78.44976802421002,0,90,1.0,2,0.01958284586000033
3.19,1.9923866938774793e-07,78.24253048240675,0,90,1.0,2,0.015309906853747415
3.195,9.556527981051257e-08,78.07368229950097,0,90,1.0,2,0.011828501020638621
3.2,4.501406988770349e-08,77.93801505095327,0,90,1.0,2,0.009031238163984913
3.205,0.0,77.8304966317818,0,90,1.0,2,0.006814363541892754
3.21,0.0,77.74643674394598,0,90,1.0,2,0.005081169978267584
3.215,0.0,77.68159517563214,0,90,1.0,2,0.0037442304254049416
3.22,0.0,77.63224022257143,0,90,1.0,2,0.0027266025272458896
3.225,0.0,77.59516631581924,0,90,1.0,2,0.0019621920787472524
3.23,0.0,77.56768046943643,0,90,1.0,2,0.0013954735966273202
3.235,0.0,77.54756679479637,0,90,1.0,2,0.0009807586555951992
3.24,0.0,77.53303732186714,0,90,1.0,2,0.0006811818941678587
3.245,0.0,77.52267598708985,0,90,1.0,2,0.00046754612556401535
3.25,0.0,77.51538112097494,0,90,1.0,2,0.0003171365149471419
3.255,0.0,77.51031027372,0,90,1.0,2,0.00021258296329886004
3.26,0.0,77.50682987606086,0,90,1.0,2,0.00014082218682191167
3.265,0.0,77.50447111531227,0,90,1.0,2,9.218794458289717e-05
3.27,0.0,77.50289253977044,0,90,1.0,2,5.963999526685941e-05
3.275,0.0,77.50184928236199,0,90,1.0,2,3.812953323686604e-05
3.28,0.0,77.50116838920664,0,90,1.0,2,2.4090499105981152e-05
3.285,0.0,77.50072951170684,0,90,1.0,2,1.5041478491477542e-05
3.29,0.0,77.50045012943687,0,90,1.0,2,9.281019316924508e-06
3.295,0.0,77.50027447512092,0,90,1.0,2,5.659280843666547e-06
3.3,0.0,77.50016539751311,0,90,1.0,2,3.4102580023678343e-06
3.305,0.0,77.50009849527245,0,90,1.0,2,2.03083035986901e-06
3.31,0.0,77.50005796451639,0,90,1.0,2,1.1951446677676826e-06
3.315,0.0,77.50003371083174,0,90,1.0,2,6.950686957497027e-07
3.32,0.0,77.50001937479605,0,90,1.0,2,3.9948033100493557e-07
3.325,0.0,77.50001100437119,0,90,1.0,2,2.2689425130939178e-07
3.33,0.001684486749771458,77.50000617666068,0,90,1.0,2,1.2735382837650157e-07
3.335,0.004172395771277602,77.50000342612084,0,90,1.0,2,7.064166682998944e-08
3.34,0.009438687428818865,77.5000018780711,0,90,1.0,2,3.872311552739345e-08
3.345,0.019500507867137046,77.50000101737673,0,90,1.0,2,2.097683983903181e-08
3.35,0.03679496976339974,77.50000054464309,0,90,1.0,2,1.1229754354363397e-08
3.355,0.06340728953298436,77.50000028813938,0,90,1.0,2,5.941018050939466e-09
3.36,0.09979255396093453,77.50000015064462,0,90,1.0,2,3.106074719306486e-09
3.365,0.14343835518453557,77.50000007783323,0,90,1.0,2,1.6048089684172924e-09
3.37,0.18829581417209276,77.50000003974084,0,90,1.0,2,8.193987619004887e-10
3.375,0.2257481735193119,77.50000002005254,0,90,1.0,2,4.134544161791654e-10
3.38,0.24718154073554727,77.50000000999913,0,90,1.0,2,2.061675641203861e-10
3.385,0.24718154074102772,77.50000000492737,0,90,1.0,2,1.0159530490651828e-10
3.39,0.22574817354072055,77.50000000239955,0,90,1.0,2,4.94751639428042e-11
3.395,0.18829581422840957,77.50000000115479,0,90,1.0,2,2.381006731983567e-11
3.4,0.14343835532456656,77.5000000005492,0,90,1.0,2,1.132385365316313e-11
3.405,0.09979255431561854,77.50000000025813,0,90,1.0,2,5.322184846328437e-12
3.41,0.06340729067170194,77.5000000001199,0,90,1.0,2,2.4721027058177174e-12
3.415,0.03679497683410042,77.50000000005502,0,90,1.0,2,1.1345243187064363e-12
3.42,0.019500578284482293,77.50000000002495,0,90,1.0,2,5.145208428844272e-13
3.425,0.009439396781978427,77.50000000001118,0,90,1.0,2,2.305967558941026e-13
3.43,0.004178588733610924,77.50000000000496,0,90,1.0,2,1.0225955248671133e-13
3.435,0.0017299316936037381,77.50000000000217,0,90,1.0,2,4.48301189984723e-14
3.44,0.0008997325756988589,77.50000000000094,0,90,1.0,2,1.9338482705223346e-14
3.445,0.001634769674224814,77.5000000000004,0,90,1.0,2,8.204204784034146e-15
3.45,0.00614904736476635,77.50000000000017,0,90,1.0,2,3.516087764586063e-15
3.455,0.02168080359963608,77.50000000000007,0,90,1.0,2,1.465036568577526e-15
3.46,0.06433400338904088,77.50000000000003,0,90,1.0,2,5.860146274310105e-16
3.465,0.1593410769217493,77.50000000000001,0,90,1.0,2,2.9300731371550523e-16
3.47,0.3291989194808569,77.5,0,90,1.0,2,0.0
3.475,0.5672906802982638,77.5,0,90,1.0,2,0.0
3.48,0.815339152120446,77.5,0,90,1.0,2,0.0
3.485,0.9768711246313155,77.50000284586159,1,90,1.0,2,5.8677558500516847e-08
3.49,0.9726380909165361,77.50000527961552,0,90,1.0,2,1.0885805199295553e-07
3.495,0.7921091683291741,77.50001031954956,0,90,1.0,2,2.1277421772716367e-07
3.5,0.49139090102639077,77.5000219076864,0,90,1.0,2,4.517048742836215e-07
3.505,0.15739335672107918,77.5000513062313,0,90,1.0,2,1.0578604391548184e-06
3.51,-0.11102342218909485,77.50013076005604,0,90,1.0,2,2.6960836296509407e-06
3.515,-0.2314207883647528,77.50035020381222,0,90,1.0,2,7.220697159130761e-06
3.52,-0.2029124434754801,77.50095018691317,0,90,1.0,2,1.9591482745824776e-05
3.525,-0.11151350554305876,77.50254252172627,0,90,1.0,2,5.242312837668747e-05
3.53,-0.039430666652076896,77.50659976740856,0,90,1.0,2,0.00013607767852699768
3.535,-0.006087703519843621,77.51646537881305,0,90,1.0,2,0.00033949234666087036
3.54,0.005350271385530551,77.53928253215116,0,90,1.0,2,0.00080994911651881
3.545,0.010381647827441833,77.58937615985101,0,90,1.0,2,0.0018428074196085336
3.55,0.015115203303506243,77.69363594416527,0,90,1.0,2,0.003992493694129186
3.555,0.021170964062928475,77.89914273187748,0,90,1.0,2,0.008229747049020112
3.56,0.029082821134029553,78.28242166935907,0,90,1.0,2,0.016132405553795196
3.565,0.03923107061708144,78.95815265228912,0,90,1.0,2,0.03006500313998176
3.57,0.051969043308817596,80.08310908029944,0,90,1.0,2,0.05325998103710179
3.575,0.06760532616283861,81.84927459141106,0,90,1.0,2,0.08967576477136206
3.58,0.08636519236693461,84.45983730743244,0,90,1.0,2,0.14350180015324612
3.585,0.10834733138818661,88.08459313200352,0,90,1.0,2,0.2182390336495571
3.59,0.1334809643017884,92.79797719482352,0,90,1.0,2,0.31542221020254674
3.595,0.16148868344343945,98.51242125918112,0,90,1.0,2,0.4332457991583737
3.6,0.191860907532018,104.92855626497301,0,90,1.0,2,0.5655372425767631
3.605,0.22384764873847726,111.52691835651606,0,90,1.0,2,0.7015859454951766
3.61,0.25647215537198226,117.61903404505797,0,90,1.0,2,0.827196578248618
3.615,0.2885689161419028,122.45858606973496,0,90,1.0,3,0.9269811560770096
3.62,0.31884566517832524,125.39083977274626,0,90,1.0,3,0.9874399953143559
3.625,0.3459657668955683,126.0,0,90,1.0,3,1.0
3.63,0.3686441789190902,124.20909158519541,0,90,1.0,3,0.9630740533029981
3.635,0.3857476379544367,120.29953639901376,0,90,1.0,3,0.8824646680209023
3.64,0.3963882865005728,114.84382327361675,0,90,1.0,3,0.7699757376003453
3.645,0.4,108.57369951396845,0,90,1.0,3,0.6406948353395556
3.65,0.39638828650057273,102.2258821880279,0,90,1.0,3,0.5098120038768639
3.655,0.38574763795443656,96.40992335364712,0,90,1.0,3,0.389895326879322
3.66,0.36864417891908974,91.52930221937348,0,90,1.0,3,0.2892639632860511
3.665,0.345965766895568,87.76478426184879,0,90,1.0,3,0.21164503632677914
3.67,0.3188456651783249,85.10862158827653,0,90,1.0,3,0.15687879563456772
3.675,0.28856891614190205,83.42656336784474,0,90,1.0,3,0.1221971828421595
3.68,0.2564721553719815,82.52378753042284,0,90,1.0,3,0.1035832480499554
3.685,0.22384764873847685,82.19783132916163,0,90,1.0,3,0.09686250163219856
3.69,0.19186090753201765,82.27134594925722,0,90,1.0,3,0.09837826699499432
3.695,0.16148868344343878,82.60568848479885,0,90,1.0,3,0.10527192752162572
3.7,0.1334809643017881,83.10088201483204,0,90,1.0,3,0.11548210339859873
3.705,0.10834733138818531,83.68840901871987,0,90,1.0,3,0.12759606224164674
3.71,0.08636519236690572,84.32197791292448,0,90,1.0,3,0.14065933841081404
3.715,0.06760532616242629,84.96931088968523,0,90,1.0,3,0.15400641009660274
3.72,0.05196904332202373,85.60616534397113,0,90,1.0,3,0.16713742977260057
3.725,0.03923107185803287,86.21263167382902,0,90,1.0,3,0.1796418901820417
3.73,0.02908287038705761,86.77121984433278,0,90,1.0,3,0.19115917204809849
3.735,0.02117220077308346,87.26614028210291,0,90,1.0,3,0.20136371715676102
3.74,0.0151361834125735,87.68327944307798,0,90,1.0,3,0.20996452459954595
3.745,0.010626454858290009,88.01051741167255,0,90,1.0,3,0.21671169920974334
3.75,0.007326255555493652,88.23816273562356,0,90,1.0,3,0.22140541722935178
3.755,0.004960179211183015,88.35936913531009,0,90,1.0,3,0.22390451825381627
3.76,0.0032978759379303545,88.3704549759066,0,90,1.0,3,0.22413309228673395
3.765,0.002153242296767213,88.27108106749418,0,90,1.0,3,0.22208414572152949
3.77,0.001380616732225004,88.06426526041847,0,90,1.0,3,0.2178199022766694
3.775,0.0008693106590991584,87.75622938752784,0,90,1.0,3,0.21146864716552244
3.78,0.000537524815942247,87.35608811985259,0,90,1.0,3,0.20321831174953786
3.785,0.0003263951340288585,86.87540102954962,0,90,1.0,3,0.1933072377226726
3.79,0.00019463030985187395,86.32761843902698,0,90,1.0,3,0.18201275132014386
3.795,0.00011397219555062695,85.72745804544682,0,90,1.0,3,0.16963831021539844
3.8,6.55403863487943e-05,85.09025249472462,0,90,1.0,3,0.1565000514376211
3.805,3.701184389455385e-05,84.43130793834682,0,90,1.0,3,0.14291356573910968
3.81,2.0525516217290957e-05,83.7653103417945,0,90,1.0,3,0.12918165653184543
3.815,1.1178128483661116e-05,83.10581041043784,0,90,1.0,3,0.11558371980284206
3.82,5.978135409912517e-06,82.46481016288601,0,90,1.0,3,0.1023672198533198
3.825,3.1396702713238487e-06,81.85246524967621,0,90,1.0,3,0.08974155153971576
3.83,1.6192875458531019e-06,81.276907956434,0,90,1.0,3,0.07787439085430932
3.835,8.201353897972012e-07,80.74418725350604,0,90,1.0,3,0.06689045883517611
3.84,4.0791415086824765e-07,80.25831492720756,0,90,1.0,3,0.056872472725929164
3.845,1.9923866938774793e-07,79.82140122596148,0,90,1.0,3,0.04786394280332949
3.85,9.556527981051257e-08,79.43385983225944,0,90,1.0,3,0.039873398603287494
3.855,4.501406988770349e-08,79.09466036456183,0,90,1.0,3,0.03287959514560479
3.86,0.0,78.80160686539986,0,90,1.0,3,0.026837254956698177
3.865,0.0,78.55162253760456,0,90,1.0,3,0.021682938919681614
3.87,0.0,78.34102394918298,0,90,1.0,3,0.017340699983154285
3.875,0.0,78.16577159895577,0,90,1.0,3,0.0137272494630056
3.88,0.0,78.02168769123986,0,90,1.0,3,0.010756447242059007
3.885,0.0,77.90463583247852,0,90,1.0,3,0.008343006855227193
3.89,0.0,77.81066083961933,0,90,1.0,3,0.006405378136481049
3.895,0.0,77.73608973677702,0,90,1.0,3,0.004867829624268409
3.9,0.0,77.67759720552577,0,90,1.0,3,0.003661798052077754
3.905,0.0,77.63224022257143,0,90,1.0,3,0.0027266025272458896
3.91,0.0,77.59746741293033,0,90,1.0,3,0.0020096373800067655
3.915,0.0,77.57110886220912,0,90,1.0,3,0.001466162107404441
3.92,0.0,77.55135189140306,0,90,1.0,3,0.0010588018845991423
3.925,0.0,77.53670773455,0,90,1.0,3,0.0007568605061856994
3.93,0.0,77.52597330075044,0,90,1.0,3,0.0005355319742358057
3.935,0.0,77.51819135838316,0,90,1.0,3,0.00037507955429202044
3.94,0.0,77.51261163923783,0,90,1.0,3,0.00026003379871818866
3.945,0.0,77.50865458747553,0,90,1.0,3,0.00017844510258831027
3.95,0.0,77.50587881276304,0,90,1.0,3,0.00012121263428955844
3.955,0.0,77.5039527678497,0,90,1.0,3,8.150036803498289e-05
3.96,0.0,77.5026307611049,0,90,1.0,3,5.424249700817218e-05
3.965,0.0,77.50173312521085,0,90,1.0,3,3.5734540429848964e-05
3.97,0.0,77.50113017810872,0,90,1.0,3,2.3302641416991072e-05
3.975,0.0,77.50072951170684,0,90,1.0,3,1.5041478491477542e-05
3.98,0.0,77.50046610747096,0,90,1.0,3,9.610463318680203e-06
3.985,0.0,77.50029478697198,0,90,1.0,3,6.078081896445378e-06
3.99,0.0,77.50018454357595,0,90,1.0,3,3.805022184636626e-06
3.995,0.0,77.5001143557486,0,90,1.0,3,2.357850486457688e-06
4.0,0.0,77.50007014318696,0,90,1.0,3,1.446251277527444e-06
4.005,0.0,77.50004258742786,0,90,1.0,3,8.780912960048095e-07
4.01,0.0,77.50002559444704,0,90,1.0,3,5.277205574886991e-07
4.015,0.0,77.50001522574371,0,90,1.0,3,3.139328599872053e-07
4.02,0.0,77.5000089656071,0,90,1.0,3,1.8485787822822944e-07
4.025,0.0,77.50000522575824,0,90,1.0,3,1.0774759265793186e-07
4.03,0.0,77.50000301500023,0,90,1.0,3,6.21649532309e-08
4.035,0.001684486749771458,77.50000172184403,0,90,1.0,3,3.5501938745040105e-08
4.04,0.004172395771277602,77.50000097334923,0,90,1.0,3,2.0069056299970978e-08
4.045,0.009438687428818865,77.50000054464309,0,90,1.0,3,1.1229754354363397e-08
4.05,0.019500507867137046,77.50000030166417,0,90,1.0,3,6.219879850570728e-09
4.055,0.03679496976339974,77.50000016538796,0,90,1.0,3,3.410061017066911e-09
4.06,0.06340728953298436,77.50000008975371,0,90,1.0,3,1.850592000373956e-09
4.065,0.09979255396093453,77.5000000482136,0,90,1.0,3,9.940947034620061e-10
4.07,0.14343835518453557,77.50000002563627,0,90,1.0,3,5.285828498842617e-10
4.075,0.18829581417209276,77.50000001349301,0,90,1.0,3,2.782063422704802e-10
4.08,0.2257481735193119,77.50000000702961,0,90,1.0,3,1.449404628390804e-10
4.085,0.24718154073554727,77.50000000362512,0,90,1.0,3,7.474470069225681e-11
4.09,0.24718154074102772,77.50000000185047,0,90,1.0,3,3.8153947355464515e-11
4.095,0.22574817354072055,77.50000000093499,0,90,1.0,3,1.927812319859795e-11
4.1,0.18829581422840957,77.50000000046764,0,90,1.0,3,9.641991672436131e-12
4.105,0.14343835532456656,77.50000000023151,0,90,1.0,3,4.773382147739296e-12
4.11,0.09979255431561854,77.50000000011345,0,90,1.0,3,2.3390773853908783e-12
4.115,0.06340729067170194,77.50000000005502,0,90,1.0,3,1.1345243187064363e-12
4.12,0.03679497683410042,77.50000000002642,0,90,1.0,3,5.447005961971242e-13
4.125,0.019500578284482293,77.50000000001256,0,90,1.0,3,2.590184653245066e-13
4.13,0.009439396781978427,77.50000000000591,0,90,1.0,3,1.2189104250565017e-13
4.135,0.004178588733610924,77.50000000000276,0,90,1.0,3,5.684341886080802e-14
4.14,0.0017299316936037381,77.50000000000126,0,90,1.0,3,2.6077650920679964e-14
4.145,0.0008997325756988589,77.50000000000058,0,90,1.0,3,1.2013299862335714e-14
4.15,0.001634769674224814,77.50000000000026,0,90,1.0,3,5.274131646879094e-15
4.155,0.00614904736476635,77.50000000000011,0,90,1.0,3,2.344058509724042e-15
4.16,0.02168080359963608,77.50000000000006,0,90,1.0,3,1.172029254862021e-15
4.165,0.06433400338904088,77.50000000000003,0,90,1.0,3,5.860146274310105e-16
4.17,0.1593410769217493,77.50000000000001,0,90,1.0,3,2.9300731371550523e-16
4.175,0.3291989194808569,77.5,0,90,1.0,3,0.0
4.18,0.5672906802982638,77.5,0,90,1.0,3,0.0
4.185,0.815339152120446,77.5,0,90,1.0,3,0.0
4.19,0.9768711246313155,77.50000285700571,1,90,1.0,3,5.890733424991792e-08
4.195,0.9726380909165361,77.5000055981037,0,90,1.0,3,1.1542481851411701e-07
4.2,0.7921091683291741,77.50001170193522,0,90,1.0,3,2.412770148805872e-07
4.205,0.49139090102639077,77.5000270882034,0,90,1.0,3,5.585196576478281e-07
4.21,0.15739335672107918,77.50007030382385,0,90,1.0,3,1.4495633782883385e-06
4.215,-0.11102342218909485,77.50019904185636,0,90,1.0,3,4.1039558012827685e-06
4.22,-0.2314207883647528,77.50058607134292,0,90,1.0,3,1.2083945214904703e-05
4.225,-0.2029124434754801,77.50172157287263,0,90,1.0,3,3.549634788918851e-05
4.23,-0.11151350554305876,77.50491227303426,0,90,1.0,3,0.00010128398008792904
4.235,-0.039430666652076896,77.51341548520728,0,90,1.0,3,0.00027660794241804996
4.24,-0.006087703519843621,77.53479767151332,0,90,1.0,3,0.0007174777631611781
4.245,0.005350271385530551,77.58538694566,0,90,1.0,3,0.001760555580618663
4.25,0.010381647827441833,77.69780421918405,0,90,1.0,3,0.004078437508949487
4.255,0.015115203303506243,77.93212374321509,0,90,1.0,3,0.008909767901341991
4.26,0.021170964062928475,78.38971621807644,0,90,1.0,3,0.018344664290235957
4.265,0.029082821134029553,79.22592550239746,0,90,1.0,3,0.035586092832937295
4.27,0.03923107061708144,80.65382694330745,0,90,1.0,3,0.06502735965582372
4.275,0.051969043308817596,82.92814688244911,0,90,1.0,3,0.1119205542773013
4.28,0.06760532616283861,86.29905479142072,0,90,1.0,3,0.1814238101323859
4.285,0.08636519236693461,90.93310591840898,0,90,1.0,3,0.27697125604966977
4.29,0.10834733138818661,96.81375736041753,0,90,1.0,3,0.3982218012457222
4.295,0.1334809643017884,103.65218979533569,0,90,1.0,3,0.5392204081512513
4.3,0.16148868344343945,110.85098906485283,0,90,1.0,3,0.6876492590691304
4.305,0.191860907532018,117.55776115670236,0,90,1.0,3,0.8259332197258218
4.31,0.22384764873847726,122.81835656489098,0,90,1.0,3,0.9343991044307418
4.315,0.25647215537198226,125.79775358536652,0,90,1.0,3,0.9958299708322994
4.32,0.2885689161419028,126.0,0,90,1.0,3,1.0
4.325,0.31884566517832524,123.40809829602208,0,90,1.0,3,0.9465587277530325
4.33,0.3459657668955683,118.49003065599916,0,90,1.0,3,0.8451552712577147
4.335,0.3686441789190902,112.06852813875727,0,90,1.0,3,0.71275315750015
4.34,0.3857476379544367,105.10477932098621,0,90,1.0,3,0.5691707076492002
4.345,0.3963882865005728,98.47443100842273,0,90,1.0,3,0.4324624950190253
4.35,0.4,92.8066072912793,0,90,1.0,3,0.3156001503356558
4.355,0.39638828650057273,88.42148372327156,0,90,1.0,3,0.2251852314076611
4.36,0.38574763795443656,85.35990241659837,0,90,1.0,3,0.16205984364120357
4.365,0.36864417891908974,83.46944358620377,0,90,1.0,3,0.12308131105574777
4.37,0.345965766895568,82.50409108932574,0,90,1.0,3,0.1031771358623864
4.375,0.3188456651783249,82.20538889595129,0,90,1.0,3,0.09701832775157294
4.38,0.28856891614190205,82.35118221387862,0,90,1.0,3,0.10002437554388899
4.385,0.2564721553719815,82.77370137387766,0,90,1.0,3,0.10873611080160117
4.39,0.22384764873847685,83.35697885227354,0,90,1.0,3,0.12076245056234107
4.395,0.19186090753201765,84.0246919330554,0,90,1.0,3,0.13452973057846174
4.4,0.16148868344343878,84.72653191551647,0,90,1.0,3,0.1490006580518861
4.405,0.1334809643017881,85.42725699479512,0,90,1.0,3,0.16344859783082713
4.41,0.10834733138818531,86.09955203844497,0,90,1.0,3,0.17731035130814368
4.415,0.08636519236690572,86.72019234262434,0,90,1.0,3,0.1901070586108112
4.42,0.06760532616242629,87.26848870696234,0,90,1.0,3,0.20141213828788337
4.425,0.05196904332202373,87.72606423286395,0,90,1.0,3,0.21084668521368966
4.43,0.03923107185803287,88.07728034294114,0,90,1.0,3,0.2180882544936317
4.435,0.02908287038705761,88.30988433026353,0,90,1.0,3,0.22288421299512431
4.44,0.02117220077308346,88.41562988670005,0,90,1.0,3,0.2250645337463927
4.445,0.0151361834125735,88.39073171494468,0,90,1.0,3,0.22455116938030265
4.45,0.010626454858290009,88.23608061227844,0,90,1.0,3,0.2213624868511019
4.455,0.007326255555493652,87.95718762032197,0,90,1.0,3,0.2156121158829273
4.46,0.004960179211183015,87.56385719193653,0,90,1.0,3,0.20750221014302134
4.465,0.0032978759379303545,87.06961485035202,0,90,1.0,3,0.19731164639901083
4.47,0.002153242296767213,86.49093547163766,0,90,1.0,3,0.18538011281727124
4.475,0.001380616732225004,85.84633343081921,0,90,1.0,3,0.17208934908905596
4.48,0.0008693106590991584,85.15538449808108,0,90,1.0,3,0.15784297934187785
4.485,0.000537524815942247,84.43775108996621,0,90,1.0,3,0.14304641422610748
4.49,0.0003263951340288585,83.71227751571944,0,90,1.0,3,0.12808819620040074
4.495,0.00019463030985187395,82.99621117057644,0,90,1.0,3,0.11332394166136998
4.5,0.00011397219555062695,82.30459074772966,0,90,1.0,3,0.09906372675731262
4.505,6.55403863487943e-05,81.64982534565863,0,90,1.0,3,0.08556340918883767
4.51,3.701184389455385e-05,81.04147079905813,0,90,1.0,3,0.0730200164754254
4.515,2.0525516217290957e-05,80.4861934573874,0,90,1.0,3,0.06157099912138971
4.52,1.1178128483661116e-05,79.98789840738041,0,90,1.0,3,0.05129687437897759
4.525,5.978135409912517e-06,79.54798972143004,0,90,1.0,3,0.04222659219443386
4.53,3.1396702713238487e-06,79.1657251050575,0,90,1.0,3,0.03434484752695885
4.535,1.6192875458531019e-06,78.83862619104653,0,90,1.0,3,0.027600540021577923
4.54,8.201353897972012e-07,78.5629081394647,0,90,1.0,3,0.021915631741540122
4.545,4.0791415086824765e-07,78.33389731528789,0,90,1.0,3,0.017193759078100723
4.55,1.9923866938774793e-07,78.14641264967727,0,90,1.0,3,0.013328095869634505
4.555,9.556527981051257e-08,77.9950938659425,0,90,1.0,3,0.010208120947267908
4.56,4.501406988770349e-08,77.87466719823882,0,90,1.0,3,0.007725096870903608
4.565,0.0,77.78014587226397,0,90,1.0,3,0.00577620355183448
4.57,0.0,77.7069680038797,0,90,1.0,3,0.004267381523292672
4.575,0.0,77.651078485453,0,90,1.0,3,0.0031150203186185305
4.58,0.0,77.6089638555516,0,90,1.0,3,0.0022466774340534693
4.585,0.0,77.57765022693218,0,90,1.0,3,0.0016010356068490341
4.59,0.0,77.55467432434818,0,90,1.0,3,0.0011273056566635917
4.595,0.0,77.53803685039938,0,90,1.0,3,0.0007842649566882334
4.6,0.0,77.52614605077103,0,90,1.0,3,0.0005390938303305668
4.605,0.0,77.5177577558228,0,90,1.0,3,0.0003661392953154532
4.61,0.0,77.51191654857978,0,90,1.0,3,0.000245702032572712
4.615,0.0,77.507901204888,0,90,1.0,3,0.0001629114409896965
4.62,0.0,77.5051762660216,0,90,1.0,3,0.00010672713446612442
4.625,0.0,77.50335058222204,0,90,1.0,3,6.908416952660915e-05
4.63,0.0,77.50214291231161,0,90,1.0,3,4.4183759002311787e-05
4.635,0.0,77.50135415677913,0,90,1.0,3,2.792075833256313e-05
4.64,0.0,77.50084550060859,0,90,1.0,3,1.7433002238989895e-05
4.645,0.0,77.50052160209725,0,90,1.0,3,1.075468241754972e-05
4.65,0.0,77.50031793999378,0,90,1.0,3,6.555463789233549e-06
4.655,0.0,77.50019148352861,0,90,1.0,3,3.948113991960669e-06
4.66,0.0,77.50011394574456,0,90,1.0,3,2.3493967950292517e-06
4.665,0.0,77.50006699543745,0,90,1.0,3,1.381349225776202e-06
4.67,0.0,77.50003891999467,0,90,1.0,3,8.024741168107361e-07
4.675,0.0,77.50002233987531,0,90,1.0,3,4.6061598587565985e-07
4.68,0.0,77.5000126697821,0,90,1.0,3,2.6123262050673147e-07
4.685,0.001684486749771458,77.50000709966693,0,90,1.0,3,1.4638488517110878e-07
4.69,0.004172395771277602,77.50000393085688,0,90,1.0,3,8.104859540891112e-08
4.695,0.009438687428818865,77.50000215038844,0,90,1.0,3,4.433790597441029e-08
4.7,0.019500507867137046,77.50000116232353,0,90,1.0,3,2.3965433568911375e-08
4.705,0.03679496976339974,77.50000062075121,0,90,1.0,3,1.2798993992939508e-08
4.71,0.06340728953298436,77.50000032755825,0,90,1.0,3,6.7537784391404165e-09
4.715,0.09979255396093453,77.50000017078115,0,90,1.0,3,3.52126080870971e-09
4.72,0.14343835518453557,77.50000008797753,0,90,1.0,3,1.8139696022472824e-09
4.725,0.18829581417209276,77.50000004478,0,90,1.0,3,9.232988623366931e-10
4.73,0.2257481735193119,77.50000002252042,0,90,1.0,3,4.6433865229362745e-10
4.735,0.24718154073554727,77.50000001119051,0,90,1.0,3,2.3073212527303918e-10
4.74,0.24718154074102772,77.50000000549419,0,90,1.0,3,1.1328219462137492e-10
4.745,0.22574817354072055,77.50000000266525,0,90,1.0,3,5.495352168734301e-11
4.75,0.18829581422840957,77.50000000127747,0,90,1.0,3,2.6339599459141628e-11
4.755,0.14343835532456656,77.50000000060498,0,90,1.0,3,1.247390735949649e-11
4.76,0.09979255431561854,77.5000000002831,0,90,1.0,3,5.83699869652658e-12
4.765,0.06340729067170194,77.50000000013088,0,90,1.0,3,2.698597359319803e-12
4.77,0.03679497683410042,77.50000000005979,0,90,1.0,3,1.2326817688011305e-12
4.775,0.019500578284482293,77.50000000002699,0,90,1.0,3,5.564208887457445e-13
4.78,0.009439396781978427,77.50000000001204,0,90,1.0,3,2.481771947170329e-13
4.785,0.004178588733610924,77.5000000000053,0,90,1.0,3,1.0929172801588345e-13
4.79,0.0017299316936037381,77.5000000000023,0,90,1.0,3,4.746718482191185e-14
4.795,0.0008997325756988589,77.500000000001,0,90,1.0,3,2.0510511960085366e-14
4.8,0.001634769674224814,77.50000000000043,0,90,1.0,3,8.790219411465157e-15
4.805,0.00614904736476635,77.50000000000017,0,90,1.0,3,3.516087764586063e-15
4.81,0.02168080359963608,77.50000000000007,0,90,1.0,3,1.465036568577526e-15
4.815,0.06433400338904088,77.50000000000003,0,90,1.0,3,5.860146274310105e-16
4.82,0.1593410769217493,77.50000000000001,0,90,1.0,4,2.9300731371550523e-16
4.825,0.3291989194808569,77.5,0,90,1.0,4,0.0
4.83,0.5672906802982638,77.5,0,90,1.0,4,0.0
4.835,0.815339152120446,77.5,0,90,1.0,4,0.0
4.84,0.9768711246313155,77.50000284586159,1,90,1.0,4,5.8677558500516847e-08
4.845,0.9726380909165361,77.50000540621835,0,90,1.0,4,1.1146841957598394e-07
4.85,0.7921091683291741,77.5000108768639,0,90,1.0,4,2.2426523498287464e-07
4.855,0.49139090102639077,77.5000239632854,0,90,1.0,4,4.940883587719842e-07
4.86,0.15739335672107918,77.50005866103898,0,90,1.0,4,1.2095059582978926e-06
4.865,-0.11102342218909485,77.5001565274914,0,90,1.0,4,3.2273709566722866e-06
4.87,-0.2314207883647528,77.50043717338163,0,90,1.0,4,9.013884157259303e-06
4.875,-0.2029124434754801,77.50122904689188,0,90,1.0,4,2.534117302843697e-05
4.88,-0.11151350554305876,77.50338542462353,0,90,1.0,4,6.980256955733511e-05
4.885,-0.039430666652076896,77.50899344295689,0,90,1.0,4,0.0001854318135441804
4.89,-0.006087703519843621,77.52284424176906,0,90,1.0,4,0.00047101529420751363
4.895,0.005350271385530551,77.55523138800068,0,90,1.0,4,0.0011387915051686152
4.9,0.010381647827441833,77.62679470536686,0,90,1.0,4,0.002614323821997157
4.905,0.015115203303506243,77.77602863433232,0,90,1.0,4,0.005691312048089076
4.91,0.021170964062928475,78.06941882061071,0,90,1.0,4,0.011740594239396024
4.915,0.029082821134029553,78.61264705687972,0,90,1.0,4,0.022941176430509753
4.92,0.03923107061708144,79.55887006289213,0,90,1.0,4,0.04245092913179641
4.925,0.051969043308817596,81.10733409746567,0,90,1.0,4,0.07437802262815808
4.93,0.06760532616283861,83.4840347084959,0,90,1.0,4,0.12338215893805975
4.935,0.08636519236693461,86.89791075708786,0,90,1.0,4,0.19377135581624447
4.94,0.10834733138818661,91.47290531438892,0,90,1.0,4,0.28810114050286445
4.945,0.1334809643017884,97.16780461229023,0,90,1.0,4,0.40552174458330364
4.95,0.16148868344343945,103.70838557386074,0,90,1.0,4,0.5403790839971286
4.955,0.191860907532018,110.56339952140614,0,90,1.0,4,0.6817195777609514
4.96,0.22384764873847726,116.9905505634757,0,90,1.0,4,0.8142381559479525
4.965,0.25647215537198226,122.1585552525796,0,90,1.0,4,0.9207949536614352
4.97,0.2885689161419028,125.32204653102696,0,90,1.0,4,0.9860215779593187
4.975,0.31884566517832524,126.0,0,90,1.0,4,1.0
4.98,0.3459657668955683,124.09929318952061,0,90,1.0,4,0.960810168856095
4.985,0.3686441789190902,119.94001348411793,0,90,1.0,4,0.8750518244148026
4.99,0.3857476379544367,114.17337664266108,0,90,1.0,4,0.7561520957249708
4.995,0.3963882865005728,107.62152108345802,0,90,1.0,4,0.6210622903805777
5.0,0.4,101.0936464742221,0,90,1.0,4,0.4864669376128268
5.005,0.39638828650057273,95.23476363020654,0,90,1.0,4,0.3656652294887947
5.01,0.38574763795443656,90.4435854989949,0,90,1.0,4,0.2668780515256682
5.015,0.36864417891908974,86.86645009682657,0,90,1.0,4,0.19312268240879524
5.02,0.345965766895568,84.44866361769579,0,90,1.0,4,0.14327141479785124
5.025,0.3188456651783249,83.01238886958782,0,90,1.0,4,0.11365750246572832
5.03,0.28856891614190205,82.33219786893802,0,90,1.0,4,0.09963294575129947
5.035,0.2564721553719815,82.19037236159303,0,90,1.0,4,0.09670870848645433
5.04,0.22384764873847685,82.4067713597822,0,90,1.0,4,0.10117054350066387
5.045,0.19186090753201765,82.84733349045737,0,90,1.0,4,0.11025429877231697
5.05,0.16148868344343878,83.41925731830845,0,90,1.0,4,0.12204654264553512
5.055,0.1334809643017881,84.06060249564256,0,90,1.0,4,0.13527015454933106
5.06,0.10834733138818531,84.7296112585338,0,90,1.0,4,0.14906414966049059
5.065,0.08636519236690572,85.39633568541677,0,90,1.0,4,0.16281104506013966
5.07,0.06760532616242629,86.03717687645855,0,90,1.0,4,0.17602426549399064
5.075,0.05196904332202373,86.63190565549688,0,90,1.0,4,0.18828671454632742
5.08,0.03923107185803287,87.16241124326619,0,90,1.0,4,0.19922497408796272
5.085,0.02908287038705761,87.61248306715446,0,90,1.0,4,0.20850480550833933
5.09,0.02117220077308346,87.96811794886472,0,90,1.0,4,0.21583748348174672
5.095,0.0151361834125735,88.21802622801505,0,90,1.0,4,0.22099023150546493
5.1,0.010626454858290009,88.35414161770949,0,90,1.0,4,0.2237967343857626
5.105,0.007326255555493652,88.37202232834514,0,90,1.0,4,0.22416540883185854
5.11,0.004960179211183015,88.27108106749418,0,90,1.0,4,0.22208414572152949
5.115,0.0032978759379303545,88.05461363524023,0,90,1.0,4,0.21762089969567486
5.12,0.002153242296767213,87.7296191903864,0,90,1.0,4,0.21091998330693612
5.125,0.001380616732225004,87.30642415743608,0,90,1.0,4,0.20219431252445533
5.13,0.0008693106590991584,86.79813742453794,0,90,1.0,4,0.19171417370181323
5.135,0.000537524815942247,86.21997675578243,0,90,1.0,4,0.17979333517077167
5.14,0.0003263951340288585,85.58851459767371,0,90,1.0,4,0.16677349685925172
5.145,0.00019463030985187395,84.92089522273513,0,90,1.0,4,0.15300814892237374
5.15,0.00011397219555062695,84.2340743273611,0,90,1.0,4,0.13884689334765155
5.155,6.55403863487943e-05,83.54412713946391,0,90,1.0,4,0.1246211781332765
5.16,3.701184389455385e-05,82.86566255613282,0,90,1.0,4,0.11063221765222306
5.165,2.0525516217290957e-05,82.2113698868779,0,90,1.0,4,0.09714164715212173
5.17,1.1178128483661116e-05,81.59171264922182,0,90,1.0,4,0.08436520926230553
5.175,5.978135409912517e-06,81.0147717845139,0,90,1.0,4,0.07246952133018345
5.18,3.1396702713238487e-06,80.48622973646444,0,90,1.0,4,0.06157174714359665
5.185,1.6192875458531019e-06,80.00947792665202,0,90,1.0,4,0.0517418129206603
5.19,8.201353897972012e-07,79.58582382558662,0,90,1.0,4,0.04300667681621888
5.195,4.0791415086824765e-07,79.21477027933115,0,90,1.0,4,0.03535608823363192
5.2,1.9923866938774793e-07,78.89433892375651,0,90,1.0,4,0.02874925615992798
5.205,9.556527981051257e-08,78.62141105818226,0,90,1.0,4,0.02312187748829404
5.21,4.501406988770349e-08,78.39206273455854,0,90,1.0,4,0.018393046073371874
5.215,0.0,78.20187543065295,0,90,1.0,4,0.014471658363978296
5.22,0.0,78.04620888776554,0,90,1.0,4,0.01126203892300092
5.225,0.0,77.9204279351801,0,90,1.0,4,0.00866861722020826
5.23,0.0,77.82007993256983,0,90,1.0,4,0.0065995862385531045
5.235,0.0,77.74102351106553,0,90,1.0,4,0.004969556929186289
5.24,0.0,77.67951239873214,0,90,1.0,4,0.003701286571796767
5.245,0.0,77.63224022257143,0,90,1.0,4,0.0027266025272458896
5.25,0.0,77.59635333975864,0,90,1.0,4,0.0019866667991471345
5.255,0.0,77.56943909521827,0,90,1.0,4,0.0014317339220262168
5.26,0.0,77.54949660528963,0,90,1.0,4,0.0010205485626728467
5.265,0.0,77.53489641831816,0,90,1.0,4,0.000719513779755774
5.27,0.0,77.52433438497737,0,90,1.0,4,0.0005017398964405191
5.275,0.0,77.51678394216378,0,90,1.0,4,0.0003460606631707969
5.28,0.0,77.51144989895161,0,90,1.0,4,0.0002360803907548608
5.285,0.0,77.50772579914724,0,90,1.0,4,0.00015929482777810147
5.29,0.0,77.50515607531464,0,90,1.0,4,0.00010631083122978725
5.295,0.0,77.50340352677404,0,90,1.0,4,7.017580977394714e-05
5.3,0.0,77.50222214896947,0,90,1.0,4,4.581750452506846e-05
5.305,0.0,77.50143499784357,0,90,1.0,4,2.9587584403599846e-05
5.31,0.0,77.50091656528996,0,90,1.0,4,1.8898253401142864e-05
5.315,0.0,77.50057904143834,0,90,1.0,4,1.1938998728714274e-05
5.32,0.0,77.50036181782804,0,90,1.0,4,7.460161402809014e-06
5.325,0.0,77.50022361676467,0,90,1.0,4,4.610654941678749e-06
5.33,0.0,77.50013669506535,0,90,1.0,4,2.818454955680882e-06
5.335,0.0,77.50008264857955,0,90,1.0,4,1.7040944237109704e-06
5.34,0.0,77.50004942560916,0,90,1.0,4,1.0190847250055179e-06
5.345,0.0,77.50002923497637,0,90,1.0,4,6.027830178735121e-07
5.35,0.0,77.50001710360048,0,90,1.0,4,3.5265155637829334e-07
5.355,0.0,77.50000989706493,0,90,1.0,4,2.0406319438350074e-07
5.36,0.0,77.50000566447123,0,90,1.0,4,1.1679322127063117e-07
5.365,0.001684486749771458,77.50000320661198,0,90,1.0,4,6.611571089922212e-08
5.37,0.004172395771277602,77.50000179542606,0,90,1.0,4,3.7019093989544774e-08
5.375,0.009438687428818865,77.50000099431209,0,90,1.0,4,2.0501280178652132e-08
5.38,0.019500507867137046,77.50000054464309,0,90,1.0,4,1.1229754354363397e-08
5.385,0.03679496976339974,77.50000029507699,0,90,1.0,4,6.084061584429552e-09
5.39,0.06340728953298436,77.50000015812218,0,90,1.0,4,3.2602510656811926e-09
5.395,0.09979255396093453,77.50000008380778,0,90,1.0,4,1.727995396256879e-09
5.4,0.14343835518453557,77.50000004393492,0,90,1.0,4,9.058745964119732e-10
5.405,0.18829581417209276,77.50000002278082,0,90,1.0,4,4.697077183101503e-10
5.41,0.2257481735193119,77.50000001168324,0,90,1.0,4,2.408915678614969e-10
5.415,0.24718154073554727,77.5000000059264,0,90,1.0,4,1.221937190607183e-10
5.42,0.24718154074102772,77.5000000029734,0,90,1.0,4,6.130709227795003e-11
5.425,0.22574817354072055,77.50000000147553,0,90,1.0,4,3.0423242390394625e-11
5.43,0.18829581422840957,77.50000000072423,0,90,1.0,4,1.4932531728883294e-11
5.435,0.14343835532456656,77.50000000035159,0,90,1.0,4,7.249293948635315e-12
5.44,0.09979255431561854,77.50000000016882,0,90,1.0,4,3.4809268869402023e-12
5.445,0.06340729067170194,77.50000000008018,0,90,1.0,4,1.6531472639828805e-12
5.45,0.03679497683410042,77.50000000003766,0,90,1.0,4,7.764693813460888e-13
5.455,0.019500578284482293,77.5000000000175,0,90,1.0,4,3.606920031837869e-13
5.46,0.009439396781978427,77.50000000000804,0,90,1.0,4,1.6584213956297595e-13
5.465,0.004178588733610924,77.50000000000365,0,90,1.0,4,7.530287962488484e-14
5.47,0.0017299316936037381,77.50000000000165,0,90,1.0,4,3.3988848390998606e-14
5.475,0.0008997325756988589,77.50000000000072,0,90,1.0,4,1.4943372999490767e-14
5.48,0.001634769674224814,77.50000000000033,0,90,1.0,4,6.73916821545662e-15
5.485,0.00614904736476635,77.50000000000014,0,90,1.0,4,2.930073137155052e-15
5.49,0.02168080359963608,77.50000000000006,0,90,1.0,4,1.172029254862021e-15
5.495,0.06433400338904088,77.50000000000003,0,90,1.0,4,5.860146274310105e-16
5.5,0.1593410769217493,77.50000000000001,0,90,1.0,4,2.9300731371550523e-16
5.505,0.3291989194808569,77.5,0,90,1.0,4,0.0
5.51,0.5672906802982638,77.5,0,90,1.0,4,0.0
5.515,0.815339152120446,77.5,0,90,1.0,4,0.0
5.52,0.9768711246313155,77.50000284150002,1,90,1.0,4,5.858762928180591e-08
5.525,0.9726380909165361,77.5000055087254,0,90,1.0,4,1.1358196688794948e-07
5.53,0.7921091683291741,77.50001136395807,0,90,1.0,4,2.3430841373428661e-07
5.535,0.49139090102639077,77.50002585890292,0,90,1.0,4,5.331732559967612e-07
5.54,0.15739335672107918,77.50006577270929,0,90,1.0,4,1.356138335905626e-06
5.545,-0.11102342218909485,77.50018247875063,0,90,1.0,4,3.76244846661487e-06
5.55,-0.2314207883647528,77.50052776496497,0,90,1.0,4,1.0881751855078582e-05
5.555,-0.2029124434754801,77.50152756139154,0,90,1.0,4,3.1496111165786474e-05
5.56,-0.11151350554305876,77.50430755613382,0,90,1.0,4,8.88155903881271e-05
5.565,-0.039430666652076896,77.5116563600092,0,90,1.0,4,0.00024033731977727622
5.57,-0.006087703519843621,77.53002739545968,0,90,1.0,4,0.0006191215558697577
5.575,0.005350271385530551,77.57333096905042,0,90,1.0,4,0.0015119787433075698
5.58,0.010381647827441833,77.66940490223725,0,90,1.0,4,0.0034928845822112743
5.585,0.015115203303506243,77.86976747664984,0,90,1.0,4,0.007624071683501874
5.59,0.021170964062928475,78.26211431813414,0,90,1.0,4,0.01571369728111625
5.595,0.029082821134029553,78.98267513398078,0,90,1.0,4,0.03057062131919128
5.6,0.03923107061708144,80.22218766058688,0,90,1.0,4,0.05612758063065738
5.605,0.051969043308817596,82.21612057642412,0,90,1.0,4,0.09723959951389932
5.61,0.06760532616283861,85.20932922752098,0,90,1.0,4,0.15895524180455634
5.615,0.08636519236693461,89.39039798617173,0,90,1.0,4,0.24516284507570588
5.62,0.10834733138818661,94.8028006534978,0,90,1.0,4,0.35675877636077935
5.625,0.1334809643017884,101.25612781731577,0,90,1.0,4,0.48981706839826333
5.63,0.16148868344343945,108.27370857382006,0,90,1.0,4,0.6345094551303105
5.635,0.191860907532018,115.11341104223824,0,90,1.0,4,0.775534248293572
5.64,0.22384764873847726,120.88000833622657,0,90,1.0,4,0.8944331615716817
5.645,0.25647215537198226,124.71329532894552,0,90,1.0,4,0.9734700067823818
5.65,0.2885689161419028,126.0,0,90,1.0,4,1.0
5.655,0.31884566517832524,124.53834900968857,0,90,1.0,4,0.9698628661791459
5.66,0.3459657668955683,120.59493192202842,0,90,1.0,4,0.8885552973614108
5.665,0.3686441789190902,114.83222413300682,0,90,1.0,4,0.7697365800619963
5.67,0.3857476379544367,108.13422420586735,0,90,1.0,4,0.6316334887807702
5.675,0.3963882865005728,101.3936098555063,0,90,1.0,4,0.492651749598068
5.68,0.4,95.33064507931,0,90,1.0,4,0.3676421665837114
5.685,0.39638828650057273,90.39185276201252,0,90,1.0,4,0.2658113971548973
5.69,0.38574763795443656,86.73955542986523,0,90,1.0,4,0.19050629752299453
5.695,0.36864417891908974,84.31059562557269,0,90,1.0,4,0.14042465207366367
5.7,0.345965766895568,82.9065602268215,0,90,1.0,4,0.11147546859425768
5.705,0.3188456651783249,82.28033336831763,0,90,1.0,4,0.09856357460448717
5.71,0.28856891614190205,82.19778113694667,0,90,1.0,4,0.09686146674116852
5.715,0.2564721553719815,82.46927305071628,0,90,1.0,4,0.1024592381590986
5.72,0.22384764873847685,82.95682150774277,0,90,1.0,4,0.11251178366479946
5.725,0.19186090753201765,83.56687754099825,0,90,1.0,4,0.12509025857728348
5.73,0.16148868344343878,84.23787322707521,0,90,1.0,4,0.1389252211768085
5.735,0.1334809643017881,84.92832444149448,0,90,1.0,4,0.15316132869060786
5.74,0.10834733138818531,85.60801881012263,0,90,1.0,4,0.16717564556953876
5.745,0.08636519236690572,86.25260772478875,0,90,1.0,4,0.18046613865543806
5.75,0.06760532616242629,86.84089403560439,0,90,1.0,4,0.19259575331143078
5.755,0.05196904332202373,87.35388295636871,0,90,1.0,4,0.20317284446121045
5.76,0.03923107185803287,87.77481720348132,0,90,1.0,4,0.21185190110270763
5.765,0.02908287038705761,88.08966243795557,0,90,1.0,4,0.21834355542176428
5.77,0.02117220077308346,88.28771551986046,0,90,1.0,4,0.22242712412083412
5.775,0.0151361834125735,88.36214631799686,0,90,1.0,4,0.22396177975251258
5.78,0.010626454858290009,88.31036736727964,0,90,1.0,4,0.22289417252122967
5.785,0.007326255555493652,88.13417633763018,0,90,1.0,4,0.21926136778618927
5.79,0.004960179211183015,87.83965035915766,0,90,1.0,4,0.213188667199127
5.795,0.0032978759379303545,87.43679744267308,0,90,1.0,4,0.20488242149841407
5.8,0.002153242296767213,86.9389917989111,0,90,1.0,4,0.1946183876064145
5.805,0.001380616732225004,86.36223716698538,0,90,1.0,4,0.18272653952547177
5.81,0.0008693106590991584,85.72431461211428,0,90,1.0,4,0.16957349715699555
5.815,0.000537524815942247,85.04387789533241,0,90,1.0,4,0.15554387413056525
5.82,0.0003263951340288585,84.33956014461978,0,90,1.0,4,0.14102185865195427
5.825,0.00019463030985187395,83.62915046826862,0,90,1.0,4,0.1263742364591468
5.83,0.00011397219555062695,82.92888923969679,0,90,1.0,4,0.11193586061230489
5.835,6.55403863487943e-05,82.25291740154772,0,90,1.0,4,0.09799829693912823
5.84,3.701184389455385e-05,81.61289990625842,0,90,1.0,4,0.08480205992285401
5.845,2.0525516217290957e-05,81.01782800176962,0,90,1.0,4,0.07253253611896114
5.85,1.1178128483661116e-05,80.47399100328275,0,90,1.0,4,0.0613194021295412
5.855,5.978135409912517e-06,79.9850966673004,0,90,1.0,4,0.05123910654227622
5.86,3.1396702713238487e-06,79.55251108450634,0,90,1.0,4,0.04231981617538835
5.865,1.6192875458531019e-06,79.17558445710158,0,90,1.0,4,0.034548133136115024
5.87,8.201353897972012e-07,78.85202811529082,0,90,1.0,4,0.027876868356511774
5.875,4.0791415086824765e-07,78.57831019218708,0,90,1.0,4,0.022233199838908767
5.88,1.9923866938774793e-07,78.35004180586505,0,90,1.0,4,0.01752663517247519
5.885,9.556527981051257e-08,78.16233155760507,0,90,1.0,4,0.013656320775362298
5.89,4.501406988770349e-08,78.01009280593172,0,90,1.0,4,0.01051737744189113
5.895,0.0,77.88829476616297,0,90,1.0,4,0.008006077652844772
5.9,0.0,77.79215442099877,0,90,1.0,4,0.006023802494820002
5.905,0.0,77.71727110655786,0,90,1.0,4,0.004479816630058962
5.91,0.0,77.65970925268655,0,90,1.0,4,0.003292974282196985
5.915,0.0,77.61603707332719,0,90,1.0,4,0.0023925169758183882
5.92,0.0,77.58333012691409,0,90,1.0,4,0.0017181469466823053
5.925,0.0,77.55914879585012,0,90,1.0,4,0.0012195628010334112
5.93,0.0,77.54149811404007,0,90,1.0,4,0.0008556312173209687
5.935,0.0,77.52877725728622,0,90,1.0,4,0.0005933455110561316
5.94,0.0,77.51972463735181,0,90,1.0,4,0.0004066935536456509
5.945,0.0,77.51336310074132,0,90,1.0,4,0.00027552785033640716
5.95,0.0,77.50894837231351,0,90,1.0,4,0.0001845025219280774
5.955,0.0,77.50592269592266,0,90,1.0,4,0.00012211744170440163
5.96,0.0,77.50387465835057,0,90,1.0,4,7.988986289831832e-05
5.965,0.0,77.50250545138663,0,90,1.0,4,5.1658791476807595e-05
5.97,0.0,77.50160131633649,0,90,1.0,4,3.301683168021236e-05
5.975,0.0,77.50101159546982,0,90,1.0,4,2.0857638552975802e-05
5.98,0.0,77.5006316481158,0,90,1.0,4,1.3023672490711779e-05
5.985,0.0,77.50038983616128,0,90,1.0,4,8.037858995371654e-06
5.99,0.0,77.50023780863849,0,90,1.0,4,4.903270896659603e-06
5.995,0.0,77.50014338764066,0,90,1.0,4,2.9564461992214493e-06
6.0,0.0,77.50008545439401,0,90,1.0,4,1.7619462682629541e-06
6.005,0.0,77.5000503379664,0,90,1.0,4,1.0378962144255338e-06
6.01,0.0,77.50002930863025,0,90,1.0,4,6.04301654562995e-07
6.015,0.0,77.50001686684932,0,90,1.0,4,3.47770089106656e-07
6.02,0.0,77.50000959424924,0,90,1.0,4,1.9781957185729233e-07
6.025,0.001684486749771458,77.50000539419466,0,90,1.0,5,1.1122050843190777e-07
6.03,0.004172395771277602,77.50000299764929,0,90,1.0,5,6.180720184911667e-08
6.035,0.009438687428818865,77.50000164654504,0,90,1.0,5,3.394938235689233e-08
6.04,0.019500507867137046,77.50000089393305,0,90,1.0,5,1.8431609246878916e-08
6.045,0.03679496976339974,77.50000047970579,0,90,1.0,5,9.890841025930826e-09
6.05,0.06340728953298436,77.5000002544389,0,90,1.0,5,5.246162926755695e-09
6.055,0.09979255396093453,77.50000013339228,0,90,1.0,5,2.750356222265706e-09
6.06,0.14343835518453557,77.50000006912201,0,90,1.0,5,1.4251960711243151e-09
6.065,0.18829581417209276,77.50000003540305,0,90,1.0,5,7.299597444253993e-10
6.07,0.2257481735193119,77.5000000179227,0,90,1.0,5,3.695402380433678e-10
6.075,0.24718154073554727,77.5000000089682,0,90,1.0,5,1.8491134854689477e-10
6.08,0.24718154074102772,77.50000000443552,0,90,1.0,5,9.145402877151092e-11
6.085,0.22574817354072055,77.50000000216832,0,90,1.0,5,4.4707641941339216e-11
6.09,0.18829581422840957,77.50000000104771,0,90,1.0,5,2.160225721098934e-11
6.095,0.14343835532456656,77.50000000050038,0,90,1.0,5,1.0317080523236655e-11
6.1,0.09979255431561854,77.5000000002362,0,90,1.0,5,4.870074561265413e-12
6.105,0.06340729067170194,77.5000000001102,0,90,1.0,5,2.272271717863743e-12
6.11,0.03679497683410042,77.50000000005083,0,90,1.0,5,1.0480871611603622e-12
6.115,0.019500578284482293,77.50000000002316,0,90,1.0,5,4.776019213562735e-13
6.12,0.009439396781978427,77.50000000001044,0,90,1.0,5,2.1536037558089634e-13
6.125,0.004178588733610924,77.50000000000465,0,90,1.0,5,9.581339158497021e-14
6.13,0.0017299316936037381,77.50000000000205,0,90,1.0,5,4.2193053175032755e-14
6.135,0.0008997325756988589,77.5000000000009,0,90,1.0,5,1.845946076407683e-14
6.14,0.001634769674224814,77.50000000000038,0,90,1.0,5,7.911197470318642e-15
6.145,0.00614904736476635,77.50000000000016,0,90,1.0,5,3.2230804508705575e-15
6.15,0.02168080359963608,77.50000000000007,0,90,1.0,5,1.465036568577526e-15
6.155,0.06433400338904088,77.50000000000003,0,90,1.0,5,5.860146274310105e-16
6.16,0.1593410769217493,77.50000000000001,0,90,1.0,5,2.9300731371550523e-16
6.165,0.3291989194808569,77.5,0,90,1.0,5,0.0
6.17,0.5672906802982638,77.5,0,90,1.0,5,0.0
6.175,0.815339152120446,77.5,0,90,1.0,5,0.0
6.18,0.9768711246313155,77.5000028564677,1,90,1.0,5,5.889624128602796e-08
6.185,0.9726380909165361,77.50000545335169,0,90,1.0,5,1.1244024103548654e-07
6.19,0.7921091683291741,77.50001103870419,0,90,1.0,5,2.2760214818910904e-07
6.195,0.49139090102639077,77.50002451145392,0,90,1.0,5,5.053908023807342e-07
6.2,0.15739335672107918,77.50006056508865,0,90,1.0,5,1.2487647143423357e-06
6.205,-0.11102342218909485,77.500163159277,0,90,1.0,5,3.364108803999002e-06
6.21,-0.2314207883647528,77.50045963921588,0,90,1.0,5,9.477097234556608e-06
6.215,-0.2029124434754801,77.50130157200853,0,90,1.0,5,2.6836536258334144e-05
6.22,-0.11151350554305876,77.50360621062502,0,90,1.0,5,7.435485824789184e-05
6.225,-0.039430666652076896,77.50962435840236,0,90,1.0,5,0.0001984403794301553
6.23,-0.006087703519843621,77.5245336611205,0,90,1.0,5,0.0005058486828969172
6.235,0.005350271385530551,77.55946841825335,0,90,1.0,5,0.0012261529536772287
6.24,0.010381647827441833,77.63674715233715,0,90,1.0,5,0.002819528914168054
6.245,0.015115203303506243,77.79792448353166,0,90,1.0,5,0.006142772856322871
6.25,0.021170964062928475,78.11453494517251,0,90,1.0,5,0.012670823611804292
6.255,0.029082821134029553,78.69968859351175,0,90,1.0,5,0.0247358472889021
6.26,0.03923107061708144,79.71601941372563,0,90,1.0,5,0.04569112193248727
6.265,0.051969043308817596,81.3726112396058,0,90,1.0,5,0.07984765442486191
6.27,0.06760532616283861,83.90214348528451,0,90,1.0,5,0.13200295845947446
6.275,0.08636519236693461,87.51194056320449,0,90,1.0,5,0.2064317641897833
6.28,0.10834733138818661,92.31057839827544,0,90,1.0,5,0.305372750479906
6.285,0.1334809643017884,98.22445209684186,0,90,1.0,5,0.42730829065653314
6.29,0.16148868344343945,104.93176617201091,0,90,1.0,5,0.5656034262270291
6.295,0.191860907532018,111.84734002058431,0,90,1.0,5,0.7081925777440065
6.3,0.22384764873847726,118.18353745375319,0,90,1.0,5,0.8388358237887256
6.305,0.25647215537198226,123.08912705128517,0,90,1.0,5,0.9399820010574262
6.31,0.2885689161419028,125.83623498218132,0,90,1.0,5,0.9966234016944603
6.315,0.31884566517832524,126.0,0,90,1.0,5,1.0
6.32,0.3459657668955683,123.57027949337669,0,90,1.0,5,0.9499026699665296
6.325,0.3686441789190902,118.95531468006659,0,90,1.0,5,0.8547487562900329
6.33,0.3857476379544367,112.8759914170416,0,90,1.0,5,0.7294018848874557
6.335,0.3963882865005728,106.18868862199935,0,90,1.0,5,0.5915193530309144
6.34,0.4,99.69679952472116,0,90,1.0,5,0.45766596958187955
6.345,0.39638828650057273,94.00737257354771,0,90,1.0,5,0.3403581973927363
6.35,0.38574763795443656,89.46469600444867,0,90,1.0,5,0.24669476297832307
6.355,0.36864417891908974,86.1609302263463,0,90,1.0,5,0.1785758809555937
6.36,0.345965766895568,83.99956239812894,0,90,1.0,5,0.1340115958377102
6.365,0.3188456651783249,82.77835198542279,0,90,1.0,5,0.10883199969943892
6.37,0.28856891614190205,82.26364992927617,0,90,1.0,5,0.09821958617064268
6.375,0.2564721553719815,82.24082003149722,0,90,1.0,5,0.0977488666288087
6.38,0.22384764873847685,82.53843885242503,0,90,1.0,5,0.1038853371634027
6.385,0.19186090753201765,83.03228371198631,0,90,1.0,5,0.11406770540177957
6.39,0.16148868344343878,83.63787548612598,0,90,1.0,5,0.12655413373455623
6.395,0.1334809643017881,84.29912711951967,0,90,1.0,5,0.14018818803133334
6.4,0.10834733138818531,84.97779720332112,0,90,1.0,5,0.15418138563548694
6.405,0.08636519236690572,85.64573159835365,0,90,1.0,5,0.167953228832034
6.41,0.06760532616242629,86.28008889382897,0,90,1.0,5,0.18103276069750462
6.415,0.05196904332202373,86.86092112745918,0,90,1.0,5,0.19300868304039542
6.42,0.03923107185803287,87.37030590214425,0,90,1.0,5,0.2035114618998815
6.425,0.02908287038705761,87.79235702367464,0,90,1.0,5,0.2122135468798895
6.43,0.02117220077308346,88.11364773149214,0,90,1.0,5,0.2188380975565389
6.435,0.0151361834125735,88.32375687702194,0,90,1.0,5,0.22317024488705023
6.44,0.010626454858290009,88.41576824699521,0,90,1.0,5,0.2250673865359838
6.445,0.007326255555493652,88.38662664092895,0,90,1.0,5,0.22446652867894748
6.45,0.004960179211183015,88.2372990391203,0,90,1.0,5,0.22138760905402685
6.455,0.0032978759379303545,87.97271905935307,0,90,1.0,5,0.21593235173923853
6.46,0.002153242296767213,87.60151563015489,0,90,1.0,5,0.20827867278669882
6.465,0.001380616732225004,87.1355455413843,0,90,1.0,5,0.19867104209039801
6.47,0.0008693106590991584,86.58926483861305,0,90,1.0,5,0.18740752244562983
6.475,0.000537524815942247,85.97898542150867,0,90,1.0,5,0.17482444168059108
6.48,0.0003263951340288585,85.32207004119032,0,90,1.0,5,0.16127979466371783
6.485,0.00019463030985187395,84.63612080609002,0,90,1.0,5,0.1471365114657736
6.49,0.00011397219555062695,83.93821340240603,0,90,1.0,5,0.1327466680908461
6.495,6.55403863487943e-05,83.24422209684201,0,90,1.0,5,0.11843756900705173
6.5,3.701184389455385e-05,82.5682702000534,0,90,1.0,5,0.10450041649594649
6.505,2.0525516217290957e-05,81.92232827693294,0,90,1.0,5,0.09118202632851431
6.51,1.1178128483661116e-05,81.31596934262296,0,90,1.0,5,0.0786797802602673
6.515,5.978135409912517e-06,80.7562778662365,0,90,1.0,5,0.06713974981930931
6.52,3.1396702713238487e-06,80.24789870051464,0,90,1.0,5,0.056657705165250295
6.525,1.6192875458531019e-06,79.79320384552783,0,90,1.0,5,0.047282553516037676
6.53,8.201353897972012e-07,79.39254966509434,0,90,1.0,5,0.03902164257926466
6.535,4.0791415086824765e-07,79.04459487797472,0,90,1.0,5,0.03184731707164365
6.54,1.9923866938774793e-07,78.74665010120292,0,90,1.0,5,0.025704125797998287
6.545,9.556527981051257e-08,78.4950324497986,0,90,1.0,5,0.02051613298553815
6.55,4.501406988770349e-08,78.28540306685832,0,90,1.0,5,0.0161938776671819
6.555,0.0,78.11307078741693,0,90,1.0,5,0.012640634792101656
6.56,0.0,77.97325077488534,0,90,1.0,5,0.00975774793578028
6.565,0.0,77.86127235160261,0,90,1.0,5,0.007448914466033154
6.57,0.0,77.7727349529587,0,90,1.0,5,0.005623401091931963
6.575,0.0,77.70361489944557,0,90,1.0,5,0.004198245349393168
6.58,0.0,77.65032838439267,0,90,1.0,5,0.0030995543173745416
6.585,0.0,77.60975772765077,0,90,1.0,5,0.002263045930943784
6.59,0.0,77.57924865595666,0,90,1.0,5,0.0016339929063229112
6.595,0.0,77.55658631135569,0,90,1.0,5,0.001166728069189428
6.6,0.0,77.53995706181816,0,90,1.0,5,0.0008238569447042692
6.605,0.0,77.5279021961484,0,90,1.0,5,0.000575303013369142
6.61,0.0,77.5192684114055,0,90,1.0,5,0.00039728683310320627
6.615,0.0,77.51315879480705,0,90,1.0,5,0.000271315356846487
6.62,0.0,77.50888687354049,0,90,1.0,5,0.00018323450598948688
6.625,0.0,77.50593532585206,0,90,1.0,5,0.0001223778526198859
6.63,0.0,77.50392015117043,0,90,1.0,5,8.082785918419439e-05
6.635,0.0,77.5025604938901,0,90,1.0,5,5.279368845569395e-05
6.64,0.0,77.50165389279071,0,90,1.0,5,3.4100882282752264e-05
6.645,0.0,77.5010564614286,0,90,1.0,5,2.1782709868122447e-05
6.65,0.0,77.5006673637583,0,90,1.0,5,1.3760077490646321e-05
6.655,0.0,77.50041690228181,0,90,1.0,5,8.595923336355385e-06
6.66,0.0,77.50025755418267,0,90,1.0,5,5.310395518912647e-06
6.665,0.0,77.50015734959284,0,90,1.0,5,3.2443215018505274e-06
6.67,0.0,77.5000950660219,0,90,1.0,5,1.9601241628662914e-06
6.675,0.0,77.5000567999168,0,90,1.0,5,1.1711323052683848e-06
6.68,0.0,77.50003356083515,0,90,1.0,5,6.91975982456909e-07
6.685,0.0,77.50001961013126,0,90,1.0,5,4.0433260332084156e-07
6.69,0.0,77.50001133159184,0,90,1.0,5,2.3364106877378027e-07
6.695,0.0,77.50000647536162,0,90,1.0,5,1.3351261063502365e-07
6.7,0.001684486749771458,77.50000365931513,0,90,1.0,5,7.544979642205494e-08
6.705,0.004172395771277602,77.50000204502338,0,90,1.0,5,4.216543049654685e-08
6.71,0.009438687428818865,77.50000113021072,0,90,1.0,5,2.3303313807830526e-08
6.715,0.019500507867137046,77.50000061770804,0,90,1.0,5,1.2736248234751216e-08
6.72,0.03679496976339974,77.50000033386414,0,90,1.0,5,6.8837966255065934e-09
6.725,0.06340728953298436,77.50000017845099,0,90,1.0,5,3.6794018370463013e-09
6.73,0.09979255396093453,77.50000009432587,0,90,1.0,5,1.9448632944668417e-09
6.735,0.14343835518453557,77.50000004930664,0,90,1.0,5,1.0166316540037479e-09
6.74,0.18829581417209276,77.5000000254884,0,90,1.0,5,5.255341087850519e-10
6.745,0.2257481735193119,77.50000001302995,0,90,1.0,5,2.686586989530605e-10
6.75,0.24718154073554727,77.50000000658727,0,90,1.0,5,1.3582002418505787e-10
6.755,0.24718154074102772,77.5000000032933,0,90,1.0,5,6.790297991699976e-11
6.76,0.22574817354072055,77.50000000162824,0,90,1.0,5,3.3571898983581445e-11
6.765,0.18829581422840957,77.5000000007961,0,90,1.0,5,1.6414562721656317e-11
6.77,0.14343835532456656,77.50000000038493,0,90,1.0,5,7.936689106611891e-12
6.775,0.09979255431561854,77.50000000018406,0,90,1.0,5,3.795030727243224e-12
6.78,0.06340729067170194,77.50000000008704,0,90,1.0,5,1.7946697965074695e-12
6.785,0.03679497683410042,77.5000000000407,0,90,1.0,5,8.39172946481207e-13
6.79,0.019500578284482293,77.50000000001882,0,90,1.0,5,3.879416833593289e-13
6.795,0.009439396781978427,77.50000000000861,0,90,1.0,5,1.7756243211159617e-13
6.8,0.004178588733610924,77.5000000000039,0,90,1.0,5,8.028400395804844e-14
6.805,0.0017299316936037381,77.50000000000173,0,90,1.0,5,3.574689227329164e-14
6.81,0.0008997325756988589,77.50000000000077,0,90,1.0,5,1.5822394940637283e-14
6.815,0.001634769674224814,77.50000000000034,0,90,1.0,5,7.032175529172126e-15
6.82,0.00614904736476635,77.50000000000014,0,90,1.0,5,2.930073137155052e-15
6.825,0.02168080359963608,77.50000000000006,0,90,1.0,5,1.172029254862021e-15
6.83,0.06433400338904088,77.50000000000003,0,90,1.0,5,5.860146274310105e-16
6.835,0.1593410769217493,77.50000000000001,0,90,1.0,5,2.9300731371550523e-16
6.84,0.3291989194808569,77.5,0,90,1.0,5,0.0
6.845,0.5672906802982638,77.5,0,90,1.0,5,0.0
6.85,0.815339152120446,77.5,0,90,1.0,5,0.0
6.855,0.9768711246313155,77.50000284586159,1,90,1.0,5,5.8677558500516847e-08
6.86,0.9726380909165361,77.50000527961552,0,90,1.0,5,1.0885805199295553e-07
6.865,0.7921091683291741,77.50001031954956,0,90,1.0,5,2.1277421772716367e-07
6.87,0.49139090102639077,77.5000219076864,0,90,1.0,5,4.517048742836215e-07
6.875,0.15739335672107918,77.5000513062313,0,90,1.0,5,1.0578604391548184e-06
6.88,-0.11102342218909485,77.50013076005604,0,90,1.0,5,2.6960836296509407e-06
6.885,-0.2314207883647528,77.50035020381222,0,90,1.0,5,7.220697159130761e-06
6.89,-0.2029124434754801,77.50095018691317,0,90,1.0,5,1.9591482745824776e-05
6.895,-0.11151350554305876,77.50254252172627,0,90,1.0,5,5.242312837668747e-05
6.9,-0.039430666652076896,77.50659976740856,0,90,1.0,5,0.00013607767852699768
6.905,-0.006087703519843621,77.51646537881305,0,90,1.0,5,0.00033949234666087036
6.91,0.005350271385530551,77.53928253215116,0,90,1.0,5,0.00080994911651881
6.915,0.010381647827441833,77.58937615985101,0,90,1.0,5,0.0018428074196085336
6.92,0.015115203303506243,77.69363594416527,0,90,1.0,5,0.003992493694129186
6.925,0.021170964062928475,77.89914273187748,0,90,1.0,5,0.008229747049020112
6.93,0.029082821134029553,78.28242166935907,0,90,1.0,5,0.016132405553795196
6.935,0.03923107061708144,78.95815265228912,0,90,1.0,5,0.03006500313998176
6.94,0.051969043308817596,80.08310908029944,0,90,1.0,5,0.05325998103710179
6.945,0.06760532616283861,81.84927459141106,0,90,1.0,5,0.08967576477136206
6.95,0.08636519236693461,84.45983730743244,0,90,1.0,5,0.14350180015324612
6.955,0.10834733138818661,88.08459313200352,0,90,1.0,5,0.2182390336495571
6.96,0.1334809643017884,92.79797719482352,0,90,1.0,5,0.31542221020254674
6.965,0.16148868344343945,98.51242125918112,0,90,1.0,5,0.4332457991583737
6.97,0.191860907532018,104.92855626497301,0,90,1.0,5,0.5655372425767631
6.975,0.22384764873847726,111.52691835651606,0,90,1.0,5,0.7015859454951766
6.98,0.25647215537198226,117.61903404505797,0,90,1.0,5,0.827196578248618
6.985,0.2885689161419028,122.45858606973496,0,90,1.0,5,0.9269811560770096
6.99,0.31884566517832524,125.39083977274626,0,90,1.0,5,0.9874399953143559
6.995,0.3459657668955683,126.0,0,90,1.0,5,1.0
7.0,0.3686441789190902,124.20909158519541,0,90,1.0,5,0.9630740533029981
7.005,0.3857476379544367,120.29953639901376,0,90,1.0,5,0.8824646680209023
7.01,0.3963882865005728,114.84382327361675,0,90,1.0,5,0.7699757376003453
7.015,0.4,108.57369951396845,0,90,1.0,5,0.6406948353395556
7.02,0.39638828650057273,102.2258821880279,0,90,1.0,5,0.5098120038768639
7.025,0.38574763795443656,96.40992335364712,0,90,1.0,5,0.389895326879322
7.03,0.36864417891908974,91.52930221937348,0,90,1.0,5,0.2892639632860511
7.035,0.345965766895568,87.76478426184879,0,90,1.0,5,0.21164503632677914
7.04,0.3188456651783249,85.10862158827653,0,90,1.0,5,0.15687879563456772
7.045,0.28856891614190205,83.42656336784474,0,90,1.0,5,0.1221971828421595
7.05,0.2564721553719815,82.52378753042284,0,90,1.0,5,0.1035832480499554
7.055,0.22384764873847685,82.19783132916163,0,90,1.0,5,0.09686250163219856
7.06,0.19186090753201765,82.27134594925722,0,90,1.0,5,0.09837826699499432
7.065,0.16148868344343878,82.60568848479885,0,90,1.0,5,0.10527192752162572
7.07,0.1334809643017881,83.10088201483204,0,90,1.0,5,0.11548210339859873
7.075,0.10834733138818531,83.68840901871987,0,90,1.0,5,0.12759606224164674
7.08,0.08636519236690572,84.32197791292448,0,90,1.0,5,0.14065933841081404
7.085,0.06760532616242629,84.96931088968523,0,90,1.0,5,0.15400641009660274
7.09,0.05196904332202373,85.60616534397113,0,90,1.0,5,0.16713742977260057
7.095,0.03923107185803287,86.21263167382902,0,90,1.0,5,0.1796418901820417
7.1,0.02908287038705761,86.77121984433278,0,90,1.0,5,0.19115917204809849
7.105,0.02117220077308346,87.26614028210291,0,90,1.0,5,0.20136371715676102
7.11,0.0151361834125735,87.68327944307798,0,90,1.0,5,0.20996452459954595
7.115,0.010626454858290009,88.01051741167255,0,90,1.0,5,0.21671169920974334
7.12,0.007326255555493652,88.23816273562356,0,90,1.0,5,0.22140541722935178
7.125,0.004960179211183015,88.35936913531009,0,90,1.0,5,0.22390451825381627
7.13,0.0032978759379303545,88.3704549759066,0,90,1.0,5,0.22413309228673395
7.135,0.002153242296767213,88.27108106749418,0,90,1.0,5,0.22208414572152949
7.14,0.001380616732225004,88.06426526041847,0,90,1.0,5,0.2178199022766694
7.145,0.0008693106590991584,87.75622938752784,0,90,1.0,5,0.21146864716552244
7.15,0.000537524815942247,87.35608811985259,0,90,1.0,5,0.20321831174953786
7.155,0.0003263951340288585,86.87540102954962,0,90,1.0,5,0.1933072377226726
7.16,0.00019463030985187395,86.32761843902698,0,90,1.0,5,0.18201275132014386
7.165,0.00011397219555062695,85.72745804544682,0,90,1.0,5,0.16963831021539844
7.17,6.55403863487943e-05,85.09025249472462,0,90,1.0,5,0.1565000514376211
7.175,3.701184389455385e-05,84.43130793834682,0,90,1.0,5,0.14291356573910968
7.18,2.0525516217290957e-05,83.7653103417945,0,90,1.0,5,0.12918165653184543
7.185,1.1178128483661116e-05,83.10581041043784,0,90,1.0,5,0.11558371980284206
7.19,5.978135409912517e-06,82.46481016288601,0,90,1.0,5,0.1023672198533198
7.195,3.1396702713238487e-06,81.85246524967621,0,90,1.0,5,0.08974155153971576
7.2,1.6192875458531019e-06,81.276907956434,0,90,1.0,5,0.07787439085430932
7.205,8.201353897972012e-07,80.74418725350604,0,90,1.0,5,0.06689045883517611
7.21,4.0791415086824765e-07,80.25831492720756,0,90,1.0,5,0.056872472725929164
7.215,1.9923866938774793e-07,79.82140122596148,0,90,1.0,5,0.04786394280332949
7.22,9.556527981051257e-08,79.43385983225944,0,90,1.0,5,0.039873398603287494
7.225,4.501406988770349e-08,79.09466036456183,0,90,1.0,5,0.03287959514560479
7.23,0.0,78.80160686539986,0,90,1.0,6,0.026837254956698177
7.235,0.0,78.55162253760456,0,90,1.0,6,0.021682938919681614
7.24,0.0,78.34102394918298,0,90,1.0,6,0.017340699983154285
7.245,0.0,78.16577159895577,0,90,1.0,6,0.0137272494630056
7.25,0.0,78.02168769123986,0,90,1.0,6,0.010756447242059007
7.255,0.0,77.90463583247852,0,90,1.0,6,0.008343006855227193
7.26,0.0,77.81066083961933,0,90,1.0,6,0.006405378136481049
7.265,0.0,77.73608973677702,0,90,1.0,6,0.004867829624268409
7.27,0.0,77.67759720552577,0,90,1.0,6,0.003661798052077754
7.275,0.0,77.63224022257143,0,90,1.0,6,0.0027266025272458896
7.28,0.0,77.59746741293033,0,90,1.0,6,0.0020096373800067655
7.285,0.0,77.57110886220912,0,90,1.0,6,0.001466162107404441
7.29,0.0,77.55135189140306,0,90,1.0,6,0.0010588018845991423
7.295,0.0,77.53670773455,0,90,1.0,6,0.0007568605061856994
7.3,0.0,77.52597330075044,0,90,1.0,6,0.0005355319742358057
7.305,0.0,77.51819135838316,0,90,1.0,6,0.00037507955429202044
7.31,0.0,77.51261163923783,0,90,1.0,6,0.00026003379871818866
7.315,0.0,77.50865458747553,0,90,1.0,6,0.00017844510258831027
7.32,0.0,77.50587881276304,0,90,1.0,6,0.00012121263428955844
7.325,0.0,77.5039527678497,0,90,1.0,6,8.150036803498289e-05
7.33,0.0,77.5026307611049,0,90,1.0,6,5.424249700817218e-05
7.335,0.0,77.50173312521085,0,90,1.0,6,3.5734540429848964e-05
7.34,0.0,77.50113017810872,0,90,1.0,6,2.3302641416991072e-05
7.345,0.0,77.50072951170684,0,90,1.0,6,1.5041478491477542e-05
7.35,0.0,77.50046610747096,0,90,1.0,6,9.610463318680203e-06
7.355,0.0,77.50029478697198,0,90,1.0,6,6.078081896445378e-06
7.36,0.0,77.50018454357595,0,90,1.0,6,3.805022184636626e-06
7.365,0.0,77.5001143557486,0,90,1.0,6,2.357850486457688e-06
7.37,0.0,77.50007014318696,0,90,1.0,6,1.446251277527444e-06
7.375,0.0,77.50004258742786,0,90,1.0,6,8.780912960048095e-07
7.38,0.0,77.50002559444704,0,90,1.0,6,5.277205574886991e-07
7.385,0.0,77.50001522574371,0,90,1.0,6,3.139328599872053e-07
7.39,0.0,77.5000089656071,0,90,1.0,6,1.8485787822822944e-07
7.395,0.0,77.50000522575824,0,90,1.0,6,1.0774759265793186e-07
7.4,0.0,77.50000301500023,0,90,1.0,6,6.21649532309e-08
7.405,0.001684486749771458,77.50000172184403,0,90,1.0,6,3.5501938745040105e-08
7.41,0.004172395771277602,77.50000097334923,0,90,1.0,6,2.0069056299970978e-08
7.415,0.009438687428818865,77.50000054464309,0,90,1.0,6,1.1229754354363397e-08
7.42,0.019500507867137046,77.50000030166417,0,90,1.0,6,6.219879850570728e-09
7.425,0.03679496976339974,77.50000016538796,0,90,1.0,6,3.410061017066911e-09
7.43,0.06340728953298436,77.50000008975371,0,90,1.0,6,1.850592000373956e-09
7.435,0.09979255396093453,77.5000000482136,0,90,1.0,6,9.940947034620061e-10
7.44,0.14343835518453557,77.50000002563627,0,90,1.0,6,5.285828498842617e-10
7.445,0.18829581417209276,77.50000001349301,0,90,1.0,6,2.782063422704802e-10
7.45,0.2257481735193119,77.50000000702961,0,90,1.0,6,1.449404628390804e-10
7.455,0.24718154073554727,77.50000000362512,0,90,1.0,6,7.474470069225681e-11
7.46,0.24718154074102772,77.50000000185047,0,90,1.0,6,3.8153947355464515e-11
7.465,0.22574817354072055,77.50000000093499,0,90,1.0,6,1.927812319859795e-11
7.47,0.18829581422840957,77.50000000046764,0,90,1.0,6,9.641991672436131e-12
7.475,0.14343835532456656,77.50000000023151,0,90,1.0,6,4.773382147739296e-12
7.48,0.09979255431561854,77.50000000011345,0,90,1.0,6,2.3390773853908783e-12
7.485,0.06340729067170194,77.50000000005502,0,90,1.0,6,1.1345243187064363e-12
7.49,0.03679497683410042,77.50000000002642,0,90,1.0,6,5.447005961971242e-13
7.495,0.019500578284482293,77.50000000001256,0,90,1.0,6,2.590184653245066e-13
7.5,0.009439396781978427,77.50000000000591,0,90,1.0,6,1.2189104250565017e-13
7.505,0.004178588733610924,77.50000000000276,0,90,1.0,6,5.684341886080802e-14
7.51,0.0017299316936037381,77.50000000000126,0,90,1.0,6,2.6077650920679964e-14
7.515,0.0008997325756988589,77.50000000000058,0,90,1.0,6,1.2013299862335714e-14
7.52,0.001634769674224814,77.50000000000026,0,90,1.0,6,5.274131646879094e-15
7.525,0.00614904736476635,77.50000000000011,0,90,1.0,6,2.344058509724042e-15
7.53,0.02168080359963608,77.50000000000006,0,90,1.0,6,1.172029254862021e-15
7.535,0.06433400338904088,77.50000000000003,0,90,1.0,6,5.860146274310105e-16
7.54,0.1593410769217493,77.50000000000001,0,90,1.0,6,2.9300731371550523e-16
7.545,0.3291989194808569,77.5,0,90,1.0,6,0.0
7.55,0.5672906802982638,77.5,0,90,1.0,6,0.0
7.555,0.815339152120446,77.5,0,90,1.0,6,0.0
7.56,0.9768711246313155,77.50000284403532,1,90,1.0,6,5.8639903544616635e-08
7.565,0.9726380909165361,77.50000563434857,0,90,1.0,6,1.161721354257923e-07
7.57,0.7921091683291741,77.50001194034442,0,90,1.0,6,2.4619266848754496e-07
7.575,0.49139090102639077,77.50002813743002,0,90,1.0,6,5.801531963196297e-07
7.58,0.15739335672107918,77.50007456926916,0,90,1.0,6,1.5375107043195215e-06
7.585,-0.11102342218909485,77.50021555237494,0,90,1.0,6,4.444378864730322e-06
7.59,-0.2314207883647528,77.50064634651709,0,90,1.0,6,1.332673231106653e-05
7.595,-0.2029124434754801,77.50192715835341,0,90,1.0,6,3.973522378166224e-05
7.6,-0.11151350554305876,77.50556436458237,0,90,1.0,6,0.00011472916664678985
7.605,-0.039430666652076896,77.5153360380951,0,90,1.0,6,0.0003162069710329893
7.61,-0.006087703519843621,77.54004933030063,0,90,1.0,6,0.0008257593876419144
7.615,0.005350271385530551,77.59872426259801,0,90,1.0,6,0.002035551806144569
7.62,0.010381647827441833,77.72927397114614,0,90,1.0,6,0.004727298374147262
7.625,0.015115203303506243,78.0011213460085,0,90,1.0,6,0.01033239888677326
7.63,0.021170964062928475,78.53026214977955,0,90,1.0,6,0.02124251855215558
7.635,0.029082821134029553,79.49175422945842,0,90,1.0,6,0.041067097514606646
7.64,0.03923107061708144,81.12018821167895,0,90,1.0,6,0.0746430559109062
7.645,0.051969043308817596,83.68572301825407,0,90,1.0,6,0.12754068078874364
7.65,0.06760532616283861,87.43548636982642,0,90,1.0,6,0.204855389068586
7.655,0.08636519236693461,92.5008021671065,0,90,1.0,6,0.30929489004343297
7.66,0.10834733138818661,98.78935026029112,0,90,1.0,6,0.4389556754699199
7.665,0.1334809643017884,105.90117170753103,0,90,1.0,6,0.585591169227444
7.67,0.16148868344343945,113.11621193300405,0,90,1.0,6,0.7343548852165784
7.675,0.191860907532018,119.48749438013431,0,90,1.0,6,0.8657215336110167
7.68,0.22384764873847726,124.03653874510518,0,90,1.0,6,0.9595162627856737
7.685,0.25647215537198226,126.0,0,90,1.0,6,1.0
7.69,0.2885689161419028,125.04326482741723,0,90,1.0,6,0.9802735015962316
7.695,0.31884566517832524,121.35937653466117,0,90,1.0,6,0.9043170419517766
7.7,0.3459657668955683,115.61360140385835,0,90,1.0,6,0.7858474516259455
7.705,0.3686441789190902,108.75594891707162,0,90,1.0,6,0.6444525549911674
7.71,0.3857476379544367,101.77461151529064,0,90,1.0,6,0.5005074539235185
7.715,0.3963882865005728,95.47810717617381,0,90,1.0,6,0.37068262218915066
7.72,0.4,90.36949924832,0,90,1.0,6,0.26535049996536075
7.725,0.39638828650057273,86.62992216347705,0,90,1.0,6,0.18824581780365046
7.73,0.38574763795443656,84.18612234560806,0,90,1.0,6,0.1378581926929496
7.735,0.36864417891908974,82.81567309579101,0,90,1.0,6,0.1096015071297116
7.74,0.345965766895568,82.24668045311486,0,90,1.0,6,0.09786970006422396
7.745,0.3188456651783249,82.22677563441158,0,90,1.0,6,0.09745929143116662
7.75,0.28856891614190205,82.55618463062414,0,90,1.0,6,0.10425122949740505
7.755,0.2564721553719815,83.09295775268306,0,90,1.0,6,0.11531871655016625
7.76,0.22384764873847685,83.74288099322293,0,90,1.0,6,0.12871919573655516
7.765,0.19186090753201765,84.44470761789947,0,90,1.0,6,0.1431898477917416
7.77,0.16148868344343878,85.15701212826306,0,90,1.0,6,0.15787653872707344
7.775,0.1334809643017881,85.84902108131057,0,90,1.0,6,0.17214476456310449
7.78,0.10834733138818531,86.49535961413758,0,90,1.0,6,0.18547133225025947
7.785,0.08636519236690572,87.07368281210313,0,90,1.0,6,0.1973955218990336
7.79,0.06760532616242629,87.56407233300035,0,90,1.0,6,0.2075066460412444
7.795,0.05196904332202373,87.94934169797176,0,90,1.0,6,0.21545034428807755
7.8,0.03923107185803287,88.21569761819234,0,90,1.0,6,0.22094221893180077
7.805,0.02908287038705761,88.35343302302121,0,90,1.0,6,0.22378212418600435
7.81,0.02117220077308346,88.35747043745516,0,90,1.0,6,0.22386536984443636
7.815,0.0151361834125735,88.22765859398775,0,90,1.0,6,0.22118883698943825
7.82,0.010626454858290009,87.96877763919233,0,90,1.0,6,0.21585108534417166
7.825,0.007326255555493652,87.59024579975109,0,90,1.0,6,0.20804630514950698
7.83,0.004960179211183015,87.10555038207744,0,90,1.0,6,0.19805258519747296
7.835,0.0032978759379303545,86.53145038403952,0,90,1.0,6,0.18621547183586631
7.84,0.002153242296767213,85.88701624442398,0,90,1.0,6,0.17292816998812321
7.845,0.001380616732225004,85.1925832624303,0,90,1.0,6,0.1586099641738207
7.85,0.0008693106590991584,84.46869833167638,0,90,1.0,6,0.14368450168404903
7.855,0.000537524815942247,83.73513500639436,0,90,1.0,6,0.1285594846679249
7.86,0.0003263951340288585,83.0100405618299,0,90,1.0,6,0.11360908374907003
7.865,0.00019463030985187395,82.30926233944837,0,90,1.0,6,0.09916004823604879
7.87,0.00011397219555062695,81.6458814331628,0,90,1.0,6,0.08548209140541854
7.875,6.55403863487943e-05,81.02996195780577,0,90,1.0,6,0.07278272077950036
7.88,3.701184389455385e-05,80.46850585648903,0,90,1.0,6,0.06120630631936147
7.885,2.0525516217290957e-05,79.96558814237727,0,90,1.0,6,0.05083686891499528
7.89,1.1178128483661116e-05,79.52263674653703,0,90,1.0,6,0.04170385044406251
7.895,5.978135409912517e-06,79.13881522901951,0,90,1.0,6,0.03379000472205183
7.9,3.1396702713238487e-06,78.81146536827063,0,90,1.0,6,0.02704052305712643
7.905,1.6192875458531019e-06,78.53656943790337,0,90,1.0,6,0.02137256572996633
7.91,8.201353897972012e-07,78.30919783276481,0,90,1.0,6,0.016684491397212564
7.915,4.0791415086824765e-07,78.12391547782335,0,90,1.0,6,0.012864236656151455
7.92,1.9923866938774793e-07,77.97512900761184,0,90,1.0,6,0.009796474383749296
7.925,9.556527981051257e-08,77.85736504432592,0,90,1.0,6,0.007368351429400348
7.93,4.501406988770349e-08,77.76547726284619,0,90,1.0,6,0.005473757996828657
7.935,0.0,77.69478581665143,0,90,1.0,6,0.00401620240518417
7.94,0.0,77.6411568854654,0,90,1.0,6,0.00291045124670941
7.945,0.0,77.60103260291042,0,90,1.0,6,0.002083146451761279
7.95,0.0,77.57142261616407,0,90,1.0,6,0.0014726312611148655
7.955,0.0,77.54986831612662,0,90,1.0,6,0.0010282127036416499
7.96,0.0,77.53438970032784,0,90,1.0,6,0.0007090659861409428
7.965,0.0,77.52342323181401,0,90,1.0,6,0.00048295323327850095
7.97,0.0,77.5157572338132,0,90,1.0,6,0.0003248914188289516
7.975,0.0,77.5104695467323,0,90,1.0,6,0.0002158669429339278
7.98,0.0,77.50687053439142,0,90,1.0,6,0.0001416605029159711
7.985,0.0,77.50445315583923,0,90,1.0,6,9.18176461696771e-05
7.99,0.0,77.50285075573734,0,90,1.0,6,5.8778468811167315e-05
7.995,0.0,77.50180246507347,0,90,1.0,6,3.7164228318914934e-05
8.0,0.0,77.50112561130648,0,90,1.0,6,2.320848054592744e-05
8.005,0.0,77.50069426420308,0,90,1.0,6,1.4314725836628867e-05
8.01,0.0,77.50042293715272,0,90,1.0,6,8.720353664334793e-06
8.015,0.0,77.50025447295847,0,90,1.0,6,5.246865123178123e-06
8.02,0.0,77.5001512245073,0,90,1.0,6,3.1180310784715326e-06
8.025,0.0,77.50008876003304,0,90,1.0,6,1.8301037739641372e-06
8.03,0.0,77.50005145498665,0,90,1.0,6,1.0609275597237956e-06
8.035,0.0,77.50002946132142,0,90,1.0,6,6.074499261445715e-07
8.04,0.0,77.50001666064122,0,90,1.0,6,3.4351837571521924e-07
8.045,0.001684486749771458,77.50000930563341,0,90,1.0,6,1.9186873015014592e-07
8.05,0.004172395771277602,77.50000513351583,0,90,1.0,6,1.0584568716572885e-07
8.055,0.009438687428818865,77.50000279703956,0,90,1.0,6,5.767091868891811e-08
8.06,0.019500507867137046,77.50000150520984,0,90,1.0,6,3.103525438474236e-08
8.065,0.03679496976339974,77.50000080003728,0,90,1.0,6,1.649561411176899e-08
8.07,0.06340728953298436,77.50000041998922,0,90,1.0,6,8.659571552381805e-09
8.075,0.09979255396093453,77.50000021776135,0,90,1.0,6,4.48992482139972e-09
8.08,0.14343835518453557,77.50000011151626,0,90,1.0,6,2.2993042796198217e-09
8.085,0.18829581417209276,77.50000005640405,0,90,1.0,6,1.162970054736565e-09
8.09,0.2257481735193119,77.50000002817715,0,90,1.0,6,5.809722645692803e-10
8.095,0.24718154073554727,77.50000001390269,0,90,1.0,6,2.866534501175845e-10
8.1,0.24718154074102772,77.5000000067751,0,90,1.0,6,1.396927018504357e-10
8.105,0.22574817354072055,77.50000000326096,0,90,1.0,6,6.723638827829698e-11
8.11,0.18829581422840957,77.50000000155022,0,90,1.0,6,3.196328883128332e-11
8.115,0.14343835532456656,77.50000000072787,0,90,1.0,6,1.5007541601194463e-11
8.12,0.09979255431561854,77.50000000033754,0,90,1.0,6,6.9595097153706806e-12
8.125,0.06340729067170194,77.5000000001546,0,90,1.0,6,3.1876265659109813e-12
8.13,0.03679497683410042,77.50000000006995,0,90,1.0,6,1.4421819981077167e-12
8.135,0.019500578284482293,77.50000000003125,0,90,1.0,6,6.44323082860396e-13
8.14,0.009439396781978427,77.50000000001378,0,90,1.0,6,2.8421709430404007e-13
8.145,0.004178588733610924,77.50000000000601,0,90,1.0,6,1.239420937016587e-13
8.15,0.0017299316936037381,77.50000000000259,0,90,1.0,6,5.332733109622195e-14
8.155,0.0008997325756988589,77.5000000000011,0,90,1.0,6,2.25615631560939e-14
8.16,0.001634769674224814,77.50000000000045,0,90,1.0,6,9.376234038896167e-15
8.165,0.00614904736476635,77.50000000000018,0,90,1.0,6,3.809095078301568e-15
8.17,0.02168080359963608,77.50000000000007,0,90,1.0,6,1.465036568577526e-15
8.175,0.06433400338904088,77.50000000000003,0,90,1.0,6,5.860146274310105e-16
8.18,0.1593410769217493,77.50000000000001,0,90,1.0,6,2.9300731371550523e-16
8.185,0.3291989194808569,77.5,0,90,1.0,6,0.0
8.19,0.5672906802982638,77.5,0,90,1.0,6,0.0
8.195,0.815339152120446,77.5,0,90,1.0,6,0.0
8.2,0.9768711246313155,77.50000285066528,1,90,1.0,6,5.8776603762772095e-08
8.205,0.9726380909165361,77.50000533774794,0,90,1.0,6,1.1005665847620811e-07
8.21,0.7921091683291741,77.50001055134113,0,90,1.0,6,2.1755342544631426e-07
8.215,0.49139090102639077,77.50002272509559,0,90,1.0,6,4.685586719629616e-07
8.22,0.15739335672107918,77.50005414678377,0,90,1.0,6,1.1164285312949602e-06
8.225,-0.11102342218909485,77.500140505292,0,90,1.0,6,2.8970163297926024e-06
8.23,-0.2314207883647528,77.50038258369432,0,90,1.0,6,7.888323594182947e-06
8.235,-0.2029124434754801,77.5010527695429,0,90,1.0,6,2.1706588513294712e-05
8.24,-0.11151350554305876,77.50284972513398,0,90,1.0,6,5.875721925740811e-05
8.245,-0.039430666652076896,77.50746597756105,0,90,1.0,6,0.00015393768167121978
8.25,-0.006087703519843621,77.51876169890194,0,90,1.0,6,0.0003868391526173268
8.255,0.005350271385530551,77.54500396355465,0,90,1.0,6,0.000927916774322657
8.26,0.010381647827441833,77.60277510805538,0,90,1.0,6,0.0021190743928944885
8.265,0.015115203303506243,77.72313394409493,0,90,1.0,6,0.004600699878245889
8.27,0.021170964062928475,77.96019364845812,0,90,1.0,6,0.009488528834187958
8.275,0.029082821134029553,78.40119339193035,0,90,1.0,6,0.018581307050110282
8.28,0.03923107061708144,79.17526941030879,0,90,1.0,6,0.034541637325954354
8.285,0.051969043308817596,80.45579048450003,0,90,1.0,6,0.06094413370103151
8.29,0.06760532616283861,82.44931195947832,0,90,1.0,6,0.10204766926759427
8.295,0.08636519236693461,85.36455622127653,0,90,1.0,6,0.16215579837683566
8.3,0.10834733138818661,89.35900055276574,0,90,1.0,6,0.24451547531475742
8.305,0.1334809643017884,94.46913761169944,0,90,1.0,6,0.3498791260144214
8.31,0.16148868344343945,100.54136540845477,0,90,1.0,6,0.47507969914339726
8.315,0.191860907532018,107.18914743882308,0,90,1.0,6,0.612147369872641
8.32,0.22384764873847726,113.8027021799891,0,90,1.0,6,0.7485093232987443
8.325,0.25647215537198226,119.62609966806052,0,90,1.0,6,0.868579374599186
8.33,0.2885689161419028,123.89459021136328,0,90,1.0,6,0.9565894888940882
8.335,0.31884566517832524,126.0,0,90,1.0,6,1.0
8.34,0.3459657668955683,125.63555232071732,0,90,1.0,6,0.992485614860151
8.345,0.3686441789190902,122.8728829839707,0,90,1.0,6,0.9355233604942412
8.35,0.3857476379544367,118.14488894980822,0,90,1.0,6,0.8380389474187262
8.355,0.3963882865005728,112.14032116465883,0,90,1.0,6,0.7142334260754398
8.36,0.4,105.64571806451514,0,90,1.0,6,0.5803240838044358
8.365,0.39638828650057273,99.38474665898676,0,90,1.0,6,0.4512318898760156
8.37,0.38574763795443656,93.89946334087666,0,90,1.0,6,0.3381332647603436
8.375,0.36864417891908974,89.49722210145336,0,90,1.0,6,0.24736540415367753
8.38,0.345965766895568,86.26179009897115,0,90,1.0,6,0.18065546595816798
8.385,0.3188456651783249,84.10837075711324,0,90,1.0,6,0.1362550671569739
8.39,0.28856891614190205,82.85525798893129,0,90,1.0,6,0.11041769049342856
8.395,0.2564721553719815,82.28893368935184,0,90,1.0,6,0.09874090081137807
8.4,0.22384764873847685,82.20954302821511,0,90,1.0,6,0.09710397996319811
8.405,0.19186090753201765,82.45412614899202,0,90,1.0,6,0.1021469309070519
8.41,0.16148868344343878,82.9020248457851,0,90,1.0,6,0.11138195558319808
8.415,0.1334809643017881,83.46956389310165,0,90,1.0,6,0.1230837916103433
8.42,0.10834733138818531,84.1004855952502,0,90,1.0,6,0.13609248650000424
8.425,0.08636519236690572,84.75645137662403,0,90,1.0,6,0.14961755415719646
8.43,0.06760532616242629,85.40966434514888,0,90,1.0,6,0.16308586278657491
8.435,0.05196904332202373,86.0380544133898,0,90,1.0,7,0.17604235903896498
8.44,0.03923107185803287,86.62263152761466,0,90,1.0,7,0.18809549541473522
8.445,0.02908287038705761,87.14635512742458,0,90,1.0,7,0.1988939201530842
8.45,0.02117220077308346,87.59392038235315,0,90,1.0,7,0.20812206973924013
8.455,0.0151361834125735,87.95201971947535,0,90,1.0,7,0.21550556122629577
8.46,0.010626454858290009,88.20979239540345,0,90,1.0,7,0.22082046176089595
8.465,0.007326255555493652,88.35928803931012,0,90,1.0,7,0.2239028461713426
8.47,0.004960179211183015,88.3958424677883,0,90,1.0,7,0.22465654572759378
8.475,0.0032978759379303545,88.31830826653777,0,90,1.0,7,0.22305790240284062
8.48,0.002153242296767213,88.12911092076266,0,90,1.0,7,0.21915692620129187
8.485,0.001380616732225004,87.83412164429782,0,90,1.0,7,0.21307467307830563
8.49,0.0008693106590991584,87.44235443924178,0,90,1.0,7,0.20499699874725325
8.495,0.000537524815942247,86.96550861191454,0,90,1.0,7,0.19516512601885658
8.5,0.0003263951340288585,86.41738895346812,0,90,1.0,7,0.18386368976222928
8.505,0.00019463030985187395,85.81324358973214,0,90,1.0,7,0.171407084324374
8.51,0.00011397219555062695,85.16906367666229,0,90,1.0,7,0.15812502426107813
8.515,6.55403863487943e-05,84.5008894969962,0,90,1.0,7,0.14434823705146793
8.52,3.701184389455385e-05,83.82416428298873,0,90,1.0,7,0.1303951398554378
8.525,2.0525516217290957e-05,83.15317077049401,0,90,1.0,7,0.11656022207204154
8.53,1.1178128483661116e-05,82.50057687127921,0,90,1.0,7,0.10310467775833418
8.535,5.978135409912517e-06,81.8771068894783,0,90,1.0,7,0.09024962658718141
8.54,3.1396702713238487e-06,81.29134441020258,0,90,1.0,7,0.07817204969489863
8.545,1.6192875458531019e-06,80.74966329577829,0,90,1.0,7,0.06700336692326372
8.55,8.201353897972012e-07,80.25627492189922,0,90,1.0,7,0.05683041076080865
8.555,4.0791415086824765e-07,79.81337343151264,0,90,1.0,7,0.04769842126830195
8.56,1.9923866938774793e-07,79.42135668043277,0,90,1.0,7,0.03961560165840754
8.565,9.556527981051257e-08,79.07909874103451,0,90,1.0,7,0.032558736928546675
8.57,4.501406988770349e-08,78.78425013843707,0,90,1.0,7,0.026479384297671618
8.575,0.0,78.5335440627456,0,90,1.0,7,0.021310186860734128
8.58,0.0,78.32309016640502,0,90,1.0,7,0.016970931266082963
8.585,0.0,78.14864170879353,0,90,1.0,7,0.013374055851413066
8.59,0.0,78.00582625821215,0,90,1.0,7,0.010429407385817584
8.595,0.0,77.89033447553675,0,90,1.0,7,0.008048133516221589
8.6,0.0,77.79806535061086,0,90,1.0,7,0.006145677332182583
8.605,0.0,77.72522941908457,0,90,1.0,7,0.0046439055481354696
8.61,0.0,77.66841384122971,0,90,1.0,7,0.0034724503346331417
8.615,0.0,77.62461476063879,0,90,1.0,7,0.0025693765080163334
8.62,0.0,77.59124314265756,0,90,1.0,7,0.001881301910465172
8.625,0.0,77.5661104364004,0,90,1.0,7,0.0013631017814514075
8.63,0.0,77.54740005593854,0,90,1.0,7,0.0009773207410008
8.635,0.0,77.53362998903987,0,90,1.0,7,0.0006934018358735332
8.64,0.0,77.52361095963337,0,90,1.0,7,0.00048682390996646063
8.645,0.0,77.51640361595736,0,90,1.0,7,0.00033821888571872985
8.65,0.0,77.51127728584574,0,90,1.0,7,0.00023252135764404482
8.655,0.0,77.50767200055635,0,90,1.0,7,0.0001581855784815344
8.66,0.0,77.50516477853803,0,90,1.0,7,0.00010649027913466187
8.665,0.0,77.503440597138,0,90,1.0,7,7.094014717516253e-05
8.67,0.0,77.5022680623265,0,90,1.0,7,4.676417168027292e-05
8.675,0.0,77.50147950074185,0,90,1.0,7,3.0505169935078867e-05
8.68,0.0,77.50095502431975,0,90,1.0,7,1.9691223087647813e-05
8.685,0.0,77.50061003213925,0,90,1.0,7,1.2577982252566668e-05
8.69,0.0,77.50038559380044,0,90,1.0,7,7.95038763803906e-06
8.695,0.0,77.50024118284321,0,90,1.0,7,4.9728421280745995e-06
8.7,0.0,77.50014928006648,0,90,1.0,7,3.0779395150644987e-06
8.705,0.0,77.50009143158961,0,90,1.0,7,1.8851874146323622e-06
8.71,0.0,77.50005541530939,0,90,1.0,7,1.1425836987655202e-06
8.715,0.0,77.50003323550604,0,90,1.0,7,6.852681657310126e-07
8.72,0.0,77.50001972485731,0,90,1.0,7,4.06698088869403e-07
8.725,0.0,77.50001158415837,0,90,1.0,7,2.3884862622891006e-07
8.73,0.0,77.50000673215557,0,90,1.0,7,1.388073313198229e-07
8.735,0.0,77.5000038715319,0,90,1.0,7,7.982540004489884e-08
8.74,0.001684486749771458,77.50000220318306,0,90,1.0,7,4.542645480852894e-08
