Time,ECG,Pressure,R_Peaks,mean_hr,hrv_scale,Phase_Bin,Normalized_Pressure
0.0,0.001684486749771458,77.5,0,60,1.0,0,0.0
0.005,0.003097557930867117,77.5,0,60,1.0,0,0.0
0.01,0.005475106668887023,77.5,0,60,1.0,0,0.0
0.015,0.00930222931468658,77.5,0,60,1.0,0,0.0
0.02,0.01519157517868857,77.5,0,60,1.0,0,0.0
0.025,0.023847336626128316,77.5,0,60,1.0,0,0.0
0.03,0.0359830743700859,77.5,0,60,1.0,0,0.0
0.035,0.05218887796857759,77.5,0,60,1.0,0,0.0
0.04,0.0727577001223134,77.5,0,60,1.0,0,0.0
0.045,0.0974992498694751,77.5,0,60,1.0,0,0.0
0.05,0.12558706050443358,77.5,0,60,1.0,0,0.0
0.055,0.15549263588878245,77.5,0,60,1.0,0,0.0
0.06,0.1850529723539114,77.5,0,60,1.0,0,0.0
0.065,0.21169159439317053,77.5,0,60,1.0,0,0.0
0.07,0.23277292922115492,77.5,0,60,1.0,0,0.0
0.075,0.24602692519491282,77.5,0,60,1.0,0,0.0
0.08,0.24995056064839283,77.5,0,60,1.0,0,0.0
0.085,0.24408826520424054,77.5,0,60,1.0,0,0.0
0.09,0.22911894216865275,77.5,0,60,1.0,0,0.0
0.095,0.20672661788705934,77.5,0,60,1.0,0,0.0
0.1,0.17928878030241233,77.5,0,60,1.0,0,0.0
0.105,0.14946211903866036,77.5,0,60,1.0,0,0.0
0.11,0.1197651512573837,77.5,0,60,1.0,0,0.0
0.115,0.09224675744988023,77.5,0,60,1.0,0,0.0
0.12,0.06829565320281596,77.5,0,60,1.0,0,0.0
0.125,0.04860224607515734,77.5,0,60,1.0,0,0.0
0.13,0.03324612389699793,77.5,0,60,1.0,0,0.0
0.135,0.021859876340472782,77.5,0,60,1.0,0,0.0
0.14,0.01381595518554205,77.5,0,60,1.0,0,0.0
0.145,0.008394095110402422,77.5,0,60,1.0,0,0.0
0.15,0.0049052535271608,77.5,0,60,1.0,0,0.0
0.155,0.0027671663551903634,77.5,0,60,1.0,0,0.0
0.16,0.0015425553464444616,77.5,0,60,1.0,0,0.0
0.165,0.0009638206637011801,77.5,0,60,1.0,0,0.0
0.17,0.0009804935156568228,77.5,0,60,1.0,0,0.0
0.175,0.0018793744894085216,77.5,0,60,1.0,0,0.0
0.18,0.004535525206900863,77.5,0,60,1.0,0,0.0
0.185,0.010832767979632273,77.5,0,60,1.0,0,0.0
0.19,0.024208003392322392,77.5,0,60,1.0,0,0.0
0.195,0.0500971897335304,77.5,0,60,1.0,0,0.0
0.2,0.09582894921774403,77.5,0,60,1.0,0,0.0
0.205,0.16937896721820658,77.5,0,60,1.0,0,0.0
0.21,0.27661303008991756,77.5,0,60,1.0,0,0.0
0.215,0.4173782800009149,77.5,0,60,1.0,0,0.0
0.22,0.5818720934538056,77.5,0,60,1.0,0,0.0
0.225,0.7494718801585675,77.5,0,60,1.0,0,0.0
0.23,0.891813020752378,77.5,0,60,1.0,0,0.0
0.235,0.9800361632936612,77.5,0,60,1.0,0,0.0
0.24,0.993574479225126,77.5,0,60,1.0,0,0.0
0.245,0.9263438449375362,77.5,0,60,1.0,0,0.0
0.25,0.7873015962290536,77.5,0,60,1.0,0,0.0
0.255,0.5959516244629897,77.5,0,60,1.0,0,0.0
0.26,0.376910120078773,77.5,0,60,1.0,0,0.0
0.265,0.15739335672107918,77.5,0,60,1.0,0,0.0
0.27,-0.033361226269301235,77.5,0,60,1.0,0,0.0
0.275,-0.1680180840843834,77.5,0,60,1.0,0,0.0
0.28,-0.23069703190837854,77.5,0,60,1.0,0,0.0
0.285,-0.22587267821131068,77.5,0,60,1.0,0,0.0
0.29,-0.17718181630665902,77.5,0,60,1.0,0,0.0
0.295,-0.11494332516451301,77.5,0,60,1.0,0,0.0
0.3,-0.061810214049552864,77.5,0,60,1.0,0,0.0
0.305,-0.026546104631500547,77.5,0,60,1.0,0,0.0
0.31,-0.00719600351942686,77.5,0,60,1.0,0,0.0
0.315,0.0022072757983807078,77.5,0,60,1.0,0,0.0
0.32,0.006917199873730717,77.5,0,60,1.0,0,0.0
0.325,0.01004859748264829,77.5,0,60,1.0,0,0.0
0.33,0.013037082251128167,77.5,0,60,1.0,0,0.0
0.335,0.01645163937690478,77.5,0,60,1.0,0,0.0
0.34,0.020526639934696615,77.5,0,60,1.0,0,0.0
0.345,0.02539629541761738,77.5,0,60,1.0,0,0.0
0.35,0.031171612185577933,77.5,0,60,1.0,0,0.0
0.355,0.03795853426638131,77.5,0,60,1.0,0,0.0
0.36,0.0458588961882057,77.5,0,60,1.0,0,0.0
0.365,0.054966995891435555,77.5,0,60,1.0,0,0.0
0.37,0.06536491004445595,77.5,0,60,1.0,0,0.0
0.375,0.07711726085088699,77.5,0,60,1.0,0,0.0
0.38,0.09026570629555215,77.5,0,60,1.0,0,0.0
0.385,0.10482339848670268,77.5,0,60,1.0,0,0.0
0.39,0.12076968927580028,77.5,0,60,1.0,0,0.0
0.395,0.13804539501007884,77.5,0,60,1.0,0,0.0
0.4,0.15654895051787066,77.5,0,60,1.0,0,0.0
0.405,0.17613378141900526,77.5,0,60,1.0,0,0.0
0.41,0.19660720058055794,77.5,0,60,1.0,0,0.0
0.415,0.21773108748496234,77.5,0,60,1.0,0,0.0
0.42,0.23922453870058807,77.5,0,60,1.0,0,0.0
0.425,0.2607685857914563,77.5,0,60,1.0,0,0.0
0.43,0.2820129681603682,77.5,0,60,1.0,0,0.0
0.435,0.30258482867153996,77.5,0,60,1.0,0,0.0
0.44,0.3220990771751686,77.5,0,60,1.0,0,0.0
0.445,0.3401700499968971,77.5,0,60,1.0,0,0.0
0.45,0.3564239911198326,77.5,0,60,1.0,0,0.0
0.455,0.3705118017738417,77.5,0,60,1.0,0,0.0
0.46,0.3821214567925213,77.5,0,60,1.0,0,0.0
0.465,0.39098947374066967,77.5,0,60,1.0,0,0.0
0.47,0.3969108472035567,77.5,0,60,1.0,0,0.0
0.475,0.3997469255491936,77.5,0,60,1.0,0,0.0
0.48,0.3994308076379137,77.5,0,60,1.0,0,0.0
0.485,0.3959699661768434,77.5,0,60,1.0,0,0.0
0.49,0.38944595408114946,77.5,0,60,1.0,0,0.0
0.495,0.38001120995358023,77.5,0,60,1.0,0,0.0
0.5,0.3678831374098315,77.5,0,60,1.0,0,0.0
0.505,0.35333577933796634,77.5,0,60,1.0,0,0.0
0.51,0.33668953221163944,77.5,0,60,1.0,0,0.0
0.515,0.3182994390982644,77.5,0,60,1.0,0,0.0
0.52,0.29854265738230645,77.5,0,60,1.0,0,0.0
0.525,0.2778057157821067,77.5,0,60,1.0,0,0.0
0.53,0.2564721553719815,77.5,0,60,1.0,0,0.0
0.535,0.23491109433464996,77.5,0,60,1.0,0,0.0
0.54,0.21346717185309805,77.5,0,60,1.0,0,0.0
0.545,0.19245222055656455,77.5,0,60,1.0,0,0.0
0.55,0.17213889801761392,77.5,0,60,1.0,0,0.0
0.555,0.15275638501270183,77.5,0,60,1.0,0,0.0
0.56,0.13448814019607322,77.5,0,60,1.0,0,0.0
0.565,0.11747159495449566,77.5,0,60,1.0,0,0.0
0.57,0.10179958433370105,77.5,0,60,1.0,0,0.0
0.575,0.08752324394101413,77.5,0,60,1.0,0,0.0
0.58,0.07465606047174059,77.5,0,60,1.0,0,0.0
0.585,0.0631787448609295,77.5,0,60,1.0,0,0.0
0.59,0.05304460019959574,77.5,0,60,1.0,0,0.0
0.595,0.044185078305849994,77.5,0,60,1.0,0,0.0
0.6,0.03651525513023255,77.5,0,60,1.0,0,0.0
0.605,0.0299390014708757,77.5,0,60,1.0,0,0.0
0.61,0.024353677220580638,77.5,0,60,1.0,0,0.0
0.615,0.01965423034339045,77.5,0,60,1.0,0,0.0
0.62,0.015736632374757337,77.5,0,60,1.0,0,0.0
0.625,0.012500627640593535,77.5,0,60,1.0,0,0.0
0.63,0.009851811652115898,77.5,0,60,1.0,0,0.0
0.635,0.007703084175428559,77.5,0,60,1.0,0,0.0
0.64,0.005975544002062424,77.5,0,60,1.0,0,0.0
0.645,0.004598905818663047,77.5,0,60,1.0,0,0.0
0.65,0.0035115256454839104,77.5,0,60,1.0,0,0.0
0.655,0.002660121266303676,77.5,0,60,1.0,0,0.0
0.66,0.0019992692560877024,77.5,0,60,1.0,0,0.0
0.665,0.0014907520044639367,77.5,0,60,1.0,0,0.0
0.67,0.0011028178277539807,77.5,0,60,1.0,0,0.0
0.675,0.0008094059938923333,77.5,0,60,1.0,0,0.0
0.68,0.0005893771793717645,77.5,0,60,1.0,0,0.0
0.685,0.0004257792353490551,77.5,0,60,1.0,0,0.0
0.69,0.0003051686392901525,77.5,0,60,1.0,0,0.0
0.695,0.00021699992642659966,77.5,0,60,1.0,0,0.0
0.7,0.00015308884054097838,77.5,0,60,1.0,0,0.0
0.705,0.00010714989329311098,77.5,0,60,1.0,0,0.0
0.71,7.440535854020571e-05,77.5,0,60,1.0,0,0.0
0.715,5.1260276743925106e-05,77.5,0,60,1.0,0,0.0
0.72,3.503659887882241e-05,77.5,0,60,1.0,0,0.0
0.725,2.375894748103639e-05,77.5,0,60,1.0,0,0.0
0.73,1.5984413869232557e-05,77.5,0,60,1.0,0,0.0
0.735,1.0669166579899869e-05,77.5,0,60,1.0,0,0.0
0.74,7.06526633560511e-06,77.5,0,60,1.0,0,0.0
0.745,4.641847214699205e-06,77.5,0,60,1.0,0,0.0
0.75,3.025641074479182e-06,77.5,0,60,1.0,0,0.0
0.755,1.9566278676921314e-06,77.5,0,60,1.0,0,0.0
0.76,1.2553456560008793e-06,77.5,0,60,1.0,0,0.0
0.765,7.990660428214668e-07,77.5,0,60,1.0,0,0.0
0.77,5.046221251618276e-07,77.5,0,60,1.0,0,0.0
0.775,3.1616527078858815e-07,77.5,0,60,1.0,0,0.0
0.78,1.9652884407760343e-07,77.5,0,60,1.0,0,0.0
0.785,1.2120002189836396e-07,77.5,0,60,1.0,0,0.0
0.79,7.415549848886236e-08,77.5,0,60,1.0,0,0.0
0.795,4.501406988770349e-08,77.5,0,60,1.0,0,0.0
0.8,0.0,77.5,0,60,1.0,0,0.0
0.805,0.0,77.5,0,60,1.0,0,0.0
0.81,0.0,77.5,0,60,1.0,0,0.0
0.815,0.0,77.5,0,60,1.0,0,0.0
0.82,0.0,77.5,0,60,1.0,0,0.0
0.825,0.0,77.5,0,60,1.0,0,0.0
0.83,0.0,77.5,0,60,1.0,0,0.0
0.835,0.0,77.5,0,60,1.0,0,0.0
0.84,0.0,77.5,0,60,1.0,0,0.0
0.845,0.0,77.5,0,60,1.0,0,0.0
0.85,0.0,77.5,0,60,1.0,0,0.0
0.855,0.0,77.5,0,60,1.0,0,0.0
0.86,0.0,77.5,0,60,1.0,0,0.0
0.865,0.0,77.5,0,60,1.0,0,0.0
0.87,0.0,77.5,0,60,1.0,0,0.0
0.875,0.0,77.5,0,60,1.0,0,0.0
0.88,0.0,77.5,0,60,1.0,0,0.0
0.885,0.0,77.5,0,60,1.0,0,0.0
0.89,0.0,77.5,0,60,1.0,0,0.0
0.895,0.0,77.5,0,60,1.0,0,0.0
0.9,0.0,77.5,0,60,1.0,0,0.0
0.905,0.0,77.5,0,60,1.0,0,0.0
0.91,0.0,77.5,0,60,1.0,0,0.0
0.915,0.0,77.5,0,60,1.0,0,0.0
0.92,0.0,77.5,0,60,1.0,0,0.0
0.925,0.0,77.5,0,60,1.0,0,0.0
0.93,0.0,77.5,0,60,1.0,0,0.0
0.935,0.0,77.5,0,60,1.0,0,0.0
0.94,0.0,77.5,0,60,1.0,0,0.0
0.945,0.0,77.5,0,60,1.0,0,0.0
0.95,0.0,77.5,0,60,1.0,0,0.0
0.955,0.0,77.5,0,60,1.0,0,0.0
0.96,0.0,77.5,0,60,1.0,0,0.0
0.965,0.0,77.5,0,60,1.0,0,0.0
0.97,0.0,77.5,0,60,1.0,0,0.0
0.975,0.001684486749771458,77.5,0,60,1.0,0,0.0
0.98,0.003097557930867117,77.5,0,60,1.0,0,0.0
0.985,0.005475106668887023,77.5,0,60,1.0,0,0.0
0.99,0.00930222931468658,77.5,0,60,1.0,0,0.0
0.995,0.01519157517868857,77.5,0,60,1.0,0,0.0
1.0,0.023847336626128316,77.5,0,60,1.0,0,0.0
1.005,0.0359830743700859,77.5,0,60,1.0,0,0.0
1.01,0.05218887796857759,77.5,0,60,1.0,0,0.0
1.015,0.0727577001223134,77.5,0,60,1.0,0,0.0
1.02,0.0974992498694751,77.5,0,60,1.0,0,0.0
1.025,0.12558706050443358,77.5,0,60,1.0,0,0.0
1.03,0.15549263588878245,77.5,0,60,1.0,0,0.0
1.035,0.1850529723539114,77.5,0,60,1.0,0,0.0
1.04,0.21169159439317053,77.5,0,60,1.0,0,0.0
1.045,0.23277292922115492,77.5,0,60,1.0,0,0.0
1.05,0.24602692519491282,77.5,0,60,1.0,0,0.0
1.055,0.24995056064839283,77.5,0,60,1.0,0,0.0
1.06,0.24408826520424054,77.5,0,60,1.0,0,0.0
1.065,0.22911894216865275,77.5,0,60,1.0,0,0.0
1.07,0.20672661788705934,77.5,0,60,1.0,0,0.0
1.075,0.17928878030241233,77.5,0,60,1.0,0,0.0
1.08,0.14946211903866036,77.5,0,60,1.0,0,0.0
1.085,0.1197651512573837,77.5,0,60,1.0,0,0.0
1.09,0.09224675744988023,77.5,0,60,1.0,0,0.0
1.095,0.06829565320281596,77.5,0,60,1.0,0,0.0
1.1,0.04860224607515734,77.5,0,60,1.0,0,0.0
1.105,0.03324612389699793,77.5,0,60,1.0,0,0.0
1.11,0.021859876340472782,77.5,0,60,1.0,0,0.0
1.115,0.01381595518554205,77.5,0,60,1.0,0,0.0
1.12,0.008394095110402422,77.5,0,60,1.0,0,0.0
1.125,0.0049052535271608,77.5,0,60,1.0,0,0.0
1.13,0.0027671663551903634,77.5,0,60,1.0,0,0.0
1.135,0.0015425553464444616,77.5,0,60,1.0,0,0.0
1.14,0.0009638206637011801,77.5,0,60,1.0,0,0.0
1.145,0.0009804935156568228,77.5,0,60,1.0,0,0.0
1.15,0.0018793744894085216,77.5,0,60,1.0,0,0.0
1.155,0.004535525206900863,77.5,0,60,1.0,0,0.0
1.16,0.010832767979632273,77.5,0,60,1.0,0,0.0
1.165,0.024208003392322392,77.5,0,60,1.0,0,0.0
1.17,0.0500971897335304,77.5,0,60,1.0,0,0.0
1.175,0.09582894921774403,77.5,0,60,1.0,0,0.0
1.18,0.16937896721820658,77.5,0,60,1.0,0,0.0
1.185,0.27661303008991756,77.5,0,60,1.0,0,0.0
1.19,0.4173782800009149,77.5,0,60,1.0,0,0.0
1.195,0.5818720934538056,77.5,0,60,1.0,0,0.0
1.2,0.7494718801585675,77.5,0,60,1.0,0,0.0
1.205,0.891813020752378,77.5,0,60,1.0,1,0.0
1.21,0.9800361632936612,77.5,0,60,1.0,1,0.0
1.215,0.993574479225126,77.50000249553136,1,60,1.0,1,5.871838498826358e-08
1.22,0.9263438449375362,77.5000037979206,0,60,1.0,1,8.936283761078598e-08
1.225,0.7873015962290536,77.50000589651982,0,60,1.0,1,1.387416429064187e-07
1.23,0.5959516244629897,77.5000094348155,0,60,1.0,1,2.2199565872891553e-07
1.235,0.376910120078773,77.50001571195249,0,60,1.0,1,3.6969299966425324e-07
1.24,0.15739335672107918,77.50002740197677,0,60,1.0,1,6.447523944911261e-07
1.245,-0.033361226269301235,77.5000500328844,0,60,1.0,1,1.177244338885644e-06
1.25,-0.1680180840843834,77.50009495573708,0,60,1.0,1,2.234252637248681e-06
1.255,-0.23069703190837854,77.50018514752661,0,60,1.0,1,4.356412390774601e-06
1.26,-0.22587267821131068,77.50036623180388,0,60,1.0,1,8.617218914838198e-06
1.265,-0.17718181630665902,77.50072678709442,0,60,1.0,1,1.710087280992625e-05
1.27,-0.11494332516451301,77.50143461155861,0,60,1.0,1,3.3755566084892054e-05
1.275,-0.061810214049552864,77.5027993939534,0,60,1.0,1,6.58680930210748e-05
1.28,-0.026546104631500547,77.50537738125638,0,60,1.0,1,0.0001265266177971866
1.285,-0.00719600351942686,77.5101400375162,0,60,1.0,1,0.0002385891180281038
1.29,0.0022072757983807078,77.51873573170647,0,60,1.0,1,0.00044084074603460975
1.295,0.006917199873730717,77.53387969714991,0,60,1.0,1,0.0007971693447038486
1.3,0.01004859748264829,77.55991023047092,0,60,1.0,1,0.0014096524816686858
1.305,0.013037082251128167,77.60354438392822,0,60,1.0,1,0.00243633844536997
1.31,0.01645163937690478,77.67484918417814,0,60,1.0,1,0.004114098451250423
1.315,0.020526639934696615,77.7884093308522,0,60,1.0,1,0.0067861019024047994
1.32,0.02539629541761738,77.96461536956245,0,60,1.0,1,0.01093212634264593
1.325,0.031171612185577933,78.23091721059663,0,60,1.0,1,0.017198052014038345
1.33,0.03795853426638131,78.6227928599652,0,60,1.0,1,0.02641865552859298
1.335,0.0458588961882057,79.18408665755831,0,60,1.0,1,0.03962556841313672
1.34,0.054966995891435555,79.96630039667855,0,60,1.0,1,0.058030597568907015
1.345,0.06536491004445595,81.02640747170874,0,60,1.0,1,0.08297429345197027
1.35,0.07711726085088699,82.42283947403011,0,60,1.0,1,0.11583151703600265
1.355,0.09026570629555215,84.20949296015137,0,60,1.0,1,0.15787042259179684
1.36,0.10482339848670268,86.42792724167438,0,60,1.0,1,0.21006887627469134
1.365,0.12076968927580028,89.09834551335945,0,60,1.0,1,0.2729022473731635
1.37,0.13804539501007884,92.21040668051529,0,60,1.0,1,0.3461272160121245
1.375,0.15654895051787066,95.71530488045332,0,60,1.0,1,0.4285954089518428
1.38,0.17613378141900526,99.52076142138833,0,60,1.0,1,0.518135562856196
1.385,0.19660720058055794,103.49049392863455,0,60,1.0,1,0.6115410336149306
1.39,0.21773108748496234,107.44929879905975,0,60,1.0,1,0.7046893835072882
1.395,0.23922453870058807,111.1941190293451,0,60,1.0,1,0.792802800690473
1.4,0.2607685857914563,114.51047262775617,0,60,1.0,1,0.8708346500648512
1.405,0.2820129681603682,117.1925695932531,0,60,1.0,1,0.9339428139588964
1.41,0.30258482867153996,119.06457506308963,0,60,1.0,1,0.977990001484462
1.415,0.3220990771751686,120.0,0,60,1.0,1,1.0
1.42,0.3401700499968971,119.93626626357627,0,60,1.0,1,0.9985003826723828
1.425,0.3564239911198326,118.88213103465766,0,60,1.0,1,0.9736972008154744
1.43,0.3705118017738417,116.91676286621725,0,60,1.0,1,0.9274532439109943
1.435,0.3821214567925213,114.18061934032266,0,60,1.0,1,0.8630733962428863
1.44,0.39098947374066967,110.85960266710498,0,60,1.0,1,0.7849318274612936
1.445,0.3969108472035567,107.16499075378253,0,60,1.0,1,0.6979997824419419
1.45,0.3997469255491936,103.31215997547778,0,60,1.0,1,0.6073449405994773
1.455,0.3994308076379137,99.50105733238124,0,60,1.0,1,0.5176719372324997
1.46,0.3959699661768434,95.90080270694628,0,60,1.0,1,0.43296006369285367
1.465,0.38944595408114946,92.63987384862794,0,60,1.0,1,0.35623232585006925
1.47,0.38001120995358023,89.80227211535595,0,60,1.0,1,0.2894652262436693
1.475,0.3678831374098315,87.429107562273,0,60,1.0,1,0.23362606028877655
1.48,0.35333577933796634,85.52434499291017,0,60,1.0,1,0.18880811748023937
1.485,0.33668953221163944,84.06310121889615,0,60,1.0,1,0.1544259110328506
1.49,0.3182994390982644,83.00087339718817,0,60,1.0,1,0.129432315227957
1.495,0.29854265738230645,82.28233533973716,0,60,1.0,1,0.11252553740558022
1.5,0.2778057157821067,81.84875222780497,0,60,1.0,1,0.10232358183070507
1.505,0.2564721553719815,81.64351943719842,0,60,1.0,1,0.09749457499290402
1.51,0.23491109433464996,81.61573561778272,0,60,1.0,1,0.09684083806547572
1.515,0.21346717185309805,81.7220173312601,0,60,1.0,1,0.09934158426494365
1.52,0.19245222055656455,81.92693369355118,0,60,1.0,1,0.10416314573061594
1.525,0.17213889801761392,82.20249593298601,0,60,1.0,1,0.1106469631290826
1.53,0.15275638501270183,82.52710789170109,0,60,1.0,1,0.11828489156943747
1.535,0.13448814019607322,82.88430441935833,0,60,1.0,1,0.12668951574960777
1.54,0.11747159495449566,83.26150706007847,0,60,1.0,1,0.1355648720018464
1.545,0.10179958433370105,83.64893355810317,0,60,1.0,1,0.14468078960242745
1.55,0.08752324394101413,84.03872273042094,0,60,1.0,1,0.1538522995393163
1.555,0.07465606047174059,84.42428381662813,0,60,1.0,1,0.16292432509713253
1.56,0.0631787448609295,84.79984820751459,0,60,1.0,1,0.17176113429446085
1.565,0.05304460019959574,85.16018700493531,0,60,1.0,1,0.18023969423377198
1.57,0.044185078305849994,85.50045479613394,0,60,1.0,1,0.18824599520315147
1.575,0.03651525513023255,85.81612348054294,0,60,1.0,1,0.1956734936598339
1.58,0.0299390014708757,86.10297630590426,0,60,1.0,1,0.20242297190362973
1.585,0.024353677220580638,86.35713909920837,0,60,1.0,1,0.20840327292254984
1.59,0.01965423034339045,86.5751317625649,0,60,1.0,1,0.21353251206035045
1.595,0.015736632374757337,86.75392796721998,0,60,1.0,1,0.21773948158164658
1.6,0.012500627640593535,86.89101460585793,0,60,1.0,1,0.22096504954959842
1.605,0.009851811652115898,86.98444515996042,0,60,1.0,1,0.22316341552848037
1.61,0.007703084175428559,87.0328829744056,0,60,1.0,1,0.22430312880954342
1.615,0.005975544002062424,87.03563175280645,0,60,1.0,1,0.22436780594838712
1.62,0.004598905818663047,86.99265158497569,0,60,1.0,1,0.22335650788178094
1.625,0.0035115256454839104,86.90455962174919,0,60,1.0,1,0.2212837558058632
1.63,0.002660121266303676,86.7726151996039,0,60,1.0,1,0.2181791811671507
1.635,0.0019992692560877024,86.5986898271919,0,60,1.0,1,0.21408681946333893
1.64,0.0014907520044639367,86.38522299196607,0,60,1.0,1,0.20906407039920175
1.645,0.0011028178277539807,86.13516522658897,0,60,1.0,1,0.20318035827268158
1.65,0.0008094059938923333,85.85191028364954,0,60,1.0,1,0.19651553608587163
1.655,0.0005893771793717645,85.53921859307545,0,60,1.0,1,0.1891580845429517
1.66,0.0004257792353490551,85.20113441032936,0,60,1.0,1,0.18120316259598493
1.665,0.0003051686392901525,84.84189919885794,0,60,1.0,1,0.17275056938489283
1.67,0.00021699992642659966,84.4658638252098,0,60,1.0,1,0.16390267824023047
1.675,0.00015308884054097838,84.07740208207215,0,60,1.0,1,0.15476240193110952
1.68,0.00010714989329311098,83.68082789985633,0,60,1.0,1,0.14543124470250177
1.685,7.440535854020571e-05,83.28031837196917,0,60,1.0,1,0.136007491105157
1.69,5.1260276743925106e-05,82.87984441636587,0,60,1.0,1,0.12658457450272637
1.695,3.503659887882241e-05,82.48311054260569,0,60,1.0,1,0.11724965982601615
1.7,2.375894748103639e-05,82.09350480709807,0,60,1.0,1,0.10808246604936639
1.705,1.5984413869232557e-05,81.71405963766578,0,60,1.0,1,0.09915434441566551
1.71,1.0669166579899869e-05,81.34742380962653,0,60,1.0,1,0.09052761905003609
1.715,7.06526633560511e-06,80.99584547562104,0,60,1.0,1,0.0822551876616715
1.72,4.641847214699205e-06,80.66116580464649,0,60,1.0,1,0.07438037187403498
1.725,3.025641074479182e-06,80.34482248380725,0,60,1.0,1,0.0669369996189941
1.73,1.9566278676921314e-06,80.04786208778954,0,60,1.0,1,0.05994969618328328
1.735,1.2553456560008793e-06,79.77096013143739,0,60,1.0,1,0.05343435603382097
1.74,7.990660428214668e-07,79.51444749231865,0,60,1.0,1,0.04739876452514476
1.745,5.046221251618276e-07,79.278341822098,0,60,1.0,1,0.041843336990541165
1.75,3.1616527078858815e-07,79.06238255449453,0,60,1.0,1,0.0367619424586949
1.755,1.9652884407760343e-07,78.86606815798669,0,60,1.0,1,0.03214278018792209
1.76,1.2120002189836396e-07,78.68869436592169,0,60,1.0,1,0.027969279198157438
1.765,7.415549848886236e-08,78.52939223681737,0,60,1.0,1,0.02422099380746759
1.77,4.501406988770349e-08,78.38716504432811,0,60,1.0,1,0.020874471631249742
1.775,0.0,78.26092316041584,0,60,1.0,1,0.017904074362725703
1.78,0.0,78.14951626792161,0,60,1.0,1,0.01528273571580264
1.785,0.0,78.05176241193382,0,60,1.0,1,0.012982644986678171
1.79,0.0,77.96647356610181,0,60,1.0,1,0.010975848614160268
1.795,0.0,77.89247754460511,0,60,1.0,1,0.009234765755414454
1.8,0.0,77.8286362284681,0,60,1.0,1,0.00773261714042586
1.805,0.0,77.77386019328746,0,60,1.0,1,0.0064437692538226255
1.81,0.0,77.72711992251153,0,60,1.0,1,0.005343998176741974
1.815,0.0,77.68745386566955,0,60,1.0,1,0.004410679192224787
1.82,0.0,77.65397365492345,0,60,1.0,1,0.003622909527610532
1.825,0.0,77.62586682737643,0,60,1.0,1,0.00296157240885711
1.83,0.0,77.60239741673563,0,60,1.0,1,0.0024093509820147575
1.835,0.0,77.58290477863605,0,60,1.0,1,0.0019507006737893896
1.84,0.0,77.56680100188535,0,60,1.0,1,0.0015717882796553462
1.845,0.0,77.55356723584703,0,60,1.0,1,0.0012604055493418
1.85,0.0,77.54274923483845,0,60,1.0,1,0.001005864349140077
1.855,0.0,77.5339523862881,0,60,1.0,1,0.000798879677367214
1.86,0.0,77.52683645271036,0,60,1.0,1,0.0006314459461260172
1.865,0.0,77.52111022023206,0,60,1.0,1,0.0004967110642837725
1.87,0.0,77.51652621000613,0,60,1.0,1,0.0003888520001443313
1.875,0.0,77.51287557458264,0,60,1.0,1,0.0003029546960620417
1.88,0.0,77.50998327004963,0,60,1.0,1,0.00023490047175601724
1.885,0.0,77.50770356706387,0,60,1.0,1,0.0001812604015028415
1.89,0.0,77.50591594005692,0,60,1.0,1,0.0001391985895746556
1.895,0.0,77.5045213539901,0,60,1.0,1,0.00010638479976705639
1.9,0.0,77.50343895192604,0,60,1.0,1,8.091651590689253e-05
1.905,0.0,77.50260313413699,0,60,1.0,1,6.125021498800218e-05
1.91,0.0,77.50196101013708,0,60,1.0,1,4.614141499012155e-05
1.915,0.0,77.50147019851048,0,60,1.0,1,3.459290612882422e-05
1.92,0.0,77.50109694528726,0,60,1.0,1,2.581047734726299e-05
1.925,0.0,77.50081452947285,0,60,1.0,1,1.9165399361126593e-05
1.93,0.0,77.50060192376263,0,60,1.0,1,1.4162912061893247e-05
1.935,0.0,77.50044267910418,0,60,1.0,1,1.041597892193589e-05
1.94,0.0,77.50032400327848,0,60,1.0,1,7.623606552442652e-06
1.945,0.0,77.5002360057779,0,60,1.0,1,5.553077126893079e-06
1.95,0.0,77.50017108373179,0,60,1.0,1,4.025499571432246e-06
1.955,0.0,77.50012342628081,0,60,1.0,1,2.9041477837247786e-06
1.96,0.0,77.50008861748469,0,60,1.0,1,2.0851172868841626e-06
1.965,0.0,77.50006332045746,0,60,1.0,1,1.4898931166338597e-06
1.97,0.0,77.50004502788177,0,60,1.0,1,1.0594795710136062e-06
1.975,0.0,77.50003186631457,0,60,1.0,1,7.49795636987555e-07
1.98,0.0,77.50002244372865,0,60,1.0,1,5.28087733019835e-07
1.985,0.0,77.50001573153237,0,60,1.0,1,3.701537028679441e-07
1.99,0.0,77.50001097387214,0,60,1.0,1,2.5820875614900773e-07
1.995,0.0,77.50000761836212,0,60,1.0,1,1.7925557926901092e-07
2.0,0.001684486749771458,77.50000526351877,0,60,1.0,1,1.2384750053730815e-07
2.005,0.003097557930867117,77.50000361912504,0,60,1.0,1,8.51558832651148e-08
2.01,0.005475106668887023,77.50000247653146,0,60,1.0,1,5.827132855194898e-08
2.015,0.00930222931468658,77.50000168654122,0,60,1.0,1,3.9683322938799394e-08
2.02,0.01519157517868857,77.50000114304392,0,60,1.0,1,2.6895150995187578e-08
2.025,0.023847336626128316,77.50000077097754,0,60,1.0,1,1.814064790671503e-08
2.03,0.0359830743700859,77.50000051752744,0,60,1.0,1,1.2177116225168849e-08
2.035,0.05218887796857759,77.50000034573065,0,60,1.0,1,8.134838935802691e-09
2.04,0.0727577001223134,77.50000022985567,0,60,1.0,1,5.408368759376839e-09
2.045,0.0974992498694751,77.50000015208467,0,60,1.0,1,3.5784627444252904e-09
2.05,0.12558706050443358,77.50000010014482,0,60,1.0,1,2.3563486325549412e-09
2.055,0.15549263588878245,77.50000006562728,0,60,1.0,1,1.544171201363925e-09
2.06,0.1850529723539114,77.50000004280092,0,60,1.0,1,1.0070804739156944e-09
2.065,0.21169159439317053,77.50000002778016,0,60,1.0,1,6.536508328067344e-10
2.07,0.23277292922115492,77.50000001794442,0,60,1.0,1,4.222215466143098e-10
2.075,0.24602692519491282,77.5000000115355,0,60,1.0,1,2.714236469567849e-10
2.08,0.24995056064839283,77.50000000738001,0,60,1.0,1,1.7364728217430907e-10
2.085,0.24408826520424054,77.50000000469883,0,60,1.0,1,1.1056078405732371e-10
2.09,0.22911894216865275,77.50000000297739,0,60,1.0,1,7.005617001542466e-11
2.095,0.20672661788705934,77.50000000187757,0,60,1.0,1,4.417803639251575e-11
2.1,0.17928878030241233,77.50000000117832,0,60,1.0,1,2.7725210362833048e-11
2.105,0.14946211903866036,77.50000000073595,0,60,1.0,1,1.7316511623314855e-11
2.11,0.1197651512573837,77.50000000045745,0,60,1.0,1,1.0763468547820058e-11
2.115,0.09224675744988023,77.50000000028298,0,60,1.0,1,6.658370586913353e-12
2.12,0.06829565320281596,77.50000000017421,0,60,1.0,1,4.0990792459685025e-12
2.125,0.04860224607515734,77.50000000010674,0,60,1.0,1,2.511475994491347e-12
2.13,0.03324612389699793,77.50000000006509,0,60,1.0,1,1.5314285787205924e-12
2.135,0.021859876340472782,77.50000000003949,0,60,1.0,1,9.292227118481499e-13
2.14,0.01381595518554205,77.50000000002385,0,60,1.0,1,5.610779814613874e-13
2.145,0.008394095110402422,77.50000000001434,0,60,1.0,1,3.373824095915017e-13
2.15,0.0049052535271608,77.50000000000857,0,60,1.0,1,2.0162695042980724e-13
2.155,0.0027671663551903634,77.5000000000051,0,60,1.0,1,1.2003992571194163e-13
2.16,0.0015425553464444616,77.50000000000303,0,60,1.0,1,7.122146010207122e-14
2.165,0.0009638206637011801,77.50000000000178,0,60,1.0,1,4.1796631515300014e-14
2.17,0.0009804935156568228,77.50000000000105,0,60,1.0,1,2.4743605857057607e-14
2.175,0.0018793744894085216,77.50000000000061,0,60,1.0,1,1.4378041241263203e-14
2.18,0.004535525206900863,77.50000000000036,0,60,1.0,1,8.359326303060002e-15
2.185,0.010832767979632273,77.5000000000002,0,60,1.0,1,4.681222729713601e-15
2.19,0.024208003392322392,77.50000000000011,0,60,1.0,1,2.6749844169792007e-15
2.195,0.0500971897335304,77.50000000000007,0,60,1.0,1,1.6718652606120004e-15
2.2,0.09582894921774403,77.50000000000004,0,60,1.0,1,1.0031191563672002e-15
2.205,0.16937896721820658,77.50000000000001,0,60,1.0,1,3.343730521224001e-16
2.21,0.27661303008991756,77.50000000000001,0,60,1.0,1,3.343730521224001e-16
2.215,0.4173782800009149,77.5,0,60,1.0,1,0.0
2.22,0.5818720934538056,77.5,0,60,1.0,1,0.0
2.225,0.7494718801585675,77.5,0,60,1.0,1,0.0
2.23,0.891813020752378,77.5,0,60,1.0,1,0.0
2.235,0.9800361632936612,77.5,0,60,1.0,1,0.0
2.24,0.993574479225126,77.50000249070214,1,60,1.0,1,5.8604756331453034e-08
2.245,0.9263438449375362,77.5000037748439,0,60,1.0,1,8.881985656765156e-08
2.25,0.7873015962290536,77.500005833579,0,60,1.0,1,1.372606822555741e-07
2.255,0.5959516244629897,77.50000928366461,0,60,1.0,1,2.1843916730337214e-07
2.26,0.376910120078773,77.500015361103,0,60,1.0,1,3.6143771754883777e-07
2.265,0.15739335672107918,77.50002659138995,0,60,1.0,1,6.256797636230177e-07
2.27,-0.033361226269301235,77.50004815927716,0,60,1.0,1,1.133159462503553e-06
2.275,-0.1680180840843834,77.5000906430617,0,60,1.0,1,2.1327779222701793e-06
2.28,-0.23069703190837854,77.50017533177136,0,60,1.0,1,4.1254534437484836e-06
2.285,-0.22587267821131068,77.50034427932519,0,60,1.0,1,8.100690004486001e-06
2.29,-0.17718181630665902,77.50067876339347,0,60,1.0,1,1.5970903375679934e-05
2.295,-0.11494332516451301,77.50133214821588,0,60,1.0,1,3.1344663903061755e-05
2.3,-0.061810214049552864,77.5025865477528,0,60,1.0,1,6.085994712467415e-05
2.305,-0.026546104631500547,77.50494731977106,0,60,1.0,1,0.00011640752402500125
2.31,-0.00719600351942686,77.50929523851232,0,60,1.0,1,0.00021871149440759086
2.315,0.0022072757983807078,77.5171226889302,0,60,1.0,1,0.0004028867983576594
2.32,0.006917199873730717,77.53088616090623,0,60,1.0,1,0.0007267331977937588
2.325,0.01004859748264829,77.55451044219848,0,60,1.0,1,0.0012825986399641752
2.33,0.013037082251128167,77.59407677734065,0,60,1.0,1,0.00221357123154462
2.335,0.01645163937690478,77.65871339087008,0,60,1.0,1,0.003734432726354739
2.34,0.020526639934696615,77.76167727564739,0,60,1.0,1,0.006157112368173798
2.345,0.02539629541761738,77.92156705033047,0,60,1.0,1,0.009919224713658035
2.35,0.031171612185577933,78.16353698380597,0,60,1.0,1,0.01561263491308162
2.355,0.03795853426638131,78.5202964150463,0,60,1.0,1,0.02400697447167772
2.36,0.0458588961882057,79.03258899051217,0,60,1.0,1,0.036060917423815696
2.365,0.054966995891435555,79.74877354393652,0,60,1.0,1,0.05291231868085935
2.37,0.06536491004445595,80.7231018809971,0,60,1.0,1,0.07583769131757896
2.375,0.07711726085088699,82.01234009388017,0,60,1.0,1,0.1061727080912981
2.38,0.09026570629555215,83.67053603700003,0,60,1.0,1,0.1451890832235302
2.385,0.10482339848670268,85.74200698045453,0,60,1.0,1,0.1939295760106949
2.39,0.12076968927580028,88.25299216597037,0,60,1.0,1,0.25301158037577337
2.395,0.13804539501007884,91.20283520772053,0,60,1.0,1,0.3224196519463653
2.4,0.15654895051787066,94.55594843457419,0,60,1.0,1,0.40131643375468684
2.405,0.17613378141900526,98.2360618659798,0,60,1.0,1,0.48790733802305425
2.41,0.19660720058055794,102.12427180024235,0,60,1.0,2,0.5793946305939377
2.415,0.21773108748496234,106.06210749842371,0,60,1.0,2,0.672049588198205
2.42,0.23922453870058807,109.86021864616963,0,60,1.0,2,0.7614169093216383
2.425,0.2607685857914563,113.31241870434148,0,60,1.0,2,0.8426451459845055
2.43,0.2820129681603682,116.21384448755202,0,60,1.0,2,0.9109139879424005
2.435,0.30258482867153996,118.38110783857866,0,60,1.0,2,0.9619084197312625
2.44,0.3220990771751686,119.6717274950356,0,60,1.0,2,0.9922759410596611
2.445,0.3401700499968971,120.0,0,60,1.0,2,1.0
2.45,0.3564239911198326,119.34686742618811,0,60,1.0,2,0.9846321747338379
2.455,0.3705118017738417,117.76221775269957,0,60,1.0,2,0.9473463000635193
2.46,0.3821214567925213,115.35924796725743,0,60,1.0,2,0.8908058345237043
2.465,0.39098947374066967,112.30178985500262,0,60,1.0,2,0.8188656436471206
2.47,0.3969108472035567,108.78658469160068,0,60,1.0,2,0.736154933920016
2.475,0.3997469255491936,105.02318183622177,0,60,1.0,2,0.6476042784993357
2.48,0.3994308076379137,101.21431013746422,0,60,1.0,2,0.5579837679403347
2.485,0.3959699661768434,97.53923277955604,0,60,1.0,2,0.4715113595189658
2.49,0.38944595408114946,94.14185919721706,0,60,1.0,2,0.39157315758157785
2.495,0.38001120995358023,91.12443922669075,0,60,1.0,2,0.3205750406280177
2.5,0.3678831374098315,88.54671365581692,0,60,1.0,2,0.25992267425451565
2.505,0.35333577933796634,86.42962122580431,0,60,1.0,2,0.21010873472480732
2.51,0.33668953221163944,84.76217841349774,0,60,1.0,2,0.17087478619994673
2.515,0.3182994390982644,83.50998827510688,0,60,1.0,2,0.14141148882604418
2.52,0.29854265738230645,82.6239592616714,0,60,1.0,2,0.12056374733344476
2.525,0.2778057157821067,82.04813671665211,0,60,1.0,2,0.10701498156828493
2.53,0.2564721553719815,81.72596289047014,0,60,1.0,2,0.09943442095223866
2.535,0.23491109433464996,81.60468893918195,0,60,1.0,2,0.09658091621604599
2.54,0.21346717185309805,81.63799504646468,0,60,1.0,2,0.09736458932858073
2.545,0.19245222055656455,81.78709744087013,0,60,1.0,2,0.10087288096165005
2.55,0.17213889801761392,82.02073014370184,0,60,1.0,2,0.10637012102827859
2.555,0.15275638501270183,82.31440368405315,0,60,1.0,2,0.11328008668360345
2.56,0.13448814019607322,82.64929288117871,0,60,1.0,2,0.12115983249832257
2.565,0.11747159495449566,83.0110225176634,0,60,1.0,2,0.12967111806266837
2.57,0.10179958433370105,83.3885292368498,0,60,1.0,2,0.13855362910234836
2.575,0.08752324394101413,83.77309765368632,0,60,1.0,2,0.1476022977337958
2.58,0.07465606047174059,84.15760717412064,0,60,1.0,2,0.15664958056754452
2.585,0.0631787448609295,84.53598520779653,0,60,1.0,2,0.1655525931246242
2.59,0.05304460019959574,84.90283979370203,0,60,1.0,2,0.17418446573416538
2.595,0.044185078305849994,85.2532355842238,0,60,1.0,2,0.18242907256997182
2.6,0.03651525513023255,85.58257682747728,0,60,1.0,2,0.1901782782935831
2.605,0.0299390014708757,85.88656538177838,0,60,1.0,2,0.19733095015949134
2.61,0.024353677220580638,86.1612079739718,0,60,1.0,2,0.20379312879933642
2.615,0.01965423034339045,86.40285309350594,0,60,1.0,2,0.2094788963177868
2.62,0.015736632374757337,86.6082432150249,0,60,1.0,2,0.21431160505940938
2.625,0.012500627640593535,86.77457218739008,0,60,1.0,2,0.21822522793859006
2.63,0.009851811652115898,86.89954068208965,0,60,1.0,2,0.22116566310799177
2.635,0.007703084175428559,86.98140477366222,0,60,1.0,2,0.22309187702734634
2.64,0.005975544002062424,87.01901427304892,0,60,1.0,2,0.22397680642468057
2.645,0.004598905818663047,87.01183856381658,0,60,1.0,2,0.22380796620744897
2.65,0.0035115256454839104,86.95997855926363,0,60,1.0,2,0.22258773080620312
2.655,0.002660121266303676,86.86416411011633,0,60,1.0,2,0.22033327317920787
2.66,0.0019992692560877024,86.72573680860323,0,60,1.0,2,0.21707616020242895
2.665,0.0014907520044639367,86.54661868443019,0,60,1.0,2,0.21286161610423968
2.67,0.0011028178277539807,86.32926778050197,0,60,1.0,2,0.20774747718828154
2.675,0.0008094059938923333,86.0766220284689,0,60,1.0,2,0.20180287125809185
2.68,0.0005893771793717645,85.79203320823416,0,60,1.0,2,0.1951066637231567
2.685,0.0004257792353490551,85.47919306210486,0,60,1.0,2,0.18774571910834953
2.69,0.0003051686392901525,85.1420538353606,0,60,1.0,2,0.1798130314202494
2.695,0.00021699992642659966,84.78474562561813,0,60,1.0,2,0.1714057794263089
2.7,0.00015308884054097838,84.41149294219383,0,60,1.0,2,0.1626233633457372
2.705,0.00010714989329311098,84.02653280638995,0,60,1.0,2,0.15356547779741062
2.71,7.440535854020571e-05,83.63403657080012,0,60,1.0,2,0.14433027225412048
2.715,5.1260276743925106e-05,83.23803741033751,0,60,1.0,2,0.13501264494911794
2.72,3.503659887882241e-05,82.8423651525489,0,60,1.0,2,0.12570270947173867
2.725,2.375894748103639e-05,82.45058978476153,0,60,1.0,2,0.11648446552380078
2.73,1.5984413869232557e-05,82.06597461680163,0,60,1.0,2,0.1074346968659206
2.735,1.0669166579899869e-05,81.69143970684148,0,60,1.0,2,0.09862211074921126
2.74,7.06526633560511e-06,81.32953579030706,0,60,1.0,2,0.09010672447781323
2.745,4.641847214699205e-06,80.98242860237454,0,60,1.0,2,0.08193949652645977
2.75,3.025641074479182e-06,80.65189316618567,0,60,1.0,2,0.07416219214554524
2.755,1.9566278676921314e-06,80.33931734191135,0,60,1.0,2,0.06680746686850245
2.76,1.2553456560008793e-06,80.04571370388507,0,60,1.0,2,0.05989914597376636
2.765,7.990660428214668e-07,79.77173863904802,0,60,1.0,2,0.05345267385995351
2.77,5.046221251618276e-07,79.51771744188935,0,60,1.0,2,0.04747570451504343
2.775,3.1616527078858815e-07,79.28367411824715,0,60,1.0,2,0.04196880278228585
2.78,1.9652884407760343e-07,79.06936459968861,0,60,1.0,2,0.03692622587502616
2.785,1.2120002189836396e-07,78.87431210665059,0,60,1.0,2,0.03233675545060217
2.79,7.415549848886236e-08,78.69784347549275,0,60,1.0,2,0.028184552364535206
2.795,4.501406988770349e-08,78.53912537444172,0,60,1.0,2,0.024450008810393508
2.8,0.0,78.39719946787567,0,60,1.0,2,0.02111057571472155
2.805,0.0,78.27101573919998,0,60,1.0,2,0.018141546804705446
2.81,0.0,78.15946334170297,0,60,1.0,2,0.015516784510658212
2.815,0.0,78.06139850691407,0,60,1.0,2,0.013209376633272327
2.82,0.0,77.97566919470562,0,60,1.0,2,0.011192216346014514
2.825,0.0,77.9011363133772,0,60,1.0,2,0.009438501491228086
2.83,0.0,77.83669146714263,0,60,1.0,2,0.007922152168061851
2.835,0.0,77.78127129994012,0,60,1.0,2,0.006618148233885075
2.84,0.0,77.73386859662963,0,60,1.0,2,0.005502790508932562
2.845,0.0,77.69354037484015,0,60,1.0,2,0.004553891172709507
2.85,0.0,77.6594132533464,0,60,1.0,2,0.0037509000787388364
2.855,0.0,77.63068641703312,0,60,1.0,2,0.0030749745184263087
2.86,0.0,77.60663251599041,0,60,1.0,2,0.002509000376244999
2.865,0.0,77.58659683924148,0,60,1.0,2,0.002037572688034823
2.87,0.0,77.5699950944462,0,60,1.0,2,0.0016469433987340916
2.875,0.0,77.5563101061534,0,60,1.0,2,0.0013249436741977446
2.88,0.0,77.54508771925303,0,60,1.0,2,0.0010608875118360657
2.885,0.0,77.53593216351848,0,60,1.0,2,0.0008454626710230888
2.89,0.0,77.52850110161448,0,60,1.0,2,0.0006706141556348405
2.895,0.0,77.52250054847673,0,60,1.0,2,0.0005294246700406588
2.9,0.0,77.51767981603862,0,60,1.0,2,0.0004159956714970041
2.905,0.0,77.51382660505939,0,60,1.0,2,0.0003253318837504166
2.91,0.0,77.51076233615936,0,60,1.0,2,0.00025323143904375575
2.915,0.0,77.50833778567196,0,60,1.0,2,0.00019618319228129622
2.92,0.0,77.50642906890162,0,60,1.0,2,0.00015127220944999168
2.925,0.0,77.50493399394611,0,60,1.0,2,0.00011609397520260246
2.93,0.0,77.50376879333639,0,60,1.0,2,8.86774902680292e-05
2.935,0.0,77.502865228177,0,60,1.0,2,6.741713357648811e-05
2.94,0.0,77.50216804994355,0,60,1.0,2,5.101293984821228e-05
2.945,0.0,77.501632798266,0,60,1.0,2,3.841878272944942e-05
2.95,0.0,77.50122390851851,0,60,1.0,2,2.8797847494388407e-05
2.955,0.0,77.50091310046415,0,60,1.0,2,2.1484716803436587e-05
2.96,0.0,77.50067801819499,0,60,1.0,2,1.5953369293864692e-05
2.965,0.0,77.50050109181922,0,60,1.0,2,1.1790395746281908e-05
2.97,0.0,77.50036859246728,0,60,1.0,2,8.672763936053396e-06
2.975,0.0,77.5002698539488,0,60,1.0,2,6.349504677500055e-06
2.98,0.0,77.50019663656475,0,60,1.0,2,4.626742700044333e-06
2.985,0.0,77.50014261097807,0,60,1.0,2,3.3555524252653197e-06
2.99,0.0,77.5001029425252,0,60,1.0,2,2.422177063595775e-06
2.995,0.0,77.50007395879989,0,60,1.0,2,1.7402070561863238e-06
3.0,0.0,77.50005288567749,0,60,1.0,2,1.2443688821322747e-06
3.005,0.0,77.5000376391206,0,60,1.0,2,8.856263672013858e-07
3.01,0.0,77.50002666208097,0,60,1.0,2,6.273430816396714e-07
3.015,0.0,77.50001879757373,0,60,1.0,2,4.422958524815733e-07
3.02,0.0,77.50001319054469,0,60,1.0,2,3.1036575746036437e-07
3.025,0.0,77.50000921248602,0,60,1.0,2,2.167643769473002e-07
3.03,0.0,77.50000640389396,0,60,1.0,2,1.506798579451724e-07
3.035,0.001684486749771458,77.500004430621,0,60,1.0,2,1.0424990598360584e-07
3.04,0.003097557930867117,77.50000305097221,0,60,1.0,2,7.178758143227777e-08
3.045,0.005475106668887023,77.50000209105319,0,60,1.0,2,4.920125153309046e-08
3.05,0.00930222931468658,77.50000142641234,0,60,1.0,2,3.356264327896283e-08
3.055,0.01519157517868857,77.50000096845238,0,60,1.0,2,2.2787114898271874e-08
3.06,0.023847336626128316,77.50000065443217,0,60,1.0,2,1.5398404015928355e-08
3.065,0.0359830743700859,77.50000044015351,0,60,1.0,2,1.0356553262039704e-08
3.07,0.05218887796857759,77.50000029464353,0,60,1.0,2,6.9327888789249464e-09
3.075,0.0727577001223134,77.50000019631017,0,60,1.0,2,4.619062779324047e-09
3.08,0.0974992498694751,77.50000013017929,0,60,1.0,2,3.0630420657390083e-09
3.085,0.12558706050443358,77.50000008591998,0,60,1.0,2,2.021646557349253e-09
3.09,0.15549263588878245,77.50000005644164,0,60,1.0,2,1.3280384791869436e-09
3.095,0.1850529723539114,77.5000000369027,0,60,1.0,2,8.682989386322921e-10
3.1,0.21169159439317053,77.5000000240143,0,60,1.0,2,5.650423083673505e-10
3.105,0.23277292922115492,77.50000001555374,0,60,1.0,2,3.6597030242881054e-10
3.11,0.24602692519491282,77.50000001002658,0,60,1.0,2,2.3591958190937634e-10
3.115,0.24995056064839283,77.50000000643315,0,60,1.0,2,1.5136834008444567e-10
3.12,0.24408826520424054,77.50000000410817,0,60,1.0,2,9.666290251890827e-11
3.125,0.22911894216865275,77.50000000261112,0,60,1.0,2,6.143803897002191e-11
3.13,0.20672661788705934,77.5000000016518,0,60,1.0,2,3.8865851713447175e-11
3.135,0.17928878030241233,77.50000000104002,0,60,1.0,2,2.447109181957785e-11
3.14,0.14946211903866036,77.50000000065175,0,60,1.0,2,1.5335351289489637e-11
3.145,0.1197651512573837,77.5000000004065,0,60,1.0,2,9.564741155961254e-12
3.15,0.09224675744988023,77.50000000025236,0,60,1.0,2,5.9377966595895805e-12
3.155,0.06829565320281596,77.50000000015592,0,60,1.0,2,3.668741127886974e-12
3.16,0.04860224607515734,77.50000000009588,0,60,1.0,2,2.2560149826698334e-12
3.165,0.03324612389699793,77.50000000005869,0,60,1.0,2,1.3809607052655123e-12
3.17,0.021859876340472782,77.50000000003575,0,60,1.0,2,8.412825991399587e-13
3.175,0.01381595518554205,77.50000000002167,0,60,1.0,2,5.099189044866601e-13
3.18,0.008394095110402422,77.50000000001309,0,60,1.0,2,3.079575810047305e-13
3.185,0.0049052535271608,77.50000000000786,0,60,1.0,2,1.8490829782368725e-13
3.19,0.0027671663551903634,77.5000000000047,0,60,1.0,2,1.1067748025251443e-13
3.195,0.0015425553464444616,77.5000000000028,0,60,1.0,2,6.587149126811282e-14
3.2,0.0009638206637011801,77.50000000000165,0,60,1.0,2,3.878727404619841e-14
3.205,0.0009804935156568228,77.50000000000098,0,60,1.0,2,2.3071740596445606e-14
3.21,0.0018793744894085216,77.50000000000057,0,60,1.0,2,1.3374922084896003e-14
3.215,0.004535525206900863,77.50000000000033,0,60,1.0,2,7.690580198815202e-15
3.22,0.010832767979632273,77.5000000000002,0,60,1.0,2,4.681222729713601e-15
3.225,0.024208003392322392,77.50000000000011,0,60,1.0,2,2.6749844169792007e-15
3.23,0.0500971897335304,77.50000000000007,0,60,1.0,2,1.6718652606120004e-15
3.235,0.09582894921774403,77.50000000000004,0,60,1.0,2,1.0031191563672002e-15
3.24,0.16937896721820658,77.50000000000001,0,60,1.0,2,3.343730521224001e-16
3.245,0.27661303008991756,77.50000000000001,0,60,1.0,2,3.343730521224001e-16
3.25,0.4173782800009149,77.5,0,60,1.0,2,0.0
3.255,0.5818720934538056,77.5,0,60,1.0,2,0.0
3.26,0.7494718801585675,77.5,0,60,1.0,2,0.0
3.265,0.891813020752378,77.5,0,60,1.0,2,0.0
3.27,0.9800361632936612,77.5,0,60,1.0,2,0.0
3.275,0.993574479225126,77.50000249000622,1,60,1.0,2,5.858838174871754e-08
3.28,0.9263438449375362,77.50000389248275,0,60,1.0,2,9.15878294616799e-08
3.285,0.7873015962290536,77.50000622788357,0,60,1.0,2,1.4653843703961362e-07
3.29,0.5959516244629897,77.50001032445374,0,60,1.0,2,2.429283232927179e-07
3.295,0.376910120078773,77.50001793601348,0,60,1.0,2,4.220238465410041e-07
3.3,0.15739335672107918,77.50003284604738,0,60,1.0,2,7.72848173536498e-07
3.305,-0.033361226269301235,77.50006322959007,0,60,1.0,2,1.4877550604390254e-06
3.31,-0.1680180840843834,77.50012656627284,0,60,1.0,2,2.978029949177011e-06
3.315,-0.23069703190837854,77.50025954907927,0,60,1.0,2,6.10703715939481e-06
3.32,-0.22587267821131068,77.50053742037096,0,60,1.0,2,1.26451851990757e-05
3.325,-0.17718181630665902,77.50111041975664,0,60,1.0,2,2.6127523685705883e-05
3.33,-0.11494332516451301,77.50227004615842,0,60,1.0,2,5.341285078623728e-05
3.335,-0.061810214049552864,77.50456505519409,0,60,1.0,2,0.00010741306339040795
3.34,-0.026546104631500547,77.50899663500942,0,60,1.0,2,0.00021168552963351484
3.345,-0.00719600351942686,77.51733334782944,0,60,1.0,2,0.00040784347833965404
3.35,0.0022072757983807078,77.53259711175801,0,60,1.0,2,0.0007669908648943099
3.355,0.006917199873730717,77.5597775885197,0,60,1.0,2,0.0014065314945810314
3.36,0.01004859748264829,77.60682720154375,0,60,1.0,2,0.002513581212794152
3.365,0.013037082251128167,77.68596373563713,0,60,1.0,2,0.0043756173091089616
3.37,0.01645163937690478,77.81525235617987,0,60,1.0,2,0.007417702498349854
3.375,0.020526639934696615,78.02034654369058,0,60,1.0,2,0.012243448086837147
3.38,0.02539629541761738,78.33613763083831,0,60,1.0,2,0.0196738266079602
3.385,0.031171612185577933,78.80790801230718,0,60,1.0,2,0.030774306171933656
3.39,0.03795853426638131,79.49143402196233,0,60,1.0,2,0.046857271104996094
3.395,0.0458588961882057,80.45138998325675,0,60,1.0,2,0.06944447019427638
3.4,0.054966995891435555,81.75742693681694,0,60,1.0,2,0.10017475145451626
3.405,0.06536491004445595,83.47749814853324,0,60,1.0,2,0.1406470152596057
3.41,0.07711726085088699,85.66841448846296,0,60,1.0,2,0.1921979879638343
3.415,0.09026570629555215,88.36422212653916,0,60,1.0,2,0.2556287559185685
3.42,0.10482339848670268,91.56371947194285,0,60,1.0,2,0.3309110463986552
3.425,0.12076968927580028,95.21911490992028,0,60,1.0,2,0.41692035082165363
3.43,0.13804539501007884,99.22826790633349,0,60,1.0,2,0.5112533625019644
3.435,0.15654895051787066,103.43295067098154,0,60,1.0,2,0.6101870746113304
3.44,0.17613378141900526,107.62498105812116,0,60,1.0,2,0.708823083720498
3.445,0.19660720058055794,111.56090743751355,0,60,1.0,2,0.8014331161767894
3.45,0.21773108748496234,114.9843394518642,0,60,1.0,2,0.8819844576909224
3.455,0.23922453870058807,117.65333760501063,0,60,1.0,2,0.9447844142355444
3.46,0.2607685857914563,119.36890970084326,0,60,1.0,2,0.9851508164904297
3.465,0.2820129681603682,120.0,0,60,1.0,2,1.0
3.47,0.30258482867153996,119.5006402542718,0,60,1.0,2,0.9882503589240423
3.475,0.3220990771751686,117.91617040818592,0,60,1.0,2,0.9509687154867276
3.48,0.3401700499968971,115.37738557396011,0,60,1.0,2,0.8912326017402379
3.485,0.3564239911198326,112.08368211089038,0,60,1.0,2,0.8137336967268325
3.49,0.3705118017738417,108.27824070530876,0,60,1.0,2,0.7241938989484414
3.495,0.3821214567925213,104.21955090304075,0,60,1.0,2,0.6286953153656648
3.5,0.39098947374066967,100.15389681309367,0,60,1.0,2,0.5330328661904392
3.505,0.3969108472035567,96.29278932965357,0,60,1.0,2,0.44218327834478993
3.51,0.3997469255491936,92.79798252281299,0,60,1.0,2,0.3599525299485409
3.515,0.3994308076379137,89.77503474095302,0,60,1.0,2,0.2888243468459534
3.52,0.3959699661768434,87.27477976068862,0,60,1.0,2,0.2299948178985557
3.525,0.38944595408114946,85.30088686693217,0,60,1.0,2,0.1835502792219335
3.53,0.38001120995358023,83.82108308582723,0,60,1.0,2,0.14873136672534648
3.535,0.3678831374098315,82.77958866801355,0,60,1.0,2,0.12422561571796577
3.54,0.35333577933796634,82.1087468967927,0,60,1.0,2,0.10844110345394577
3.545,0.33668953221163944,81.7385096637752,0,60,1.0,2,0.09972963914765186
3.55,0.3182994390982644,81.60316637149273,0,60,1.0,2,0.09654509109394667
3.555,0.29854265738230645,81.64531852817903,0,60,1.0,2,0.097536906545389
3.56,0.2778057157821067,81.81752026347644,0,60,1.0,2,0.10158871208179857
3.565,0.2564721553719815,82.08220991158747,0,60,1.0,2,0.1078167038020581
3.57,0.23491109433464996,82.41058435809306,0,60,1.0,2,0.11554316136689555
3.575,0.21346717185309805,82.78097574839373,0,60,1.0,2,0.12425825290338186
3.58,0.19245222055656455,83.17714153356428,0,60,1.0,2,0.1335798007897478
3.585,0.17213889801761392,83.58672328897565,0,60,1.0,2,0.14321701856413288
3.59,0.15275638501270183,83.99999826166315,0,60,1.0,2,0.15294113556854474
3.595,0.13448814019607322,84.40895337124233,0,60,1.0,2,0.16256360873511372
3.6,0.11747159495449566,84.80665451989769,0,60,1.0,2,0.17192128282112215
3.605,0.10179958433370105,85.1868573489393,0,60,1.0,2,0.1808672317397482
3.61,0.08752324394101413,85.54379935372675,0,60,1.0,2,0.18926586714651186
3.615,0.07465606047174059,85.87211861230374,0,60,1.0,3,0.19699102617185263
3.62,0.0631787448609295,86.16685460853626,0,60,1.0,3,0.20392599078908835
3.625,0.05304460019959574,86.42349754884363,0,60,1.0,3,0.20996464820808536
3.63,0.044185078305849994,86.63806206698814,0,60,1.0,3,0.2150132251056033
3.635,0.03651525513023255,86.80716857960022,0,60,1.0,3,0.21899220187294624
3.64,0.0299390014708757,86.92812088388769,0,60,1.0,3,0.22183813844441616
3.645,0.024353677220580638,86.99897230219709,0,60,1.0,3,0.2235052306399315
3.65,0.01965423034339045,87.0185752592566,0,60,1.0,3,0.22396647668839043
3.655,0.015736632374757337,86.98661103599359,0,60,1.0,3,0.22321437731749624
3.66,0.012500627640593535,86.90359787095856,0,60,1.0,3,0.2212611263754956
3.665,0.009851811652115898,86.77087675820192,0,60,1.0,3,0.21813827666357463
3.67,0.007703084175428559,86.59057531515485,0,60,1.0,3,0.21389588976834945
3.675,0.005975544002062424,86.36555100430262,0,60,1.0,3,0.20860120010123803
3.68,0.004598905818663047,86.0993157926329,0,60,1.0,3,0.2023368421795975
3.685,0.0035115256454839104,85.79594501028039,0,60,1.0,3,0.1951987061242445
3.69,0.002660121266303676,85.45997370609123,0,60,1.0,3,0.18729349896685255
3.695,0.0019992692560877024,85.0962841761263,0,60,1.0,3,0.17873609826179537
3.7,0.0014907520044639367,84.70998855024048,0,60,1.0,3,0.1696467894174231
3.705,0.0011028178277539807,84.3063103584825,0,60,1.0,3,0.1601484790231178
3.71,0.0008094059938923333,83.89046886840002,0,60,1.0,3,0.15036397337411814
3.715,0.0005893771793717645,83.4675696999641,0,60,1.0,3,0.1404134047050377
3.72,0.0004257792353490551,83.04250480764743,0,60,1.0,3,0.13041187782699842
3.725,0.0003051686392901525,82.61986439594673,0,60,1.0,3,0.12046739755168788
3.73,0.00021699992642659966,82.203862736115,0,60,1.0,3,0.11067912320270586
3.735,0.00015308884054097838,81.79827921088489,0,60,1.0,3,0.10113598143258554
3.74,0.00010714989329311098,81.4064152633843,0,60,1.0,3,0.09191565325610127
3.745,7.440535854020571e-05,81.0310672972994,0,60,1.0,3,0.08308393640704474
3.75,5.1260276743925106e-05,80.67451499519211,0,60,1.0,3,0.07469447047510852
3.755,3.503659887882241e-05,80.338524013543,0,60,1.0,3,0.06678880031865868
3.76,2.375894748103639e-05,80.02436159372127,0,60,1.0,3,0.059396743381676866
3.765,1.5984413869232557e-05,79.73282330872932,0,60,1.0,3,0.05253701902892524
3.77,1.0669166579899869e-05,79.4642689510973,0,60,1.0,3,0.046218092966995195
3.775,7.06526633560511e-06,79.21866545674996,0,60,1.0,3,0.040439187217646125
3.78,4.641847214699205e-06,78.99563474688391,0,60,1.0,3,0.03519140580903314
3.785,3.025641074479182e-06,78.79450444444629,0,60,1.0,3,0.030458928104618574
3.79,1.9566278676921314e-06,78.61435957004821,0,60,1.0,3,0.026220225177604896
3.795,1.2553456560008793e-06,78.45409352834312,0,60,1.0,3,0.02244925949042641
3.8,7.990660428214668e-07,78.31245694336336,0,60,1.0,3,0.01911663396149078
3.805,5.046221251618276e-07,78.18810317343045,0,60,1.0,3,0.01619066290424585
3.81,3.1616527078858815e-07,78.07962961742325,0,60,1.0,3,0.01363834393937061
3.815,1.9652884407760343e-07,77.98561420049717,0,60,1.0,3,0.01142621648228629
3.82,1.2120002189836396e-07,77.90464668712917,0,60,1.0,3,0.009521098520686418
3.825,7.415549848886236e-08,77.83535470349312,0,60,1.0,3,0.007890698905720563
3.83,4.501406988770349e-08,77.77642455318359,0,60,1.0,3,0.006504107133731489
3.835,0.0,77.72661707634573,0,60,1.0,3,0.005332166502252529
3.84,0.0,77.68477893086524,0,60,1.0,3,0.00434773954977024
3.845,0.0,77.6498497660474,0,60,1.0,3,0.0035258768481740204
3.85,0.0,77.62086581648374,0,60,1.0,3,0.002843901564323366
3.855,0.0,77.59696047016833,0,60,1.0,3,0.0022814228274900387
3.86,0.0,77.57736236484402,0,60,1.0,3,0.0018202909375063694
3.865,0.0,77.56139154495807,0,60,1.0,3,0.001444506940189887
3.87,0.0,77.54845417352878,0,60,1.0,3,0.0011400982006772237
3.875,0.0,77.53803624353917,0,60,1.0,3,0.0008949704362157049
3.88,0.0,77.52969667664992,0,60,1.0,3,0.0006987453329392846
3.885,0.0,77.52306013697444,0,60,1.0,3,0.000542591458222031
3.89,0.0,77.51780982764838,0,60,1.0,3,0.00041905476819712985
3.895,0.0,77.51368048053044,0,60,1.0,3,0.0003218936595397495
3.9,0.0,77.51045169649136,0,60,1.0,3,0.00024592227038490764
3.905,0.0,77.5079417466527,0,60,1.0,3,0.00018686462712246474
3.91,0.0,77.50600190434021,0,60,1.0,3,0.00014122127859316017
3.915,0.0,77.50451134365947,0,60,1.0,3,0.0001061492625758413
3.92,0.0,77.50337261335471,0,60,1.0,3,7.93556083461975e-05
3.925,0.0,77.50250767355982,0,60,1.0,3,5.9004083760448657e-05
3.93,0.0,77.50185446759158,0,60,1.0,3,4.363453156670135e-05
3.935,0.0,77.50136399034713,0,60,1.0,3,3.209389052070786e-05
3.94,0.0,77.50099780838069,0,60,1.0,3,2.347784425149471e-05
3.945,0.0,77.5007259835821,0,60,1.0,3,1.708196663765407e-05
3.95,0.0,77.50052535183445,0,60,1.0,3,1.2361219634225135e-05
3.955,0.0,77.50037810942973,0,60,1.0,3,8.896692464291204e-06
3.96,0.0,77.50027066279699,0,60,1.0,3,6.368536399831475e-06
3.965,0.001684486749771458,77.50019270075849,0,60,1.0,3,4.53413549387412e-06
3.97,0.003097557930867117,77.50013645268456,0,60,1.0,3,3.2106514013588928e-06
3.975,0.005475106668887023,77.50009610025637,0,60,1.0,3,2.2611825028541394e-06
3.98,0.00930222931468658,77.50006731483874,0,60,1.0,3,1.5838785587033378e-06
3.985,0.01519157517868857,77.50004689654789,0,60,1.0,3,1.103448185551101e-06
3.99,0.023847336626128316,77.50003249486535,0,60,1.0,3,7.645850670916629e-07
3.995,0.0359830743700859,77.50002239403797,0,60,1.0,3,5.269185404652971e-07
4.0,0.05218887796857759,77.50001534948753,0,60,1.0,3,3.6116441238471665e-07
4.005,0.0727577001223134,77.50001046403425,0,60,1.0,3,2.4621257051983453e-07
4.01,0.0974992498694751,77.5000070949318,0,60,1.0,3,1.6693957183419758e-07
4.015,0.12558706050443358,77.50000478455003,0,60,1.0,3,1.125776477425354e-07
4.02,0.15549263588878245,77.50000320905956,0,60,1.0,3,7.550728368829262e-08
4.025,0.1850529723539114,77.50000214071206,0,60,1.0,3,5.036969542636464e-08
4.03,0.21169159439317053,77.50000142030801,0,60,1.0,3,3.3419011996931445e-08
4.035,0.23277292922115492,77.50000093723958,0,60,1.0,3,2.2052695920351922e-08
4.04,0.24602692519491282,77.50000061512375,0,60,1.0,3,1.447350006642142e-08
4.045,0.24995056064839283,77.50000040153017,0,60,1.0,3,9.447768768629483e-09
4.05,0.24408826520424054,77.50000026068598,0,60,1.0,3,6.133787752225865e-09
4.055,0.22911894216865275,77.50000016832978,0,60,1.0,3,3.960700630212908e-09
4.06,0.20672661788705934,77.50000010810557,0,60,1.0,3,2.5436604038772846e-09
4.065,0.17928878030241233,77.50000006905242,0,60,1.0,3,1.6247627975056221e-09
4.07,0.14946211903866036,77.50000004386858,0,60,1.0,3,1.0322019213216502e-09
4.075,0.1197651512573837,77.50000002771866,0,60,1.0,3,6.522036662371487e-10
4.08,0.09224675744988023,77.50000001741945,0,60,1.0,3,4.098694716958562e-10
4.085,0.06829565320281596,77.5000000108878,0,60,1.0,3,2.5618359198715016e-10
4.09,0.04860224607515734,77.50000000676847,0,60,1.0,3,1.592582066223258e-10
4.095,0.03324612389699793,77.50000000418488,0,60,1.0,3,9.846784825426499e-11
4.1,0.021859876340472782,77.50000000257349,0,60,1.0,3,6.05526191280018e-11
4.105,0.01381595518554205,77.500000001574,0,60,1.0,3,3.703515925307703e-11
4.11,0.008394095110402422,77.50000000095747,0,60,1.0,3,2.2528718759798827e-11
4.115,0.0049052535271608,77.50000000057929,0,60,1.0,3,1.3630383096717517e-11
4.12,0.0027671663551903634,77.50000000034858,0,60,1.0,3,8.201836595510351e-12
4.125,0.0015425553464444616,77.50000000020863,0,60,1.0,3,4.908930778208956e-12
4.13,0.0009638206637011801,77.50000000012419,0,60,1.0,3,2.9220861024976544e-12
4.135,0.0009804935156568228,77.50000000007353,0,60,1.0,3,1.730046171681298e-12
4.14,0.0018793744894085216,77.50000000004329,0,60,1.0,3,1.0185003167648307e-12
4.145,0.004535525206900863,77.50000000002535,0,60,1.0,3,5.965215249863618e-13
4.15,0.010832767979632273,77.50000000001477,0,60,1.0,3,3.4741360115517367e-13
4.155,0.024208003392322392,77.50000000000855,0,60,1.0,3,2.0129257737768484e-13
4.16,0.0500971897335304,77.50000000000493,0,60,1.0,3,1.1602744908647282e-13
4.165,0.09582894921774403,77.50000000000283,0,60,1.0,3,6.654023737235762e-14
4.17,0.16937896721820658,77.5000000000016,0,60,1.0,3,3.778415488983121e-14
4.175,0.27661303008991756,77.50000000000091,0,60,1.0,3,2.1399875335833605e-14
4.18,0.4173782800009149,77.50000000000051,0,60,1.0,3,1.2037429876406403e-14
4.185,0.5818720934538056,77.50000000000028,0,60,1.0,3,6.687461042448002e-15
4.19,0.7494718801585675,77.50000000000016,0,60,1.0,3,3.678103573346401e-15
4.195,0.891813020752378,77.50000000000009,0,60,1.0,3,2.0062383127344005e-15
4.2,0.9800361632936612,77.50000000000004,0,60,1.0,3,1.0031191563672002e-15
4.205,0.993574479225126,77.50000000000003,0,60,1.0,3,6.687461042448002e-16
4.21,0.9263438449375362,77.50000000000001,0,60,1.0,3,3.343730521224001e-16
4.215,0.7873015962290536,77.50000000000001,0,60,1.0,3,3.343730521224001e-16
4.22,0.5959516244629897,77.5,0,60,1.0,3,0.0
4.225,0.376910120078773,77.5,0,60,1.0,3,0.0
4.23,0.15739335672107918,77.5,0,60,1.0,3,0.0
4.235,-0.033361226269301235,77.5,0,60,1.0,3,0.0
4.24,-0.1680180840843834,77.50000249206059,1,60,1.0,3,5.8636719720251515e-08
4.245,-0.23069703190837854,77.50000388649308,0,60,1.0,3,9.144689590143303e-08
4.25,-0.22587267821131068,77.50000620174501,0,60,1.0,3,1.4592341197866892e-07
4.255,-0.17718181630665902,77.50001024868433,0,60,1.0,3,2.411455137221577e-07
4.26,-0.11494332516451301,77.50001773713392,0,60,1.0,3,4.1734432744199103e-07
4.265,-0.061810214049552864,77.50003234050088,0,60,1.0,3,7.609529618816047e-07
4.27,-0.026546104631500547,77.50006196542242,0,60,1.0,3,1.4580099392493568e-06
4.275,-0.00719600351942686,77.50012345839556,0,60,1.0,3,2.9049034250259437e-06
4.28,0.0022072757983807078,77.50025207253846,0,60,1.0,3,5.93111855196452e-06
4.285,0.006917199873730717,77.50051989833095,0,60,1.0,3,1.2232901904700852e-05
4.29,0.01004859748264829,77.50107053879677,0,60,1.0,3,2.5189148159236486e-05
4.295,0.013037082251128167,77.50218205581817,0,60,1.0,3,5.134248983923124e-05
4.3,0.01645163937690478,77.50437705138005,0,60,1.0,3,0.00010298944423639382
4.305,0.020526639934696615,77.50860779491533,0,60,1.0,3,0.00020253635094905697
4.31,0.02539629541761738,77.5165549676137,0,60,1.0,3,0.00038952864973412836
4.315,0.031171612185577933,77.53108897869964,0,60,1.0,3,0.0007315053811680627
4.32,0.03795853426638131,77.55694911283238,0,60,1.0,3,0.0013399791254678748
4.325,0.0458588961882057,77.60169183598806,0,60,1.0,3,0.0023927490820720805
4.33,0.054966995891435555,77.67693707547176,0,60,1.0,3,0.0041632253052177794
4.335,0.06536491004445595,77.7998909378598,0,60,1.0,3,0.0070562573614070595
4.34,0.07711726085088699,77.99503777956711,0,60,1.0,3,0.011647947754520306
4.345,0.09026570629555215,78.29577278054447,0,60,1.0,3,0.01872406542457571
4.35,0.10482339848670268,78.74559890656192,0,60,1.0,3,0.029308209566162906
4.355,0.12076968927580028,79.39836652237483,0,60,1.0,3,0.04466744758529009
4.36,0.13804539501007884,80.3169349302758,0,60,1.0,3,0.0662808218888425
4.365,0.15654895051787066,81.56964085920548,0,60,1.0,3,0.09575625551071713
4.37,0.17613378141900526,83.22412774219025,0,60,1.0,3,0.13468535863977055
4.375,0.19660720058055794,85.33845947360807,0,60,1.0,3,0.18443434055548397
4.38,0.21773108748496234,87.95000681664004,0,60,1.0,3,0.24588251333270686
4.385,0.23922453870058807,91.06328339863445,0,60,1.0,3,0.3191360799678695
4.39,0.2607685857914563,94.63858211835603,0,60,1.0,3,0.40326075572602416
4.395,0.2820129681603682,98.5837320054619,0,60,1.0,3,0.4960878118932211
4.4,0.30258482867153996,102.75136341377669,0,60,1.0,3,0.5941497273829809
4.405,0.3220990771751686,106.94359409913197,0,60,1.0,3,0.6927904493913405
4.41,0.3401700499968971,110.92500582405262,0,60,1.0,3,0.7864707252718264
4.415,0.3564239911198326,114.44330342499879,0,60,1.0,3,0.8692541982352656
4.42,0.3705118017738417,117.25542188596262,0,60,1.0,3,0.9354216914344146
4.425,0.3821214567925213,119.15545481965574,0,60,1.0,3,0.9801283486977822
4.43,0.39098947374066967,120.0,0,60,1.0,3,1.0
4.435,0.3969108472035567,119.72661680769721,0,60,1.0,3,0.9935674542987579
4.44,0.3997469255491936,118.36212003966133,0,60,1.0,3,0.9614616479920314
4.445,0.3994308076379137,116.0192046826335,0,60,1.0,3,0.9063342278266706
4.45,0.3959699661768434,112.88201428084409,0,60,1.0,3,0.8325179830786844
4.455,0.38944595408114946,109.18324133098602,0,60,1.0,3,0.7454880313173181
4.46,0.38001120995358023,105.17673159742563,0,60,1.0,3,0.6512172140570737
4.465,0.3678831374098315,101.1100694710858,0,60,1.0,3,0.5555310463784893
4.47,0.35333577933796634,97.20119773854125,0,60,1.0,3,0.46355759384802947
4.475,0.33668953221163944,93.62195394509827,0,60,1.0,3,0.37934009282584163
4.48,0.3182994390982644,90.48983035382798,0,60,1.0,3,0.3056430671488937
4.485,0.29854265738230645,87.86768093596174,0,60,1.0,3,0.24394543378733516
4.49,0.2778057157821067,85.76984429058865,0,60,1.0,3,0.19458457154326236
4.495,0.2564721553719815,84.17242779702583,0,60,1.0,3,0.15699830110649018
4.5,0.23491109433464996,83.02534578800257,0,60,1.0,3,0.1300081361882957
4.505,0.21346717185309805,82.26402464586049,0,60,1.0,3,0.11209469754965853
4.51,0.19245222055656455,81.8192991437891,0,60,1.0,3,0.10163056808915519
4.515,0.17213889801761392,81.62472762003841,0,60,1.0,3,0.09705241458913914
4.52,0.15275638501270183,81.62118407871675,0,60,1.0,3,0.09696903714627651
4.525,0.13448814019607322,81.75904264873614,0,60,1.0,3,0.10021276820555626
4.53,0.11747159495449566,81.9985219925281,0,60,1.0,3,0.10584757629477876
4.535,0.10179958433370105,82.30882611113378,0,60,1.0,3,0.11314884967373606
4.54,0.08752324394101413,82.66665602002601,0,60,1.0,3,0.12156837694178849
4.545,0.07465606047174059,83.05453424588724,0,60,1.0,3,0.13069492343264094
4.55,0.0631787448609295,83.45923266320771,0,60,1.0,3,0.14021723913429918
4.555,0.05304460019959574,83.87045877227034,0,60,1.0,3,0.1498931475828315
4.56,0.044185078305849994,84.2798534333411,0,60,1.0,3,0.15952596313743772
4.565,0.03651525513023255,84.68028767641711,0,60,1.0,3,0.16894794532746138
4.57,0.0299390014708757,85.06541226325399,0,60,1.0,3,0.1780097003118586
4.575,0.024353677220580638,85.42940233018484,0,60,1.0,3,0.18657417247493746
4.58,0.01965423034339045,85.76684174356433,0,60,1.0,3,0.19451392337798418
4.585,0.015736632374757337,86.07270061918209,0,60,1.0,3,0.20171060280428438
4.59,0.012500627640593535,86.34237003707361,0,60,1.0,3,0.20805576557820252
4.595,0.009851811652115898,86.57172770912837,0,60,1.0,3,0.21345241668537335
4.6,0.007703084175428559,86.75721616923929,0,60,1.0,3,0.21781685104092435
4.605,0.005975544002062424,86.89592083331073,0,60,1.0,3,0.2210804901955465
4.61,0.004598905818663047,86.98563934776703,0,60,1.0,3,0.22319151406510668
4.615,0.0035115256454839104,87.02493647066403,0,60,1.0,3,0.22411615225091838
4.62,0.002660121266303676,87.01318073228062,0,60,1.0,3,0.22383954664189687
4.625,0.0019992692560877024,86.95056062220486,0,60,1.0,3,0.2223661322871732
4.63,0.0014907520044639367,86.83807925732597,0,60,1.0,3,0.2197195119370817
4.635,0.0011028178277539807,86.67752751899921,0,60,1.0,3,0.21594182397645206
4.64,0.0008094059938923333,86.47143656288762,0,60,1.0,3,0.21109262500912043
4.645,0.0005893771793717645,86.22301141626089,0,60,1.0,3,0.20524732744143268
4.65,0.0004257792353490551,85.9360480776319,0,60,1.0,3,0.19849524888545636
4.655,0.0003051686392901525,85.61483710619105,0,60,1.0,3,0.19093734367508344
4.66,0.00021699992642659966,85.26405711630112,0,60,1.0,3,0.18268369685414393
4.665,0.00015308884054097838,84.88866186212869,0,60,1.0,3,0.17385086734420438
4.67,0.00010714989329311098,84.49376470286529,0,60,1.0,3,0.16455916947918334
4.675,7.440535854020571e-05,84.08452418143106,0,60,1.0,3,0.15492998073955444
4.68,5.1260276743925106e-05,83.66603423862483,0,60,1.0,3,0.1450831585558784
4.685,3.503659887882241e-05,83.24322223736209,0,60,1.0,3,0.135134640879108
4.69,2.375894748103639e-05,82.82075751109831,0,60,1.0,3,0.1251942943787837
4.695,1.5984413869232557e-05,82.40297260454615,0,60,1.0,3,0.11536406128343883
4.7,1.0669166579899869e-05,81.9937987739174,0,60,1.0,3,0.10573644173923305
4.705,7.06526633560511e-06,81.5967166896027,0,60,1.0,3,0.09639333387300472
4.71,4.641847214699205e-06,81.21472266694637,0,60,1.0,3,0.08740523922226758
4.715,3.025641074479182e-06,80.85031016848625,0,60,1.0,3,0.07883082749379401
4.72,1.9566278676921314e-06,80.50546579764779,0,60,1.0,3,0.07071684229759499
4.725,1.2553456560008793e-06,80.18167855835483,0,60,1.0,3,0.0630983190201137
4.73,7.990660428214668e-07,79.87996080067171,0,60,1.0,3,0.055999077662863786
4.735,5.046221251618276e-07,79.60087901688703,0,60,1.0,3,0.049432447456165526
4.74,3.1616527078858815e-07,79.34459249714048,0,60,1.0,3,0.04340217640330546
4.745,1.9652884407760343e-07,79.1108977952886,0,60,1.0,3,0.037903477536202206
4.75,1.2120002189836396e-07,78.8992769862145,0,60,1.0,3,0.032924164381517705
4.755,7.415549848886236e-08,78.70894780365752,0,60,1.0,3,0.028445830674294657
4.76,4.501406988770349e-08,78.53891391879662,0,60,1.0,3,0.024445033383449968
4.765,0.0,78.38801383874541,0,60,1.0,3,0.02089444326459784
4.77,0.0,78.25496715486534,0,60,1.0,3,0.017763933055655077
4.775,0.0,78.13841713794321,0,60,1.0,3,0.015021579716310766
4.78,0.0,78.03696894665431,0,60,1.0,3,0.012634563450689699
4.785,0.0,77.94922297505981,0,60,1.0,3,0.010569952354348502
4.79,0.0,77.8738031041554,0,60,1.0,3,0.008795367156597636
4.795,0.0,77.8093798341656,0,60,1.0,3,0.007279525509778751
4.8,0.0,77.75468845334072,0,60,1.0,3,0.005992669490369869
4.805,0.0,77.7085425428285,0,60,1.0,3,0.004906883360670503
4.81,0.0,77.6698432252712,0,60,1.0,3,0.003996311182851621
4.815,0.0,77.63758463845281,0,60,1.0,3,0.0032372856106542927
4.82,0.0,77.6108561573609,0,60,1.0,4,0.002608380173197635
4.825,0.0,77.5888419022451,0,60,1.0,4,0.002090397699884547
4.83,0.0,77.5708180611178,0,60,1.0,4,0.0016663073204189432
4.835,0.0,77.55614852741415,0,60,1.0,4,0.0013211418215094534
4.84,0.0,77.54427931196614,0,60,1.0,4,0.001041866163909082
4.845,0.0,77.53473213754465,0,60,1.0,4,0.000817226765756499
4.85,0.0,77.52709756803894,0,60,1.0,4,0.0006375898362103485
4.855,0.0,77.52102796635984,0,60,1.0,4,0.0004947756790550236
4.86,0.0,77.5162305182252,0,60,1.0,4,0.0003818945464752901
4.865,0.0,77.51246050531307,0,60,1.0,4,0.0002931883603075809
4.87,0.0,77.50951496242737,0,60,1.0,4,0.00022388146887939966
4.875,0.0,77.50722681031257,0,60,1.0,4,0.0001700425955899685
4.88,0.0,77.50545951908494,0,60,1.0,4,0.00012845927258675093
4.885,0.0,77.50410232700878,0,60,1.0,4,9.652534138307173e-05
4.89,0.0,77.50306601530963,0,60,1.0,4,7.214153669712473e-05
4.895,0.0,77.50227922141525,0,60,1.0,4,5.362873918235945e-05
4.9,0.0,77.50168525983179,0,60,1.0,4,3.965317251266456e-05
4.905,0.0,77.50123941108798,0,60,1.0,4,2.916261383481523e-05
4.91,0.0,77.50090663407934,0,60,1.0,4,2.1332566572763266e-05
4.915,0.0,77.5006596549978,0,60,1.0,4,1.5521294065980756e-05
4.92,0.0,77.50047738616604,0,60,1.0,4,1.1232615671521189e-05
4.925,0.0,77.50034362990894,0,60,1.0,4,8.085409622120043e-06
4.93,0.0,77.50024602556587,0,60,1.0,4,5.788836844043116e-06
4.935,0.0,77.50017520144215,0,60,1.0,4,4.122386874047044e-06
4.94,0.0,77.50012409756755,0,60,1.0,4,2.919942765883581e-06
4.945,0.0,77.500087429303,0,60,1.0,4,2.057160070441622e-06
4.95,0.0,77.50006126591418,0,60,1.0,4,1.4415509219682409e-06
4.955,0.0,77.50004270207464,0,60,1.0,4,1.004754697345668e-06
4.96,0.0,77.50002960378131,0,60,1.0,4,6.96559560337311e-07
4.965,0.0,77.5000204133158,0,60,1.0,4,4.803133128247924e-07
4.97,0.001684486749771458,77.50001400064605,0,60,1.0,4,3.294269658106393e-07
4.975,0.003097557930867117,77.50000955104196,0,60,1.0,4,2.247303989540395e-07
4.98,0.005475106668887023,77.50000648069503,0,60,1.0,4,1.5248694199619744e-07
4.985,0.00930222931468658,77.50000437381664,0,60,1.0,4,1.0291333263226346e-07
4.99,0.01519157517868857,77.50000293607884,0,60,1.0,4,6.908420807442727e-08
4.995,0.023847336626128316,77.5000019603924,0,60,1.0,4,4.6126879905226385e-08
5.0,0.0359830743700859,77.50000130192649,0,60,1.0,4,3.063356443282614e-08
5.005,0.05218887796857759,77.50000085999925,0,60,1.0,4,2.0235276398285778e-08
5.01,0.0727577001223134,77.50000056503822,0,60,1.0,4,1.3295016956630313e-08
5.015,0.0974992498694751,77.50000036925445,0,60,1.0,4,8.688340023902984e-09
5.02,0.12558706050443358,77.5000002400169,0,60,1.0,4,5.6474565259550755e-09
5.025,0.15549263588878245,77.50000015517654,0,60,1.0,4,3.6512126237486133e-09
5.03,0.1850529723539114,77.50000009978802,0,60,1.0,4,2.347953528335304e-09
5.035,0.21169159439317053,77.50000006382619,0,60,1.0,4,1.5017927607379319e-09
5.04,0.23277292922115492,77.50000004060576,0,60,1.0,4,9.55429534181295e-10
5.045,0.24602692519491282,77.50000002569476,0,60,1.0,4,6.045825905269286e-10
5.05,0.24995056064839283,77.50000001617221,0,60,1.0,4,3.805225520302295e-10
5.055,0.24408826520424054,77.50000001012424,0,60,1.0,4,2.382173935235615e-10
5.06,0.22911894216865275,77.5000000063041,0,60,1.0,4,1.4833189839812215e-10
5.065,0.20672661788705934,77.50000000390439,0,60,1.0,4,9.186799295147306e-11
5.07,0.17928878030241233,77.5000000024052,0,60,1.0,4,5.659297344476834e-11
5.075,0.14946211903866036,77.50000000147372,0,60,1.0,4,3.467582299730138e-11
5.08,0.1197651512573837,77.50000000089815,0,60,1.0,4,2.113304564023993e-11
5.085,0.09224675744988023,77.50000000054445,0,60,1.0,4,1.2810500372913393e-11
5.09,0.06829565320281596,77.50000000032826,0,60,1.0,4,7.72368313097532e-12
5.095,0.04860224607515734,77.50000000019686,0,60,1.0,4,4.632069891051608e-12
5.1,0.03324612389699793,77.50000000011742,0,60,1.0,4,2.762924529687392e-12
5.105,0.021859876340472782,77.50000000006968,0,60,1.0,4,1.6394310745561276e-12
5.11,0.01381595518554205,77.50000000004111,0,60,1.0,4,9.673412397901036e-13
5.115,0.008394095110402422,77.50000000002413,0,60,1.0,4,5.677654425038354e-13
5.12,0.0049052535271608,77.50000000001408,0,60,1.0,4,3.3136369465329847e-13
5.125,0.0027671663551903634,77.50000000000819,0,60,1.0,4,1.9259887802250245e-13
5.13,0.0015425553464444616,77.50000000000472,0,60,1.0,4,1.1101185330463683e-13
5.135,0.0009638206637011801,77.50000000000271,0,60,1.0,4,6.386525295537842e-14
5.14,0.0009804935156568228,77.50000000000155,0,60,1.0,4,3.644666268134161e-14
5.145,0.0018793744894085216,77.50000000000088,0,60,1.0,4,2.0731129231588804e-14
5.15,0.004535525206900863,77.5000000000005,0,60,1.0,4,1.1703056824284003e-14
5.155,0.010832767979632273,77.50000000000028,0,60,1.0,4,6.687461042448002e-15
5.16,0.024208003392322392,77.50000000000016,0,60,1.0,4,3.678103573346401e-15
5.165,0.0500971897335304,77.50000000000009,0,60,1.0,4,2.0062383127344005e-15
5.17,0.09582894921774403,77.50000000000004,0,60,1.0,4,1.0031191563672002e-15
5.175,0.16937896721820658,77.50000000000003,0,60,1.0,4,6.687461042448002e-16
5.18,0.27661303008991756,77.50000000000001,0,60,1.0,4,3.343730521224001e-16
5.185,0.4173782800009149,77.50000000000001,0,60,1.0,4,3.343730521224001e-16
5.19,0.5818720934538056,77.5,0,60,1.0,4,0.0
5.195,0.7494718801585675,77.5,0,60,1.0,4,0.0
5.2,0.891813020752378,77.5,0,60,1.0,4,0.0
5.205,0.9800361632936612,77.5,0,60,1.0,4,0.0
5.21,0.993574479225126,77.50000249606323,1,60,1.0,4,5.8730899568485364e-08
5.215,0.9263438449375362,77.5000038398575,0,60,1.0,4,9.034958820313264e-08
5.22,0.7873015962290536,77.500006033868,0,60,1.0,4,1.4197336480826967e-07
5.225,0.5959516244629897,77.50000979196264,0,60,1.0,4,2.303991209373635e-07
5.23,0.376910120078773,77.50001658325932,0,60,1.0,4,3.9019433703448587e-07
5.235,0.15739335672107918,77.50002948944842,0,60,1.0,4,6.938693746526362e-07
5.24,-0.033361226269301235,77.50005499618474,0,60,1.0,4,1.2940278763300524e-06
5.245,-0.1680180840843834,77.50010664152244,0,60,1.0,4,2.509212292606582e-06
5.25,-0.23069703190837854,77.50021223841208,0,60,1.0,4,4.993844990006919e-06
5.255,-0.22587267821131068,77.50042774487464,0,60,1.0,4,1.006458528569751e-05
5.26,-0.17718181630665902,77.50086306382961,0,60,1.0,4,2.0307384226177473e-05
5.265,-0.11494332516451301,77.50172846110615,0,60,1.0,4,4.0669673085978825e-05
5.27,-0.061810214049552864,77.5034152292072,0,60,1.0,4,8.035833428721162e-05
5.275,-0.026546104631500547,77.5066308676186,0,60,1.0,4,0.00015602041455522073
5.28,-0.00719600351942686,77.51261714788687,0,60,1.0,4,0.0002968740679263834
5.285,0.0022072757983807078,77.5234879390857,0,60,1.0,4,0.000552657390251705
5.29,0.006917199873730717,77.5427303078502,0,60,1.0,4,0.00100541900824015
5.295,0.01004859748264829,77.57591328443115,0,60,1.0,4,0.001786194927791819
5.3,0.013037082251128167,77.63163821024733,0,60,1.0,4,0.0030973696528783824
5.305,0.01645163937690478,77.7227359889992,0,60,1.0,4,0.005240846799981281
5.31,0.020526639934696615,77.86766338596527,0,60,1.0,4,0.008650903199182882
5.315,0.02539629541761738,78.09196918540792,0,60,1.0,4,0.013928686715480447
5.32,0.031171612185577933,78.42959438652437,0,60,1.0,4,0.021872809094691092
5.325,0.03795853426638131,78.9236517302522,0,60,1.0,4,0.03349768777064007
5.33,0.0458588961882057,79.62622444184039,0,60,1.0,4,0.05002881039624453
5.335,0.054966995891435555,80.5966700411891,0,60,1.0,4,0.07286282449856706
5.34,0.06536491004445595,81.89795705296187,0,60,1.0,4,0.10348134242263227
5.345,0.07711726085088699,83.590740736457,0,60,1.0,4,0.14331154674016455
5.35,0.09026570629555215,85.72521884287897,0,60,1.0,4,0.19353456100891703
5.355,0.10482339848670268,88.3312835786459,0,60,1.0,4,0.25485373126225636
5.36,0.12076968927580028,91.40803681418913,0,60,1.0,4,0.32724792503974426
5.365,0.13804539501007884,94.91424919828907,0,60,1.0,4,0.4097470399597428
5.37,0.15654895051787066,98.7616754538298,0,60,1.0,4,0.5002747165607011
5.375,0.17613378141900526,102.81314459839467,0,60,1.0,4,0.5956034023151687
5.38,0.19660720058055794,106.88692793605124,0,60,1.0,4,0.6914571279070879
5.385,0.21773108748496234,110.76804090701927,0,60,1.0,4,0.7827774331063357
5.39,0.23922453870058807,114.22596317855158,0,60,1.0,4,0.8641403100835666
5.395,0.2607685857914563,117.0369802382121,0,60,1.0,4,0.9302818879579317
5.4,0.2820129681603682,119.00824368351186,0,60,1.0,4,0.9766645572591027
5.405,0.30258482867153996,120.0,0,60,1.0,4,1.0
5.41,0.3220990771751686,119.94245116636986,0,60,1.0,4,0.998645909796938
5.415,0.3401700499968971,118.84443995887491,0,60,1.0,4,0.9728103519735274
5.42,0.3564239911198326,116.79247804582917,0,60,1.0,4,0.9245288951959805
5.425,0.3705118017738417,113.94028233815197,0,60,1.0,4,0.857418407956517
5.43,0.3821214567925213,110.4905961503334,0,60,1.0,4,0.7762493211843153
5.435,0.39098947374066967,106.67229771772733,0,60,1.0,4,0.686407005122996
5.44,0.3969108472035567,102.71639188641603,0,60,1.0,4,0.5933268679156714
5.445,0.3997469255491936,98.83435529010902,0,60,1.0,4,0.5019848303555062
5.45,0.3994308076379137,95.20154861737079,0,60,1.0,4,0.4165070262910774
5.455,0.3959699661768434,91.94724589020063,0,60,1.0,4,0.3399351974164855
5.46,0.38944595408114946,89.1515501373611,0,60,1.0,4,0.2741541208790847
5.465,0.38001120995358023,86.84834318674413,0,60,1.0,4,0.21996101615868544
5.47,0.3678831374098315,85.03265064487029,0,60,1.0,4,0.17723883870283028
5.475,0.35333577933796634,83.67047424017679,0,60,1.0,4,0.1451876291806303
5.48,0.33668953221163944,82.70922389874646,0,60,1.0,4,0.12256997408815196
5.485,0.3182994390982644,82.08726133343396,0,60,1.0,4,0.10793556078668136
5.49,0.29854265738230645,81.74159879534122,0,60,1.0,4,0.09980232459626397
5.495,0.2778057157821067,81.61334027722147,0,60,1.0,4,0.09678447711109336
5.5,0.2564721553719815,81.6509036668351,0,60,1.0,4,0.09766832157259073
5.505,0.23491109433464996,81.81136644357802,0,60,1.0,4,0.10144391631948291
5.51,0.21346717185309805,82.06042651697676,0,60,1.0,4,0.10730415334062968
5.515,0.19245222055656455,82.37148928088116,0,60,1.0,4,0.11462327719720386
5.52,0.17213889801761392,82.72432417484066,0,60,1.0,4,0.12292527470213319
5.525,0.15275638501270183,83.10362302191093,0,60,1.0,4,0.13184995345672787
5.53,0.13448814019607322,83.49767392349987,0,60,1.0,4,0.14112173937646763
5.535,0.11747159495449566,83.89726171789964,0,60,1.0,4,0.15052380512705033
5.54,0.10179958433370105,84.29482974674242,0,60,1.0,4,0.15987834698217465
5.545,0.08752324394101413,84.68388923933297,0,60,1.0,4,0.16903268798430518
5.55,0.07465606047174059,85.05863764443257,0,60,1.0,4,0.17785029751606035
5.555,0.0631787448609295,85.41373904216793,0,60,1.0,4,0.18620562452159842
5.56,0.05304460019959574,85.74422176195922,0,60,1.0,4,0.19398168851668762
5.565,0.044185078305849994,86.0454552613927,0,60,1.0,4,0.20106953556218127
5.57,0.03651525513023255,86.31317664893982,0,60,1.0,4,0.20736886232799567
5.575,0.0299390014708757,86.54354497329876,0,60,1.0,4,0.2127892934893827
5.58,0.024353677220580638,86.73320770957436,0,60,1.0,4,0.21725194610763196
5.585,0.01965423034339045,86.87936861096367,0,60,1.0,4,0.22069102614032157
5.59,0.015736632374757337,86.97984948291244,0,60,1.0,4,0.223055281950881
5.595,0.012500627640593535,87.03314081261668,0,60,1.0,4,0.2243091955909807
5.6,0.009851811652115898,87.03843787511315,0,60,1.0,4,0.22443383235560344
5.605,0.007703084175428559,86.99566019345913,0,60,1.0,4,0.2234272986696266
5.61,0.005975544002062424,86.90545322943116,0,60,1.0,4,0.22130478186896846
5.615,0.004598905818663047,86.76917202771214,0,60,1.0,4,0.2180981653579328
5.62,0.0035115256454839104,86.58884728386485,0,60,1.0,4,0.21385523020858474
5.625,0.002660121266303676,86.36713497361453,0,60,1.0,4,0.2086384699674006
5.63,0.0019992692560877024,86.10725126733229,0,60,1.0,4,0.20252355923134793
5.635,0.0014907520044639367,85.81289494876535,0,60,1.0,4,0.19559752820624346
5.64,0.0011028178277539807,85.48815994788507,0,60,1.0,4,0.1879567046561192
5.645,0.0008094059938923333,85.13744087266727,0,60,1.0,4,0.17970449112158282
5.65,0.0005893771793717645,84.76533457621503,0,60,1.0,4,0.17094904885211823
5.655,0.0004257792353490551,84.37654082180066,0,60,1.0,4,0.1618009605129567
5.66,0.0003051686392901525,83.97576501288177,0,60,1.0,4,0.15237094147957095
5.665,0.00021699992642659966,83.5676257473155,0,60,1.0,4,0.14276766464271773
5.67,0.00015308884054097838,83.1565696492459,0,60,1.0,4,0.1330957564528446
5.675,0.00010714989329311098,82.74679554691296,0,60,1.0,4,0.12345401286854031
5.68,7.440535854020571e-05,82.34218962124325,0,60,1.0,4,0.11393387344101764
5.685,5.1260276743925106e-05,81.94627267143458,0,60,1.0,4,0.10461818050434317
5.69,3.503659887882241e-05,81.5621601530088,0,60,1.0,4,0.0955802388943248
5.695,2.375894748103639e-05,81.19253516317026,0,60,1.0,4,0.08688318030988854
5.7,1.5984413869232557e-05,80.83963409787519,0,60,1.0,4,0.07857962583235743
5.705,1.0669166579899869e-05,80.5052443018934,0,60,1.0,4,0.07071163063278585
5.71,7.06526633560511e-06,80.19071269077197,0,60,1.0,4,0.06331088684169352
5.715,4.641847214699205e-06,79.89696405136633,0,60,1.0,4,0.056399154149795884
5.72,3.025641074479182e-06,79.6245275306656,0,60,1.0,4,0.04998888307448477
5.725,1.9566278676921314e-06,79.37356970210506,0,60,1.0,4,0.044083992990707255
5.73,1.2553456560008793e-06,79.14393255178399,0,60,1.0,4,0.03868076592432919
5.735,7.990660428214668e-07,78.93517474813203,0,60,1.0,4,0.03376881760310653
5.74,5.046221251618276e-07,78.74661463915068,0,60,1.0,4,0.029332109156486548
5.745,3.1616527078858815e-07,78.57737355111618,0,60,1.0,4,0.02534996590861604
5.75,1.9652884407760343e-07,78.42641813017309,0,60,1.0,4,0.021798073651131532
5.755,1.2120002189836396e-07,78.29260066180315,0,60,1.0,4,0.01864942733654469
5.76,7.415549848886236e-08,78.17469651121884,0,60,1.0,4,0.0158752120286786
5.765,4.501406988770349e-08,78.07143803963184,0,60,1.0,4,0.013445600932513959
5.77,0.0,77.98154455767332,0,60,1.0,4,0.011330460180548632
5.775,0.0,77.9037480701592,0,60,1.0,4,0.009499954591981082
5.78,0.0,77.83681473981095,0,60,1.0,4,0.00792505270143405
5.785,0.0,77.7795621471775,0,60,1.0,4,0.006577932874764723
5.79,0.0,77.730872547324,0,60,1.0,4,0.005432295231152881
5.795,0.0,77.68970241993146,0,60,1.0,4,0.0044635863513285716
5.8,0.0,77.65508867876439,0,60,1.0,4,0.0036491453826914388
5.805,0.0,77.62615195063168,0,60,1.0,4,0.002968281191333651
5.81,0.0,77.60209735548692,0,60,1.0,4,0.0024022907173392627
5.815,0.0,77.58221322128246,0,60,1.0,4,0.001934428736057846
5.82,0.0,77.56586815304183,0,60,1.0,4,0.001549838895101964
5.825,0.0,77.5525068488899,0,60,1.0,4,0.0012354552679977695
5.83,0.0,77.54164501992928,0,60,1.0,4,0.0009798828218653371
5.835,0.0,77.53286372908609,0,60,1.0,4,0.0007732642137903119
5.84,0.0,77.52580341921859,0,60,1.0,4,0.0006071392757315366
5.845,0.0,77.5201578553129,0,60,1.0,4,0.0004743024779506467
5.85,0.0,77.51566816144691,0,60,1.0,4,0.0003686626222802528
5.855,0.0,77.51211709188321,0,60,1.0,4,0.0002851080443108725
5.86,0.0,77.50932363821491,0,60,1.0,4,0.0002193797227037334
5.865,0.0,77.50713804159365,0,60,1.0,4,0.00016795391985056086
5.87,0.0,77.50543725103012,0,60,1.0,4,0.00012793531835567966
5.875,0.0,77.5041208456039,0,60,1.0,4,9.69610730327772e-05
5.88,0.0,77.5031074199587,0,60,1.0,4,7.311576373400813e-05
5.885,0.0,77.50233141833475,0,60,1.0,4,5.485690199407145e-05
5.89,0.0,77.50174039213948,0,60,1.0,4,4.095040328192066e-05
5.895,0.0,77.501292649158,0,60,1.0,4,3.0415274305957664e-05
5.9,0.0,77.50095525841263,0,60,1.0,4,2.2476668532496712e-05
5.905,0.0,77.50070237286243,0,60,1.0,4,1.6526420292580843e-05
5.91,0.0,77.50051383209139,0,60,1.0,4,1.2090166856135992e-05
5.915,0.0,77.50037400841595,0,60,1.0,4,8.800198022259686e-06
5.92,0.0,77.50027086205799,0,60,1.0,4,6.37322489383758e-06
5.925,0.0,77.50019517384675,0,60,1.0,4,4.5923258058417775e-06
5.93,0.0,77.50013992706306,0,60,1.0,4,3.292401483764372e-06
5.935,0.0,77.50009981331155,0,60,1.0,4,2.348548507063028e-06
5.94,0.0,77.5000708405394,0,60,1.0,4,1.6668362210272307e-06
5.945,0.0,77.50005002440169,0,60,1.0,4,1.177044745592117e-06
5.95,0.0,77.50003514702703,0,60,1.0,4,8.269888714012803e-07
5.955,0.0,77.50002456981785,0,60,1.0,4,5.781133612505501e-07
5.96,0.0,77.50001708920767,0,60,1.0,4,4.0209900409054705e-07
5.965,0.0,77.50001182629116,0,60,1.0,4,2.782656742831879e-07
5.97,0.001684486749771458,77.50000814295163,0,60,1.0,4,1.9159886184805894e-07
5.975,0.003097557930867117,77.50000557855593,0,60,1.0,4,1.312601394896346e-07
5.98,0.005475106668887023,77.5000038024926,0,60,1.0,4,8.947041411535312e-08
5.985,0.00930222931468658,77.50000257882347,0,60,1.0,4,6.067819928081436e-08
5.99,0.01519157517868857,77.5000017401292,0,60,1.0,4,4.0944216634135744e-08
5.995,0.023847336626128316,77.50000116828292,0,60,1.0,4,2.748900990755989e-08
6.0,0.0359830743700859,77.50000078040709,0,60,1.0,4,1.836251980795864e-08
6.005,0.05218887796857759,77.50000051868184,0,60,1.0,4,1.220427868568496e-08
6.01,0.0727577001223134,77.50000034299478,0,60,1.0,4,8.070465435808086e-09
6.015,0.0974992498694751,77.50000022567355,0,60,1.0,4,5.3099657794946855e-09
6.02,0.12558706050443358,77.50000014773399,0,60,1.0,4,3.4760937657719136e-09
6.025,0.15549263588878245,77.50000009622477,0,60,1.0,5,2.2641121605000295e-09
6.03,0.1850529723539114,77.5000000623591,0,60,1.0,5,1.4672730899559718e-09
6.035,0.21169159439317053,77.50000004020866,0,60,1.0,5,9.460861479858388e-10
6.04,0.23277292922115492,77.50000002579563,0,60,1.0,5,6.069559704508933e-10
6.045,0.24602692519491282,77.50000001646566,0,60,1.0,5,3.874273555565571e-10
6.05,0.24995056064839283,77.50000001045728,0,60,1.0,5,2.460537603731021e-10
6.055,0.24408826520424054,77.50000000660792,0,60,1.0,5,1.5548045987944693e-10
6.06,0.22911894216865275,77.50000000415449,0,60,1.0,5,9.775262429577518e-11
6.065,0.20672661788705934,77.50000000259882,0,60,1.0,5,6.114880627993604e-11
6.07,0.17928878030241233,77.5000000016175,0,60,1.0,5,3.80586751656237e-11
6.075,0.14946211903866036,77.50000000100165,0,60,1.0,5,2.356828457884737e-11
6.08,0.1197651512573837,77.50000000061716,0,60,1.0,5,1.4521487280623714e-11
6.085,0.09224675744988023,77.50000000037834,0,60,1.0,5,8.902013766654657e-12
6.09,0.06829565320281596,77.50000000023077,0,60,1.0,5,5.4298839934156554e-12
6.095,0.04860224607515734,77.50000000014005,0,60,1.0,5,3.2952464286662528e-12
6.1,0.03324612389699793,77.50000000008457,0,60,1.0,5,1.989854033180403e-12
6.105,0.021859876340472782,77.5000000000508,0,60,1.0,5,1.1953836613375804e-12
6.11,0.01381595518554205,77.50000000003037,0,60,1.0,5,7.14555212385569e-13
6.115,0.008394095110402422,77.50000000001806,0,60,1.0,5,4.249881492475705e-13
6.12,0.0049052535271608,77.50000000001069,0,60,1.0,5,2.514485351960449e-13
6.125,0.0027671663551903634,77.5000000000063,0,60,1.0,5,1.4812726209022324e-13
6.13,0.0015425553464444616,77.50000000000368,0,60,1.0,5,8.660262049970162e-14
6.135,0.0009638206637011801,77.50000000000215,0,60,1.0,5,5.049033087048241e-14
6.14,0.0009804935156568228,77.50000000000125,0,60,1.0,5,2.942482858677121e-14
6.145,0.0018793744894085216,77.50000000000072,0,60,1.0,5,1.7053025658242404e-14
6.15,0.004535525206900863,77.50000000000041,0,60,1.0,5,9.696818511549603e-15
6.155,0.010832767979632273,77.50000000000024,0,60,1.0,5,5.684341886080802e-15
6.16,0.024208003392322392,77.50000000000013,0,60,1.0,5,3.0093574691016007e-15
6.165,0.0500971897335304,77.50000000000007,0,60,1.0,5,1.6718652606120004e-15
6.17,0.09582894921774403,77.50000000000004,0,60,1.0,5,1.0031191563672002e-15
6.175,0.16937896721820658,77.50000000000003,0,60,1.0,5,6.687461042448002e-16
6.18,0.27661303008991756,77.50000000000001,0,60,1.0,5,3.343730521224001e-16
6.185,0.4173782800009149,77.5,0,60,1.0,5,0.0
6.19,0.5818720934538056,77.5,0,60,1.0,5,0.0
6.195,0.7494718801585675,77.5,0,60,1.0,5,0.0
6.2,0.891813020752378,77.5,0,60,1.0,5,0.0
6.205,0.9800361632936612,77.5,0,60,1.0,5,0.0
6.21,0.993574479225126,77.50000249206059,1,60,1.0,5,5.8636719720251515e-08
6.215,0.9263438449375362,77.50000388649308,0,60,1.0,5,9.144689590143303e-08
6.22,0.7873015962290536,77.50000620174501,0,60,1.0,5,1.4592341197866892e-07
6.225,0.5959516244629897,77.50001024868433,0,60,1.0,5,2.411455137221577e-07
6.23,0.376910120078773,77.50001773713392,0,60,1.0,5,4.1734432744199103e-07
6.235,0.15739335672107918,77.50003234050088,0,60,1.0,5,7.609529618816047e-07
6.24,-0.033361226269301235,77.50006196542242,0,60,1.0,5,1.4580099392493568e-06
6.245,-0.1680180840843834,77.50012345839556,0,60,1.0,5,2.9049034250259437e-06
6.25,-0.23069703190837854,77.50025207253846,0,60,1.0,5,5.93111855196452e-06
6.255,-0.22587267821131068,77.50051989833095,0,60,1.0,5,1.2232901904700852e-05
6.26,-0.17718181630665902,77.50107053879677,0,60,1.0,5,2.5189148159236486e-05
6.265,-0.11494332516451301,77.50218205581817,0,60,1.0,5,5.134248983923124e-05
6.27,-0.061810214049552864,77.50437705138005,0,60,1.0,5,0.00010298944423639382
6.275,-0.026546104631500547,77.50860779491533,0,60,1.0,5,0.00020253635094905697
6.28,-0.00719600351942686,77.5165549676137,0,60,1.0,5,0.00038952864973412836
6.285,0.0022072757983807078,77.53108897869964,0,60,1.0,5,0.0007315053811680627
6.29,0.006917199873730717,77.55694911283238,0,60,1.0,5,0.0013399791254678748
6.295,0.01004859748264829,77.60169183598806,0,60,1.0,5,0.0023927490820720805
6.3,0.013037082251128167,77.67693707547176,0,60,1.0,5,0.0041632253052177794
6.305,0.01645163937690478,77.7998909378598,0,60,1.0,5,0.0070562573614070595
6.31,0.020526639934696615,77.99503777956711,0,60,1.0,5,0.011647947754520306
6.315,0.02539629541761738,78.29577278054447,0,60,1.0,5,0.01872406542457571
6.32,0.031171612185577933,78.74559890656192,0,60,1.0,5,0.029308209566162906
6.325,0.03795853426638131,79.39836652237483,0,60,1.0,5,0.04466744758529009
6.33,0.0458588961882057,80.3169349302758,0,60,1.0,5,0.0662808218888425
6.335,0.054966995891435555,81.56964085920548,0,60,1.0,5,0.09575625551071713
6.34,0.06536491004445595,83.22412774219025,0,60,1.0,5,0.13468535863977055
6.345,0.07711726085088699,85.33845947360807,0,60,1.0,5,0.18443434055548397
6.35,0.09026570629555215,87.95000681664004,0,60,1.0,5,0.24588251333270686
6.355,0.10482339848670268,91.06328339863445,0,60,1.0,5,0.3191360799678695
6.36,0.12076968927580028,94.63858211835603,0,60,1.0,5,0.40326075572602416
6.365,0.13804539501007884,98.5837320054619,0,60,1.0,5,0.4960878118932211
6.37,0.15654895051787066,102.75136341377669,0,60,1.0,5,0.5941497273829809
6.375,0.17613378141900526,106.94359409913197,0,60,1.0,5,0.6927904493913405
6.38,0.19660720058055794,110.92500582405262,0,60,1.0,5,0.7864707252718264
6.385,0.21773108748496234,114.44330342499879,0,60,1.0,5,0.8692541982352656
6.39,0.23922453870058807,117.25542188596262,0,60,1.0,5,0.9354216914344146
6.395,0.2607685857914563,119.15545481965574,0,60,1.0,5,0.9801283486977822
6.4,0.2820129681603682,120.0,0,60,1.0,5,1.0
6.405,0.30258482867153996,119.72661680769721,0,60,1.0,5,0.9935674542987579
6.41,0.3220990771751686,118.36212003966133,0,60,1.0,5,0.9614616479920314
6.415,0.3401700499968971,116.0192046826335,0,60,1.0,5,0.9063342278266706
6.42,0.3564239911198326,112.88201428084409,0,60,1.0,5,0.8325179830786844
6.425,0.3705118017738417,109.18324133098602,0,60,1.0,5,0.7454880313173181
6.43,0.3821214567925213,105.17673159742563,0,60,1.0,5,0.6512172140570737
6.435,0.39098947374066967,101.1100694710858,0,60,1.0,5,0.5555310463784893
6.44,0.3969108472035567,97.20119773854125,0,60,1.0,5,0.46355759384802947
6.445,0.3997469255491936,93.62195394509827,0,60,1.0,5,0.37934009282584163
6.45,0.3994308076379137,90.48983035382798,0,60,1.0,5,0.3056430671488937
6.455,0.3959699661768434,87.86768093596174,0,60,1.0,5,0.24394543378733516
6.46,0.38944595408114946,85.76984429058865,0,60,1.0,5,0.19458457154326236
6.465,0.38001120995358023,84.17242779702583,0,60,1.0,5,0.15699830110649018
6.47,0.3678831374098315,83.02534578800257,0,60,1.0,5,0.1300081361882957
6.475,0.35333577933796634,82.26402464586049,0,60,1.0,5,0.11209469754965853
6.48,0.33668953221163944,81.8192991437891,0,60,1.0,5,0.10163056808915519
6.485,0.3182994390982644,81.62472762003841,0,60,1.0,5,0.09705241458913914
6.49,0.29854265738230645,81.62118407871675,0,60,1.0,5,0.09696903714627651
6.495,0.2778057157821067,81.75904264873614,0,60,1.0,5,0.10021276820555626
6.5,0.2564721553719815,81.9985219925281,0,60,1.0,5,0.10584757629477876
6.505,0.23491109433464996,82.30882611113378,0,60,1.0,5,0.11314884967373606
6.51,0.21346717185309805,82.66665602002601,0,60,1.0,5,0.12156837694178849
6.515,0.19245222055656455,83.05453424588724,0,60,1.0,5,0.13069492343264094
6.52,0.17213889801761392,83.45923266320771,0,60,1.0,5,0.14021723913429918
6.525,0.15275638501270183,83.87045877227034,0,60,1.0,5,0.1498931475828315
6.53,0.13448814019607322,84.2798534333411,0,60,1.0,5,0.15952596313743772
6.535,0.11747159495449566,84.68028767641711,0,60,1.0,5,0.16894794532746138
6.54,0.10179958433370105,85.06541226325399,0,60,1.0,5,0.1780097003118586
6.545,0.08752324394101413,85.42940233018484,0,60,1.0,5,0.18657417247493746
6.55,0.07465606047174059,85.76684174356433,0,60,1.0,5,0.19451392337798418
6.555,0.0631787448609295,86.07270061918209,0,60,1.0,5,0.20171060280428438
6.56,0.05304460019959574,86.34237003707361,0,60,1.0,5,0.20805576557820252
6.565,0.044185078305849994,86.57172770912837,0,60,1.0,5,0.21345241668537335
6.57,0.03651525513023255,86.75721616923929,0,60,1.0,5,0.21781685104092435
6.575,0.0299390014708757,86.89592083331073,0,60,1.0,5,0.2210804901955465
6.58,0.024353677220580638,86.98563934776703,0,60,1.0,5,0.22319151406510668
6.585,0.01965423034339045,87.02493647066403,0,60,1.0,5,0.22411615225091838
6.59,0.015736632374757337,87.01318073228062,0,60,1.0,5,0.22383954664189687
6.595,0.012500627640593535,86.95056062220486,0,60,1.0,5,0.2223661322871732
6.6,0.009851811652115898,86.83807925732597,0,60,1.0,5,0.2197195119370817
6.605,0.007703084175428559,86.67752751899921,0,60,1.0,5,0.21594182397645206
6.61,0.005975544002062424,86.47143656288762,0,60,1.0,5,0.21109262500912043
6.615,0.004598905818663047,86.22301141626089,0,60,1.0,5,0.20524732744143268
6.62,0.0035115256454839104,85.9360480776319,0,60,1.0,5,0.19849524888545636
6.625,0.002660121266303676,85.61483710619105,0,60,1.0,5,0.19093734367508344
6.63,0.0019992692560877024,85.26405711630112,0,60,1.0,5,0.18268369685414393
6.635,0.0014907520044639367,84.88866186212869,0,60,1.0,5,0.17385086734420438
6.64,0.0011028178277539807,84.49376470286529,0,60,1.0,5,0.16455916947918334
6.645,0.0008094059938923333,84.08452418143106,0,60,1.0,5,0.15492998073955444
6.65,0.0005893771793717645,83.66603423862483,0,60,1.0,5,0.1450831585558784
6.655,0.0004257792353490551,83.24322223736209,0,60,1.0,5,0.135134640879108
6.66,0.0003051686392901525,82.82075751109831,0,60,1.0,5,0.1251942943787837
6.665,0.00021699992642659966,82.40297260454615,0,60,1.0,5,0.11536406128343883
6.67,0.00015308884054097838,81.9937987739174,0,60,1.0,5,0.10573644173923305
6.675,0.00010714989329311098,81.5967166896027,0,60,1.0,5,0.09639333387300472
6.68,7.440535854020571e-05,81.21472266694637,0,60,1.0,5,0.08740523922226758
6.685,5.1260276743925106e-05,80.85031016848625,0,60,1.0,5,0.07883082749379401
6.69,3.503659887882241e-05,80.50546579764779,0,60,1.0,5,0.07071684229759499
6.695,2.375894748103639e-05,80.18167855835483,0,60,1.0,5,0.0630983190201137
6.7,1.5984413869232557e-05,79.87996080067171,0,60,1.0,5,0.055999077662863786
6.705,1.0669166579899869e-05,79.60087901688703,0,60,1.0,5,0.049432447456165526
6.71,7.06526633560511e-06,79.34459249714048,0,60,1.0,5,0.04340217640330546
6.715,4.641847214699205e-06,79.1108977952886,0,60,1.0,5,0.037903477536202206
6.72,3.025641074479182e-06,78.8992769862145,0,60,1.0,5,0.032924164381517705
6.725,1.9566278676921314e-06,78.70894780365752,0,60,1.0,5,0.028445830674294657
6.73,1.2553456560008793e-06,78.53891391879662,0,60,1.0,5,0.024445033383449968
6.735,7.990660428214668e-07,78.38801383874541,0,60,1.0,5,0.02089444326459784
6.74,5.046221251618276e-07,78.25496715486534,0,60,1.0,5,0.017763933055655077
6.745,3.1616527078858815e-07,78.13841713794321,0,60,1.0,5,0.015021579716310766
6.75,1.9652884407760343e-07,78.03696894665431,0,60,1.0,5,0.012634563450689699
6.755,1.2120002189836396e-07,77.94922297505981,0,60,1.0,5,0.010569952354348502
6.76,7.415549848886236e-08,77.8738031041554,0,60,1.0,5,0.008795367156597636
6.765,4.501406988770349e-08,77.8093798341656,0,60,1.0,5,0.007279525509778751
6.77,0.0,77.75468845334072,0,60,1.0,5,0.005992669490369869
6.775,0.0,77.7085425428285,0,60,1.0,5,0.004906883360670503
6.78,0.0,77.6698432252712,0,60,1.0,5,0.003996311182851621
6.785,0.0,77.63758463845281,0,60,1.0,5,0.0032372856106542927
6.79,0.0,77.6108561573609,0,60,1.0,5,0.002608380173197635
6.795,0.0,77.5888419022451,0,60,1.0,5,0.002090397699884547
6.8,0.0,77.5708180611178,0,60,1.0,5,0.0016663073204189432
6.805,0.0,77.55614852741415,0,60,1.0,5,0.0013211418215094534
6.81,0.0,77.54427931196614,0,60,1.0,5,0.001041866163909082
6.815,0.0,77.53473213754465,0,60,1.0,5,0.000817226765756499
6.82,0.0,77.52709756803894,0,60,1.0,5,0.0006375898362103485
6.825,0.0,77.52102796635984,0,60,1.0,5,0.0004947756790550236
6.83,0.0,77.5162305182252,0,60,1.0,5,0.0003818945464752901
6.835,0.0,77.51246050531307,0,60,1.0,5,0.0002931883603075809
6.84,0.0,77.50951496242737,0,60,1.0,5,0.00022388146887939966
6.845,0.0,77.50722681031257,0,60,1.0,5,0.0001700425955899685
6.85,0.0,77.50545951908494,0,60,1.0,5,0.00012845927258675093
6.855,0.0,77.50410232700878,0,60,1.0,5,9.652534138307173e-05
6.86,0.0,77.50306601530963,0,60,1.0,5,7.214153669712473e-05
6.865,0.0,77.50227922141525,0,60,1.0,5,5.362873918235945e-05
6.87,0.0,77.50168525983179,0,60,1.0,5,3.965317251266456e-05
6.875,0.0,77.50123941108798,0,60,1.0,5,2.916261383481523e-05
6.88,0.0,77.50090663407934,0,60,1.0,5,2.1332566572763266e-05
6.885,0.0,77.5006596549978,0,60,1.0,5,1.5521294065980756e-05
6.89,0.0,77.50047738616604,0,60,1.0,5,1.1232615671521189e-05
6.895,0.0,77.50034362990894,0,60,1.0,5,8.085409622120043e-06
6.9,0.0,77.50024602556587,0,60,1.0,5,5.788836844043116e-06
6.905,0.0,77.50017520144215,0,60,1.0,5,4.122386874047044e-06
6.91,0.0,77.50012409756755,0,60,1.0,5,2.919942765883581e-06
6.915,0.0,77.500087429303,0,60,1.0,5,2.057160070441622e-06
6.92,0.0,77.50006126591418,0,60,1.0,5,1.4415509219682409e-06
6.925,0.0,77.50004270207464,0,60,1.0,5,1.004754697345668e-06
6.93,0.0,77.50002960378131,0,60,1.0,5,6.96559560337311e-07
6.935,0.0,77.5000204133158,0,60,1.0,5,4.803133128247924e-07
6.94,0.001684486749771458,77.50001400064605,0,60,1.0,5,3.294269658106393e-07
6.945,0.003097557930867117,77.50000955104196,0,60,1.0,5,2.247303989540395e-07
6.95,0.005475106668887023,77.50000648069503,0,60,1.0,5,1.5248694199619744e-07
6.955,0.00930222931468658,77.50000437381664,0,60,1.0,5,1.0291333263226346e-07
6.96,0.01519157517868857,77.50000293607884,0,60,1.0,5,6.908420807442727e-08
6.965,0.023847336626128316,77.5000019603924,0,60,1.0,5,4.6126879905226385e-08
6.97,0.0359830743700859,77.50000130192649,0,60,1.0,5,3.063356443282614e-08
6.975,0.05218887796857759,77.50000085999925,0,60,1.0,5,2.0235276398285778e-08
6.98,0.0727577001223134,77.50000056503822,0,60,1.0,5,1.3295016956630313e-08
6.985,0.0974992498694751,77.50000036925445,0,60,1.0,5,8.688340023902984e-09
6.99,0.12558706050443358,77.5000002400169,0,60,1.0,5,5.6474565259550755e-09
6.995,0.15549263588878245,77.50000015517654,0,60,1.0,5,3.6512126237486133e-09
7.0,0.1850529723539114,77.50000009978802,0,60,1.0,5,2.347953528335304e-09
7.005,0.21169159439317053,77.50000006382619,0,60,1.0,5,1.5017927607379319e-09
7.01,0.23277292922115492,77.50000004060576,0,60,1.0,5,9.55429534181295e-10
7.015,0.24602692519491282,77.50000002569476,0,60,1.0,5,6.045825905269286e-10
7.02,0.24995056064839283,77.50000001617221,0,60,1.0,5,3.805225520302295e-10
7.025,0.24408826520424054,77.50000001012424,0,60,1.0,5,2.382173935235615e-10
7.03,0.22911894216865275,77.5000000063041,0,60,1.0,5,1.4833189839812215e-10
7.035,0.20672661788705934,77.50000000390439,0,60,1.0,5,9.186799295147306e-11
7.04,0.17928878030241233,77.5000000024052,0,60,1.0,5,5.659297344476834e-11
7.045,0.14946211903866036,77.50000000147372,0,60,1.0,5,3.467582299730138e-11
7.05,0.1197651512573837,77.50000000089815,0,60,1.0,5,2.113304564023993e-11
7.055,0.09224675744988023,77.50000000054445,0,60,1.0,5,1.2810500372913393e-11
7.06,0.06829565320281596,77.50000000032826,0,60,1.0,5,7.72368313097532e-12
7.065,0.04860224607515734,77.50000000019686,0,60,1.0,5,4.632069891051608e-12
7.07,0.03324612389699793,77.50000000011742,0,60,1.0,5,2.762924529687392e-12
7.075,0.021859876340472782,77.50000000006968,0,60,1.0,5,1.6394310745561276e-12
7.08,0.01381595518554205,77.50000000004111,0,60,1.0,5,9.673412397901036e-13
7.085,0.008394095110402422,77.50000000002413,0,60,1.0,5,5.677654425038354e-13
7.09,0.0049052535271608,77.50000000001408,0,60,1.0,5,3.3136369465329847e-13
7.095,0.0027671663551903634,77.50000000000819,0,60,1.0,5,1.9259887802250245e-13
7.1,0.0015425553464444616,77.50000000000472,0,60,1.0,5,1.1101185330463683e-13
7.105,0.0009638206637011801,77.50000000000271,0,60,1.0,5,6.386525295537842e-14
7.11,0.0009804935156568228,77.50000000000155,0,60,1.0,5,3.644666268134161e-14
7.115,0.0018793744894085216,77.50000000000088,0,60,1.0,5,2.0731129231588804e-14
7.12,0.004535525206900863,77.5000000000005,0,60,1.0,5,1.1703056824284003e-14
7.125,0.010832767979632273,77.50000000000028,0,60,1.0,5,6.687461042448002e-15
7.13,0.024208003392322392,77.50000000000016,0,60,1.0,5,3.678103573346401e-15
7.135,0.0500971897335304,77.50000000000009,0,60,1.0,5,2.0062383127344005e-15
7.14,0.09582894921774403,77.50000000000004,0,60,1.0,5,1.0031191563672002e-15
7.145,0.16937896721820658,77.50000000000003,0,60,1.0,5,6.687461042448002e-16
7.15,0.27661303008991756,77.50000000000001,0,60,1.0,5,3.343730521224001e-16
7.155,0.4173782800009149,77.50000000000001,0,60,1.0,5,3.343730521224001e-16
7.16,0.5818720934538056,77.5,0,60,1.0,5,0.0
7.165,0.7494718801585675,77.5,0,60,1.0,5,0.0
7.17,0.891813020752378,77.5,0,60,1.0,5,0.0
7.175,0.9800361632936612,77.5,0,60,1.0,5,0.0
7.18,0.993574479225126,77.50000249606323,1,60,1.0,5,5.8730899568485364e-08
7.185,0.9263438449375362,77.5000038398575,0,60,1.0,5,9.034958820313264e-08
7.19,0.7873015962290536,77.500006033868,0,60,1.0,5,1.4197336480826967e-07
7.195,0.5959516244629897,77.50000979196264,0,60,1.0,5,2.303991209373635e-07
7.2,0.376910120078773,77.50001658325932,0,60,1.0,5,3.9019433703448587e-07
7.205,0.15739335672107918,77.50002948944842,0,60,1.0,5,6.938693746526362e-07
7.21,-0.033361226269301235,77.50005499618474,0,60,1.0,5,1.2940278763300524e-06
7.215,-0.1680180840843834,77.50010664152244,0,60,1.0,5,2.509212292606582e-06
7.22,-0.23069703190837854,77.50021223841208,0,60,1.0,5,4.993844990006919e-06
7.225,-0.22587267821131068,77.50042774487464,0,60,1.0,5,1.006458528569751e-05
7.23,-0.17718181630665902,77.50086306382961,0,60,1.0,6,2.0307384226177473e-05
7.235,-0.11494332516451301,77.50172846110615,0,60,1.0,6,4.0669673085978825e-05
7.24,-0.061810214049552864,77.5034152292072,0,60,1.0,6,8.035833428721162e-05
7.245,-0.026546104631500547,77.5066308676186,0,60,1.0,6,0.00015602041455522073
7.25,-0.00719600351942686,77.51261714788687,0,60,1.0,6,0.0002968740679263834
7.255,0.0022072757983807078,77.5234879390857,0,60,1.0,6,0.000552657390251705
7.26,0.006917199873730717,77.5427303078502,0,60,1.0,6,0.00100541900824015
7.265,0.01004859748264829,77.57591328443115,0,60,1.0,6,0.001786194927791819
7.27,0.013037082251128167,77.63163821024733,0,60,1.0,6,0.0030973696528783824
7.275,0.01645163937690478,77.7227359889992,0,60,1.0,6,0.005240846799981281
7.28,0.020526639934696615,77.86766338596527,0,60,1.0,6,0.008650903199182882
7.285,0.02539629541761738,78.09196918540792,0,60,1.0,6,0.013928686715480447
7.29,0.031171612185577933,78.42959438652437,0,60,1.0,6,0.021872809094691092
7.295,0.03795853426638131,78.9236517302522,0,60,1.0,6,0.03349768777064007
7.3,0.0458588961882057,79.62622444184039,0,60,1.0,6,0.05002881039624453
7.305,0.054966995891435555,80.5966700411891,0,60,1.0,6,0.07286282449856706
7.31,0.06536491004445595,81.89795705296187,0,60,1.0,6,0.10348134242263227
7.315,0.07711726085088699,83.590740736457,0,60,1.0,6,0.14331154674016455
7.32,0.09026570629555215,85.72521884287897,0,60,1.0,6,0.19353456100891703
7.325,0.10482339848670268,88.3312835786459,0,60,1.0,6,0.25485373126225636
7.33,0.12076968927580028,91.40803681418913,0,60,1.0,6,0.32724792503974426
7.335,0.13804539501007884,94.91424919828907,0,60,1.0,6,0.4097470399597428
7.34,0.15654895051787066,98.7616754538298,0,60,1.0,6,0.5002747165607011
7.345,0.17613378141900526,102.81314459839467,0,60,1.0,6,0.5956034023151687
7.35,0.19660720058055794,106.88692793605124,0,60,1.0,6,0.6914571279070879
7.355,0.21773108748496234,110.76804090701927,0,60,1.0,6,0.7827774331063357
7.36,0.23922453870058807,114.22596317855158,0,60,1.0,6,0.8641403100835666
7.365,0.2607685857914563,117.0369802382121,0,60,1.0,6,0.9302818879579317
7.37,0.2820129681603682,119.00824368351186,0,60,1.0,6,0.9766645572591027
7.375,0.30258482867153996,120.0,0,60,1.0,6,1.0
7.38,0.3220990771751686,119.94245116636986,0,60,1.0,6,0.998645909796938
7.385,0.3401700499968971,118.84443995887491,0,60,1.0,6,0.9728103519735274
7.39,0.3564239911198326,116.79247804582917,0,60,1.0,6,0.9245288951959805
7.395,0.3705118017738417,113.94028233815197,0,60,1.0,6,0.857418407956517
7.4,0.3821214567925213,110.4905961503334,0,60,1.0,6,0.7762493211843153
7.405,0.39098947374066967,106.67229771772733,0,60,1.0,6,0.686407005122996
7.41,0.3969108472035567,102.71639188641603,0,60,1.0,6,0.5933268679156714
7.415,0.3997469255491936,98.83435529010902,0,60,1.0,6,0.5019848303555062
7.42,0.3994308076379137,95.20154861737079,0,60,1.0,6,0.4165070262910774
7.425,0.3959699661768434,91.94724589020063,0,60,1.0,6,0.3399351974164855
7.43,0.38944595408114946,89.1515501373611,0,60,1.0,6,0.2741541208790847
7.435,0.38001120995358023,86.84834318674413,0,60,1.0,6,0.21996101615868544
7.44,0.3678831374098315,85.03265064487029,0,60,1.0,6,0.17723883870283028
7.445,0.35333577933796634,83.67047424017679,0,60,1.0,6,0.1451876291806303
7.45,0.33668953221163944,82.70922389874646,0,60,1.0,6,0.12256997408815196
7.455,0.3182994390982644,82.08726133343396,0,60,1.0,6,0.10793556078668136
7.46,0.29854265738230645,81.74159879534122,0,60,1.0,6,0.09980232459626397
7.465,0.2778057157821067,81.61334027722147,0,60,1.0,6,0.09678447711109336
7.47,0.2564721553719815,81.6509036668351,0,60,1.0,6,0.09766832157259073
7.475,0.23491109433464996,81.81136644357802,0,60,1.0,6,0.10144391631948291
7.48,0.21346717185309805,82.06042651697676,0,60,1.0,6,0.10730415334062968
7.485,0.19245222055656455,82.37148928088116,0,60,1.0,6,0.11462327719720386
7.49,0.17213889801761392,82.72432417484066,0,60,1.0,6,0.12292527470213319
7.495,0.15275638501270183,83.10362302191093,0,60,1.0,6,0.13184995345672787
7.5,0.13448814019607322,83.49767392349987,0,60,1.0,6,0.14112173937646763
7.505,0.11747159495449566,83.89726171789964,0,60,1.0,6,0.15052380512705033
7.51,0.10179958433370105,84.29482974674242,0,60,1.0,6,0.15987834698217465
7.515,0.08752324394101413,84.68388923933297,0,60,1.0,6,0.16903268798430518
7.52,0.07465606047174059,85.05863764443257,0,60,1.0,6,0.17785029751606035
7.525,0.0631787448609295,85.41373904216793,0,60,1.0,6,0.18620562452159842
7.53,0.05304460019959574,85.74422176195922,0,60,1.0,6,0.19398168851668762
7.535,0.044185078305849994,86.0454552613927,0,60,1.0,6,0.20106953556218127
7.54,0.03651525513023255,86.31317664893982,0,60,1.0,6,0.20736886232799567
7.545,0.0299390014708757,86.54354497329876,0,60,1.0,6,0.2127892934893827
7.55,0.024353677220580638,86.73320770957436,0,60,1.0,6,0.21725194610763196
7.555,0.01965423034339045,86.87936861096367,0,60,1.0,6,0.22069102614032157
7.56,0.015736632374757337,86.97984948291244,0,60,1.0,6,0.223055281950881
7.565,0.012500627640593535,87.03314081261668,0,60,1.0,6,0.2243091955909807
7.57,0.009851811652115898,87.03843787511315,0,60,1.0,6,0.22443383235560344
7.575,0.007703084175428559,86.99566019345913,0,60,1.0,6,0.2234272986696266
7.58,0.005975544002062424,86.90545322943116,0,60,1.0,6,0.22130478186896846
7.585,0.004598905818663047,86.76917202771214,0,60,1.0,6,0.2180981653579328
7.59,0.0035115256454839104,86.58884728386485,0,60,1.0,6,0.21385523020858474
7.595,0.002660121266303676,86.36713497361453,0,60,1.0,6,0.2086384699674006
7.6,0.0019992692560877024,86.10725126733229,0,60,1.0,6,0.20252355923134793
7.605,0.0014907520044639367,85.81289494876535,0,60,1.0,6,0.19559752820624346
7.61,0.0011028178277539807,85.48815994788507,0,60,1.0,6,0.1879567046561192
7.615,0.0008094059938923333,85.13744087266727,0,60,1.0,6,0.17970449112158282
7.62,0.0005893771793717645,84.76533457621503,0,60,1.0,6,0.17094904885211823
7.625,0.0004257792353490551,84.37654082180066,0,60,1.0,6,0.1618009605129567
7.63,0.0003051686392901525,83.97576501288177,0,60,1.0,6,0.15237094147957095
7.635,0.00021699992642659966,83.5676257473155,0,60,1.0,6,0.14276766464271773
7.64,0.00015308884054097838,83.1565696492459,0,60,1.0,6,0.1330957564528446
7.645,0.00010714989329311098,82.74679554691296,0,60,1.0,6,0.12345401286854031
7.65,7.440535854020571e-05,82.34218962124325,0,60,1.0,6,0.11393387344101764
7.655,5.1260276743925106e-05,81.94627267143458,0,60,1.0,6,0.10461818050434317
7.66,3.503659887882241e-05,81.5621601530088,0,60,1.0,6,0.0955802388943248
7.665,2.375894748103639e-05,81.19253516317026,0,60,1.0,6,0.08688318030988854
7.67,1.5984413869232557e-05,80.83963409787519,0,60,1.0,6,0.07857962583235743
7.675,1.0669166579899869e-05,80.5052443018934,0,60,1.0,6,0.07071163063278585
7.68,7.06526633560511e-06,80.19071269077197,0,60,1.0,6,0.06331088684169352
7.685,4.641847214699205e-06,79.89696405136633,0,60,1.0,6,0.056399154149795884
7.69,3.025641074479182e-06,79.6245275306656,0,60,1.0,6,0.04998888307448477
7.695,1.9566278676921314e-06,79.37356970210506,0,60,1.0,6,0.044083992990707255
7.7,1.2553456560008793e-06,79.14393255178399,0,60,1.0,6,0.03868076592432919
7.705,7.990660428214668e-07,78.93517474813203,0,60,1.0,6,0.03376881760310653
7.71,5.046221251618276e-07,78.74661463915068,0,60,1.0,6,0.029332109156486548
7.715,3.1616527078858815e-07,78.57737355111618,0,60,1.0,6,0.02534996590861604
7.72,1.9652884407760343e-07,78.42641813017309,0,60,1.0,6,0.021798073651131532
7.725,1.2120002189836396e-07,78.29260066180315,0,60,1.0,6,0.01864942733654469
7.73,7.415549848886236e-08,78.17469651121884,0,60,1.0,6,0.0158752120286786
7.735,4.501406988770349e-08,78.07143803963184,0,60,1.0,6,0.013445600932513959
7.74,0.0,77.98154455767332,0,60,1.0,6,0.011330460180548632
7.745,0.0,77.9037480701592,0,60,1.0,6,0.009499954591981082
7.75,0.0,77.83681473981095,0,60,1.0,6,0.00792505270143405
7.755,0.0,77.7795621471775,0,60,1.0,6,0.006577932874764723
7.76,0.0,77.730872547324,0,60,1.0,6,0.005432295231152881
7.765,0.0,77.68970241993146,0,60,1.0,6,0.0044635863513285716
7.77,0.0,77.65508867876439,0,60,1.0,6,0.0036491453826914388
7.775,0.0,77.62615195063168,0,60,1.0,6,0.002968281191333651
7.78,0.0,77.60209735548692,0,60,1.0,6,0.0024022907173392627
7.785,0.0,77.58221322128246,0,60,1.0,6,0.001934428736057846
7.79,0.0,77.56586815304183,0,60,1.0,6,0.001549838895101964
7.795,0.0,77.5525068488899,0,60,1.0,6,0.0012354552679977695
7.8,0.0,77.54164501992928,0,60,1.0,6,0.0009798828218653371
7.805,0.0,77.53286372908609,0,60,1.0,6,0.0007732642137903119
7.81,0.0,77.52580341921859,0,60,1.0,6,0.0006071392757315366
7.815,0.0,77.5201578553129,0,60,1.0,6,0.0004743024779506467
7.82,0.0,77.51566816144691,0,60,1.0,6,0.0003686626222802528
7.825,0.0,77.51211709188321,0,60,1.0,6,0.0002851080443108725
7.83,0.0,77.50932363821491,0,60,1.0,6,0.0002193797227037334
7.835,0.0,77.50713804159365,0,60,1.0,6,0.00016795391985056086
7.84,0.0,77.50543725103012,0,60,1.0,6,0.00012793531835567966
7.845,0.0,77.5041208456039,0,60,1.0,6,9.69610730327772e-05
7.85,0.0,77.5031074199587,0,60,1.0,6,7.311576373400813e-05
7.855,0.0,77.50233141833475,0,60,1.0,6,5.485690199407145e-05
7.86,0.0,77.50174039213948,0,60,1.0,6,4.095040328192066e-05
7.865,0.0,77.501292649158,0,60,1.0,6,3.0415274305957664e-05
7.87,0.0,77.50095525841263,0,60,1.0,6,2.2476668532496712e-05
7.875,0.0,77.50070237286243,0,60,1.0,6,1.6526420292580843e-05
7.88,0.0,77.50051383209139,0,60,1.0,6,1.2090166856135992e-05
7.885,0.0,77.50037400841595,0,60,1.0,6,8.800198022259686e-06
7.89,0.0,77.50027086205799,0,60,1.0,6,6.37322489383758e-06
7.895,0.0,77.50019517384675,0,60,1.0,6,4.5923258058417775e-06
7.9,0.0,77.50013992706306,0,60,1.0,6,3.292401483764372e-06
7.905,0.0,77.50009981331155,0,60,1.0,6,2.348548507063028e-06
7.91,0.0,77.5000708405394,0,60,1.0,6,1.6668362210272307e-06
7.915,0.0,77.50005002440169,0,60,1.0,6,1.177044745592117e-06
7.92,0.0,77.50003514702703,0,60,1.0,6,8.269888714012803e-07
7.925,0.0,77.50002456981785,0,60,1.0,6,5.781133612505501e-07
7.93,0.0,77.50001708920767,0,60,1.0,6,4.0209900409054705e-07
7.935,0.0,77.50001182629116,0,60,1.0,6,2.782656742831879e-07
7.94,0.001684486749771458,77.50000814295163,0,60,1.0,6,1.9159886184805894e-07
7.945,0.003097557930867117,77.50000557855593,0,60,1.0,6,1.312601394896346e-07
7.95,0.005475106668887023,77.5000038024926,0,60,1.0,6,8.947041411535312e-08
7.955,0.00930222931468658,77.50000257882347,0,60,1.0,6,6.067819928081436e-08
7.96,0.01519157517868857,77.5000017401292,0,60,1.0,6,4.0944216634135744e-08
7.965,0.023847336626128316,77.50000116828292,0,60,1.0,6,2.748900990755989e-08
7.97,0.0359830743700859,77.50000078040709,0,60,1.0,6,1.836251980795864e-08
7.975,0.05218887796857759,77.50000051868184,0,60,1.0,6,1.220427868568496e-08
7.98,0.0727577001223134,77.50000034299478,0,60,1.0,6,8.070465435808086e-09
7.985,0.0974992498694751,77.50000022567355,0,60,1.0,6,5.3099657794946855e-09
7.99,0.12558706050443358,77.50000014773399,0,60,1.0,6,3.4760937657719136e-09
7.995,0.15549263588878245,77.50000009622477,0,60,1.0,6,2.2641121605000295e-09
8.0,0.1850529723539114,77.5000000623591,0,60,1.0,6,1.4672730899559718e-09
8.005,0.21169159439317053,77.50000004020866,0,60,1.0,6,9.460861479858388e-10
8.01,0.23277292922115492,77.50000002579563,0,60,1.0,6,6.069559704508933e-10
8.015,0.24602692519491282,77.50000001646566,0,60,1.0,6,3.874273555565571e-10
8.02,0.24995056064839283,77.50000001045728,0,60,1.0,6,2.460537603731021e-10
8.025,0.24408826520424054,77.50000000660792,0,60,1.0,6,1.5548045987944693e-10
8.03,0.22911894216865275,77.50000000415449,0,60,1.0,6,9.775262429577518e-11
8.035,0.20672661788705934,77.50000000259882,0,60,1.0,6,6.114880627993604e-11
8.04,0.17928878030241233,77.5000000016175,0,60,1.0,6,3.80586751656237e-11
8.045,0.14946211903866036,77.50000000100165,0,60,1.0,6,2.356828457884737e-11
8.05,0.1197651512573837,77.50000000061716,0,60,1.0,6,1.4521487280623714e-11
8.055,0.09224675744988023,77.50000000037834,0,60,1.0,6,8.902013766654657e-12
8.06,0.06829565320281596,77.50000000023077,0,60,1.0,6,5.4298839934156554e-12
8.065,0.04860224607515734,77.50000000014005,0,60,1.0,6,3.2952464286662528e-12
8.07,0.03324612389699793,77.50000000008457,0,60,1.0,6,1.989854033180403e-12
8.075,0.021859876340472782,77.5000000000508,0,60,1.0,6,1.1953836613375804e-12
8.08,0.01381595518554205,77.50000000003037,0,60,1.0,6,7.14555212385569e-13
8.085,0.008394095110402422,77.50000000001806,0,60,1.0,6,4.249881492475705e-13
8.09,0.0049052535271608,77.50000000001069,0,60,1.0,6,2.514485351960449e-13
8.095,0.0027671663551903634,77.5000000000063,0,60,1.0,6,1.4812726209022324e-13
8.1,0.0015425553464444616,77.50000000000368,0,60,1.0,6,8.660262049970162e-14
8.105,0.0009638206637011801,77.50000000000215,0,60,1.0,6,5.049033087048241e-14
8.11,0.0009804935156568228,77.50000000000125,0,60,1.0,6,2.942482858677121e-14
8.115,0.0018793744894085216,77.50000000000072,0,60,1.0,6,1.7053025658242404e-14
8.12,0.004535525206900863,77.50000000000041,0,60,1.0,6,9.696818511549603e-15
8.125,0.010832767979632273,77.50000000000024,0,60,1.0,6,5.684341886080802e-15
8.13,0.024208003392322392,77.50000000000013,0,60,1.0,6,3.0093574691016007e-15
8.135,0.0500971897335304,77.50000000000007,0,60,1.0,6,1.6718652606120004e-15
8.14,0.09582894921774403,77.50000000000004,0,60,1.0,6,1.0031191563672002e-15
8.145,0.16937896721820658,77.50000000000003,0,60,1.0,6,6.687461042448002e-16
8.15,0.27661303008991756,77.50000000000001,0,60,1.0,6,3.343730521224001e-16
8.155,0.4173782800009149,77.5,0,60,1.0,6,0.0
8.16,0.5818720934538056,77.5,0,60,1.0,6,0.0
8.165,0.7494718801585675,77.5,0,60,1.0,6,0.0
8.17,0.891813020752378,77.5,0,60,1.0,6,0.0
8.175,0.9800361632936612,77.5,0,60,1.0,6,0.0
8.18,0.993574479225126,77.50000249379623,1,60,1.0,6,5.8677558372972485e-08
8.185,0.9263438449375362,77.5000037873591,0,60,1.0,6,8.911433189282167e-08
8.19,0.7873015962290536,77.50000586643203,0,60,1.0,6,1.3803369490554305e-07
8.195,0.5959516244629897,77.50000936112565,0,60,1.0,6,2.202617799733108e-07
8.2,0.376910120078773,77.50001553885947,0,60,1.0,6,3.656202228713108e-07
8.205,0.15739335672107918,77.5000269987902,0,60,1.0,6,6.352656518682873e-07
8.21,-0.033361226269301235,77.50004909538588,0,60,1.0,6,1.1551855500195362e-06
8.215,-0.1680180840843834,77.5000927881157,0,60,1.0,6,2.1832497810357704e-06
8.22,-0.23069703190837854,77.50018019691618,0,60,1.0,6,4.239927439437665e-06
8.225,-0.22587267821131068,77.50035512985896,0,60,1.0,6,8.355996681409712e-06
8.23,-0.17718181630665902,77.50070244716376,0,60,1.0,6,1.652816855907451e-05
8.235,-0.11494332516451301,77.50138258743117,0,60,1.0,6,3.253146896862049e-05
8.24,-0.061810214049552864,77.50269116678194,0,60,1.0,6,6.332157133984391e-05
8.245,-0.026546104631500547,77.50515844333034,0,60,1.0,6,0.00012137513718458007
8.25,-0.00719600351942686,77.50970954477438,0,60,1.0,6,0.00022845987704426187
8.255,0.0022072757983807078,77.5179131238936,0,60,1.0,6,0.00042148526808486006
8.26,0.006917199873730717,77.5323521823347,0,60,1.0,6,0.0007612278196401188
8.265,0.01004859748264829,77.55715374596484,0,60,1.0,6,0.0013447940227021102
8.27,0.013037082251128167,77.59871019466716,0,60,1.0,6,0.0023225928156979507
8.275,0.01645163937690478,77.66660957566988,0,60,1.0,6,0.00392022530987955
8.28,0.020526639934696615,77.77476004056273,0,60,1.0,6,0.006464942130887654
8.285,0.02539629541761738,77.94264063456316,0,60,1.0,6,0.01041507375442734
8.29,0.031171612185577933,78.1965363540429,0,60,1.0,6,0.016389090683362476
8.295,0.03795853426638131,78.57052498893353,0,60,1.0,6,0.025188823269024184
8.3,0.0458588961882057,79.10689048440082,0,60,1.0,6,0.03780918786825463
8.305,0.054966995891435555,79.85556550877875,0,60,1.0,6,0.05542507079479418
8.31,0.06536491004445595,80.87218550073672,0,60,1.0,6,0.07934554119380517
8.315,0.07711726085088699,82.21440106636989,0,60,1.0,6,0.1109270839145856
8.32,0.09026570629555215,83.93627195484723,0,60,1.0,6,0.1514416930552289
8.325,0.10482339848670268,86.08086244957394,0,60,1.0,6,0.20190264587232806
8.33,0.12076968927580028,88.67155390032357,0,60,1.0,6,0.2628600917723194
8.335,0.13804539501007884,91.70302829420208,0,60,1.0,6,0.33418890104004906
8.34,0.15654895051787066,95.13326660856461,0,60,1.0,6,0.41490039078975555
8.345,0.17613378141900526,98.87813714204108,0,60,1.0,6,0.5030149915774372
8.35,0.19660720058055794,102.81011793964564,0,60,1.0,6,0.5955321868151915
8.355,0.21773108748496234,106.76233734752944,0,60,1.0,6,0.6885255846477515
8.36,0.23922453870058807,110.53842825599659,0,60,1.0,6,0.7773747824940375
8.365,0.2607685857914563,113.92775900036906,0,60,1.0,6,0.8571237411851544
8.37,0.2820129681603682,116.72459033287774,0,60,1.0,6,0.9229315372441821
8.375,0.30258482867153996,118.74882595036786,0,60,1.0,6,0.9705606105968908
8.38,0.3220990771751686,119.8654865137496,0,60,1.0,6,0.9968349767941083
8.385,0.3401700499968971,120.0,0,60,1.0,6,1.0
8.39,0.3564239911198326,119.1469163744074,0,60,1.0,6,0.9799274441037035
8.395,0.3705118017738417,117.37064685570721,0,60,1.0,6,0.9381328671931107
8.4,0.3821214567925213,114.79810695801649,0,60,1.0,6,0.8776025166592115
8.405,0.39098947374066967,111.60444632346429,0,60,1.0,6,0.8024575605521009
8.41,0.3969108472035567,107.99410915756765,0,60,1.0,6,0.7175084507662977
8.415,0.3997469255491936,104.18007944020901,0,60,1.0,6,0.6277665750637414
8.42,0.3994308076379137,100.36422724801442,0,60,1.0,6,0.5379818176003391
8.425,0.3959699661768434,96.7212161790668,0,60,1.0,6,0.45226391009568945
8.43,0.38944595408114946,93.38759728931282,0,60,1.0,6,0.3738258185720664
8.435,0.38001120995358023,90.45670883537264,0,60,1.0,7,0.3048637373028856
8.44,0.3678831374098315,87.9790401462504,0,60,1.0,7,0.24656565050000936
8.445,0.35333577933796634,85.96697701419116,0,60,1.0,7,0.19922298856920373
8.45,0.33668953221163944,84.4024246438112,0,60,1.0,7,0.1624099916190871
8.455,0.3182994390982644,83.24571739115189,0,60,1.0,7,0.13519335038004435
8.46,0.29854265738230645,82.44441592118244,0,60,1.0,7,0.11633919814546917
8.465,0.2778057157821067,81.94096223704659,0,60,1.0,7,0.10449322910697861
8.47,0.2564721553719815,81.67860013199362,0,60,1.0,7,0.09832000310573222
8.475,0.23491109433464996,81.6053774632043,0,60,1.0,7,0.09659711678127779
8.48,0.21346717185309805,81.67636369433883,0,60,1.0,7,0.09826738104326664
8.485,0.19245222055656455,81.85441421730658,0,60,1.0,7,0.10245680511309609
8.49,0.17213889801761392,82.10989597948169,0,60,1.0,7,0.10846814069368688
8.495,0.15275638501270183,82.4197812649522,0,60,1.0,7,0.11575955917534603
8.5,0.13448814019607322,82.76645106571821,0,60,1.0,7,0.123916495663958
8.505,0.11747159495449566,83.13645818712642,0,60,1.0,7,0.13262254557944522
8.51,0.10179958433370105,83.51940780368162,0,60,1.0,7,0.1416331247925086
8.515,0.08752324394101413,83.90703501007195,0,60,1.0,7,0.15075376494286943
8.52,0.07465606047174059,84.29250168132002,0,60,1.0,7,0.15982356897223574
8.525,0.0631787448609295,84.66989887994485,0,60,1.0,7,0.16870350305752596
8.53,0.05304460019959574,85.03392255252196,0,60,1.0,7,0.1772687659416931
8.535,0.044185078305849994,85.37968430795249,0,60,1.0,7,0.1854043366577056
8.54,0.03651525513023255,85.70262077560254,0,60,1.0,7,0.1930028417788833
8.545,0.0299390014708757,85.99847050884269,0,60,1.0,7,0.19996401197276908
8.55,0.024353677220580638,86.26329398177421,0,60,1.0,7,0.2061951525123344
8.555,0.01965423034339045,86.49351840681324,0,60,1.0,7,0.21161219780737028
8.56,0.015736632374757337,86.68599420541278,0,60,1.0,7,0.2161410401273596
8.565,0.012500627640593535,86.83805385632725,0,60,1.0,7,0.2197189142665235
8.57,0.009851811652115898,86.94756666863884,0,60,1.0,7,0.22229568632091393
8.575,0.007703084175428559,87.01298502755421,0,60,1.0,7,0.2238349418248049
8.58,0.005975544002062424,87.03337908862481,0,60,1.0,7,0.2243148020852897
8.585,0.004598905818663047,87.0084579536151,0,60,1.0,7,0.2237284224380025
8.59,0.0035115256454839104,86.938576193165,0,60,1.0,7,0.22208414572152954
8.595,0.002660121266303676,86.82472527864306,0,60,1.0,7,0.2194053006739543
8.6,0.0019992692560877024,86.66851009780702,0,60,1.0,7,0.21572964936016506
8.605,0.0014907520044639367,86.47211127728372,0,60,1.0,7,0.2111085006419698
8.61,0.0011028178277539807,86.23823452311164,0,60,1.0,7,0.2056055181908622
8.615,0.0008094059938923333,85.97004861293706,0,60,1.0,7,0.19929526148087207
8.62,0.0005893771793717645,85.67111402048207,0,60,1.0,7,0.19226150636428388
8.625,0.0004257792353490551,85.34530441514248,0,60,1.0,7,0.18459539800335245
8.63,0.0003051686392901525,84.99672344980459,0,60,1.0,7,0.1763934929365786
8.635,0.00021699992642659966,84.62961932448681,0,60,1.0,7,0.16775574881145436
8.64,0.00015308884054097838,84.248299592624,0,60,1.0,7,0.15878351982644692
8.645,0.00010714989329311098,83.85704856531288,0,60,1.0,7,0.14957761330147953
8.65,7.440535854020571e-05,83.4600494751478,0,60,1.0,7,0.14023645823877173
8.655,5.1260276743925106e-05,83.06131329728954,0,60,1.0,7,0.13085443052445986
8.66,3.503659887882241e-05,82.66461580565927,0,60,1.0,7,0.1215203718978651
8.665,2.375894748103639e-05,82.2734440829479,0,60,1.0,7,0.1123163313634801
8.67,1.5984413869232557e-05,81.89095332165515,0,60,1.0,7,0.10331654874482699
8.675,1.0669166579899869e-05,81.51993436674516,0,60,1.0,7,0.0945866909822391
8.68,7.06526633560511e-06,81.16279207494762,0,60,1.0,7,0.08618334293994394
8.685,4.641847214699205e-06,80.82153421580314,0,60,1.0,7,0.07815374625419154
8.69,3.025641074479182e-06,80.49777032755243,0,60,1.0,7,0.07053577241299837
8.695,1.9566278676921314e-06,80.19271967649756,0,60,1.0,7,0.06335811003523671
8.7,1.2553456560008793e-06,79.9072272581673,0,60,1.0,7,0.05664064136864226
8.705,7.990660428214668e-07,79.64178662610968,0,60,1.0,7,0.05039497943787477
8.71,5.046221251618276e-07,79.39656824009577,0,60,1.0,7,0.04462513506107705
8.715,3.1616527078858815e-07,79.17145198793789,0,60,1.0,7,0.03932828206912672
8.72,1.9652884407760343e-07,78.96606254967222,0,60,1.0,7,0.034495589404052146
8.725,1.2120002189836396e-07,78.77980633332653,0,60,1.0,7,0.03011309019591843
8.73,7.415549848886236e-08,78.61190881032023,0,60,1.0,7,0.026162560242828946
8.735,4.501406988770349e-08,78.46145120731774,0,60,1.0,7,0.022622381348652625
8.74,0.0,78.32740566133431,0,60,1.0,7,0.019468368501983777
8.745,0.0,78.20866810746416,0,60,1.0,7,0.016674543705039135
8.75,0.0,78.10408833568827,0,60,1.0,7,0.014213843192665282
8.755,0.0,78.01249681760311,0,60,1.0,7,0.012058748649484882
8.76,0.0,77.93272805946427,0,60,1.0,7,0.010181836693276877
8.765,0.0,77.86364037977026,0,60,1.0,7,0.008556244229888467
8.77,0.0,77.80413213413297,0,60,1.0,7,0.007156050214893426
8.775,0.0,77.75315451508283,0,60,1.0,7,0.005956576825478271
8.78,0.0,77.70972113863759,0,60,1.0,7,0.004934615026766832
8.785,0.0,77.67291469288736,0,60,1.0,7,0.004068581009114362
8.79,0.0,77.6418909673889,0,60,1.0,7,0.0033386109973859595
8.795,0.0,77.61588060740796,0,60,1.0,7,0.0027266025272461
8.8,0.0,77.59418894611207,0,60,1.0,7,0.002216210496754577
8.805,0.0,77.57619426314615,0,60,1.0,7,0.0017928061916741038
8.81,0.0,77.56134480222934,0,60,1.0,7,0.001443407111278649
8.815,0.0,77.54915485611353,0,60,1.0,7,0.001156584849730159
