Time,ECG,Pressure,R_Peaks,mean_hr,hrv_scale,Phase_Bin,Normalized_Pressure
0.0,0.001684486749771458,77.5,0,60,1.0,0,0.0
0.005,0.003097557930867117,77.5,0,60,1.0,0,0.0
0.01,0.005475106668887023,77.5,0,60,1.0,0,0.0
0.015,0.00930222931468658,77.5,0,60,1.0,0,0.0
0.02,0.01519157517868857,77.5,0,60,1.0,0,0.0
0.025,0.023847336626128316,77.5,0,60,1.0,0,0.0
0.03,0.0359830743700859,77.5,0,60,1.0,0,0.0
0.035,0.05218887796857759,77.5,0,60,1.0,0,0.0
0.04,0.0727577001223134,77.5,0,60,1.0,0,0.0
0.045,0.0974992498694751,77.5,0,60,1.0,0,0.0
0.05,0.12558706050443358,77.5,0,60,1.0,0,0.0
0.055,0.15549263588878245,77.5,0,60,1.0,0,0.0
0.06,0.1850529723539114,77.5,0,60,1.0,0,0.0
0.065,0.21169159439317053,77.5,0,60,1.0,0,0.0
0.07,0.23277292922115492,77.5,0,60,1.0,0,0.0
0.075,0.24602692519491282,77.5,0,60,1.0,0,0.0
0.08,0.24995056064839283,77.5,0,60,1.0,0,0.0
0.085,0.24408826520424054,77.5,0,60,1.0,0,0.0
0.09,0.22911894216865275,77.5,0,60,1.0,0,0.0
0.095,0.20672661788705934,77.5,0,60,1.0,0,0.0
0.1,0.17928878030241233,77.5,0,60,1.0,0,0.0
0.105,0.14946211903866036,77.5,0,60,1.0,0,0.0
0.11,0.1197651512573837,77.5,0,60,1.0,0,0.0
0.115,0.09224675744988023,77.5,0,60,1.0,0,0.0
0.12,0.06829565320281596,77.5,0,60,1.0,0,0.0
0.125,0.04860224607515734,77.5,0,60,1.0,0,0.0
0.13,0.03324612389699793,77.5,0,60,1.0,0,0.0
0.135,0.021859876340472782,77.5,0,60,1.0,0,0.0
0.14,0.01381595518554205,77.5,0,60,1.0,0,0.0
0.145,0.008394095110402422,77.5,0,60,1.0,0,0.0
0.15,0.0049052535271608,77.5,0,60,1.0,0,0.0
0.155,0.0027671663551903634,77.5,0,60,1.0,0,0.0
0.16,0.0015425553464444616,77.5,0,60,1.0,0,0.0
0.165,0.0009638206637011801,77.5,0,60,1.0,0,0.0
0.17,0.0009804935156568228,77.5,0,60,1.0,0,0.0
0.175,0.0018793744894085216,77.5,0,60,1.0,0,0.0
0.18,0.004535525206900863,77.5,0,60,1.0,0,0.0
0.185,0.010832767979632273,77.5,0,60,1.0,0,0.0
0.19,0.024208003392322392,77.5,0,60,1.0,0,0.0
0.195,0.0500971897335304,77.5,0,60,1.0,0,0.0
0.2,0.09582894921774403,77.5,0,60,1.0,0,0.0
0.205,0.16937896721820658,77.5,0,60,1.0,0,0.0
0.21,0.27661303008991756,77.5,0,60,1.0,0,0.0
0.215,0.4173782800009149,77.5,0,60,1.0,0,0.0
0.22,0.5818720934538056,77.5,0,60,1.0,0,0.0
0.225,0.7494718801585675,77.5,0,60,1.0,0,0.0
0.23,0.891813020752378,77.5,0,60,1.0,0,0.0
0.235,0.9800361632936612,77.5,0,60,1.0,0,0.0
0.24,0.993574479225126,77.5,0,60,1.0,0,0.0
0.245,0.9263438449375362,77.5,0,60,1.0,0,0.0
0.25,0.7873015962290536,77.5,0,60,1.0,0,0.0
0.255,0.5959516244629897,77.5,0,60,1.0,0,0.0
0.26,0.376910120078773,77.5,0,60,1.0,0,0.0
0.265,0.15739335672107918,77.5,0,60,1.0,0,0.0
0.27,-0.033361226269301235,77.5,0,60,1.0,0,0.0
0.275,-0.1680180840843834,77.5,0,60,1.0,0,0.0
0.28,-0.23069703190837854,77.5,0,60,1.0,0,0.0
0.285,-0.22587267821131068,77.5,0,60,1.0,0,0.0
0.29,-0.17718181630665902,77.5,0,60,1.0,0,0.0
0.295,-0.11494332516451301,77.5,0,60,1.0,0,0.0
0.3,-0.061810214049552864,77.5,0,60,1.0,0,0.0
0.305,-0.026546104631500547,77.5,0,60,1.0,0,0.0
0.31,-0.00719600351942686,77.5,0,60,1.0,0,0.0
0.315,0.0022072757983807078,77.5,0,60,1.0,0,0.0
0.32,0.006917199873730717,77.5,0,60,1.0,0,0.0
0.325,0.01004859748264829,77.5,0,60,1.0,0,0.0
0.33,0.013037082251128167,77.5,0,60,1.0,0,0.0
0.335,0.01645163937690478,77.5,0,60,1.0,0,0.0
0.34,0.020526639934696615,77.5,0,60,1.0,0,0.0
0.345,0.02539629541761738,77.5,0,60,1.0,0,0.0
0.35,0.031171612185577933,77.5,0,60,1.0,0,0.0
0.355,0.03795853426638131,77.5,0,60,1.0,0,0.0
0.36,0.0458588961882057,77.5,0,60,1.0,0,0.0
0.365,0.054966995891435555,77.5,0,60,1.0,0,0.0
0.37,0.06536491004445595,77.5,0,60,1.0,0,0.0
0.375,0.07711726085088699,77.5,0,60,1.0,0,0.0
0.38,0.09026570629555215,77.5,0,60,1.0,0,0.0
0.385,0.10482339848670268,77.5,0,60,1.0,0,0.0
0.39,0.12076968927580028,77.5,0,60,1.0,0,0.0
0.395,0.13804539501007884,77.5,0,60,1.0,0,0.0
0.4,0.15654895051787066,77.5,0,60,1.0,0,0.0
0.405,0.17613378141900526,77.5,0,60,1.0,0,0.0
0.41,0.19660720058055794,77.5,0,60,1.0,0,0.0
0.415,0.21773108748496234,77.5,0,60,1.0,0,0.0
0.42,0.23922453870058807,77.5,0,60,1.0,0,0.0
0.425,0.2607685857914563,77.5,0,60,1.0,0,0.0
0.43,0.2820129681603682,77.5,0,60,1.0,0,0.0
0.435,0.30258482867153996,77.5,0,60,1.0,0,0.0
0.44,0.3220990771751686,77.5,0,60,1.0,0,0.0
0.445,0.3401700499968971,77.5,0,60,1.0,0,0.0
0.45,0.3564239911198326,77.5,0,60,1.0,0,0.0
0.455,0.3705118017738417,77.5,0,60,1.0,0,0.0
0.46,0.3821214567925213,77.5,0,60,1.0,0,0.0
0.465,0.39098947374066967,77.5,0,60,1.0,0,0.0
0.47,0.3969108472035567,77.5,0,60,1.0,0,0.0
0.475,0.3997469255491936,77.5,0,60,1.0,0,0.0
0.48,0.3994308076379137,77.5,0,60,1.0,0,0.0
0.485,0.3959699661768434,77.5,0,60,1.0,0,0.0
0.49,0.38944595408114946,77.5,0,60,1.0,0,0.0
0.495,0.38001120995358023,77.5,0,60,1.0,0,0.0
0.5,0.3678831374098315,77.5,0,60,1.0,0,0.0
0.505,0.35333577933796634,77.5,0,60,1.0,0,0.0
0.51,0.33668953221163944,77.5,0,60,1.0,0,0.0
0.515,0.3182994390982644,77.5,0,60,1.0,0,0.0
0.52,0.29854265738230645,77.5,0,60,1.0,0,0.0
0.525,0.2778057157821067,77.5,0,60,1.0,0,0.0
0.53,0.2564721553719815,77.5,0,60,1.0,0,0.0
0.535,0.23491109433464996,77.5,0,60,1.0,0,0.0
0.54,0.21346717185309805,77.5,0,60,1.0,0,0.0
0.545,0.19245222055656455,77.5,0,60,1.0,0,0.0
0.55,0.17213889801761392,77.5,0,60,1.0,0,0.0
0.555,0.15275638501270183,77.5,0,60,1.0,0,0.0
0.56,0.13448814019607322,77.5,0,60,1.0,0,0.0
0.565,0.11747159495449566,77.5,0,60,1.0,0,0.0
0.57,0.10179958433370105,77.5,0,60,1.0,0,0.0
0.575,0.08752324394101413,77.5,0,60,1.0,0,0.0
0.58,0.07465606047174059,77.5,0,60,1.0,0,0.0
0.585,0.0631787448609295,77.5,0,60,1.0,0,0.0
0.59,0.05304460019959574,77.5,0,60,1.0,0,0.0
0.595,0.044185078305849994,77.5,0,60,1.0,0,0.0
0.6,0.03651525513023255,77.5,0,60,1.0,0,0.0
0.605,0.0299390014708757,77.5,0,60,1.0,0,0.0
0.61,0.024353677220580638,77.5,0,60,1.0,0,0.0
0.615,0.01965423034339045,77.5,0,60,1.0,0,0.0
0.62,0.015736632374757337,77.5,0,60,1.0,0,0.0
0.625,0.012500627640593535,77.5,0,60,1.0,0,0.0
0.63,0.009851811652115898,77.5,0,60,1.0,0,0.0
0.635,0.007703084175428559,77.5,0,60,1.0,0,0.0
0.64,0.005975544002062424,77.5,0,60,1.0,0,0.0
0.645,0.004598905818663047,77.5,0,60,1.0,0,0.0
0.65,0.0035115256454839104,77.5,0,60,1.0,0,0.0
0.655,0.002660121266303676,77.5,0,60,1.0,0,0.0
0.66,0.0019992692560877024,77.5,0,60,1.0,0,0.0
0.665,0.0014907520044639367,77.5,0,60,1.0,0,0.0
0.67,0.0011028178277539807,77.5,0,60,1.0,0,0.0
0.675,0.0008094059938923333,77.5,0,60,1.0,0,0.0
0.68,0.0005893771793717645,77.5,0,60,1.0,0,0.0
0.685,0.0004257792353490551,77.5,0,60,1.0,0,0.0
0.69,0.0003051686392901525,77.5,0,60,1.0,0,0.0
0.695,0.00021699992642659966,77.5,0,60,1.0,0,0.0
0.7,0.00015308884054097838,77.5,0,60,1.0,0,0.0
0.705,0.00010714989329311098,77.5,0,60,1.0,0,0.0
0.71,7.440535854020571e-05,77.5,0,60,1.0,0,0.0
0.715,5.1260276743925106e-05,77.5,0,60,1.0,0,0.0
0.72,3.503659887882241e-05,77.5,0,60,1.0,0,0.0
0.725,2.375894748103639e-05,77.5,0,60,1.0,0,0.0
0.73,1.5984413869232557e-05,77.5,0,60,1.0,0,0.0
0.735,1.0669166579899869e-05,77.5,0,60,1.0,0,0.0
0.74,7.06526633560511e-06,77.5,0,60,1.0,0,0.0
0.745,4.641847214699205e-06,77.5,0,60,1.0,0,0.0
0.75,3.025641074479182e-06,77.5,0,60,1.0,0,0.0
0.755,1.9566278676921314e-06,77.5,0,60,1.0,0,0.0
0.76,1.2553456560008793e-06,77.5,0,60,1.0,0,0.0
0.765,7.990660428214668e-07,77.5,0,60,1.0,0,0.0
0.77,5.046221251618276e-07,77.5,0,60,1.0,0,0.0
0.775,3.1616527078858815e-07,77.5,0,60,1.0,0,0.0
0.78,1.9652884407760343e-07,77.5,0,60,1.0,0,0.0
0.785,1.2120002189836396e-07,77.5,0,60,1.0,0,0.0
0.79,7.415549848886236e-08,77.5,0,60,1.0,0,0.0
0.795,4.501406988770349e-08,77.5,0,60,1.0,0,0.0
0.8,0.0,77.5,0,60,1.0,0,0.0
0.805,0.0,77.5,0,60,1.0,0,0.0
0.81,0.0,77.5,0,60,1.0,0,0.0
0.815,0.0,77.5,0,60,1.0,0,0.0
0.82,0.0,77.5,0,60,1.0,0,0.0
0.825,0.0,77.5,0,60,1.0,0,0.0
0.83,0.0,77.5,0,60,1.0,0,0.0
0.835,0.0,77.5,0,60,1.0,0,0.0
0.84,0.0,77.5,0,60,1.0,0,0.0
0.845,0.0,77.5,0,60,1.0,0,0.0
0.85,0.0,77.5,0,60,1.0,0,0.0
0.855,0.0,77.5,0,60,1.0,0,0.0
0.86,0.0,77.5,0,60,1.0,0,0.0
0.865,0.0,77.5,0,60,1.0,0,0.0
0.87,0.0,77.5,0,60,1.0,0,0.0
0.875,0.0,77.5,0,60,1.0,0,0.0
0.88,0.0,77.5,0,60,1.0,0,0.0
0.885,0.0,77.5,0,60,1.0,0,0.0
0.89,0.0,77.5,0,60,1.0,0,0.0
0.895,0.0,77.5,0,60,1.0,0,0.0
0.9,0.0,77.5,0,60,1.0,0,0.0
0.905,0.0,77.5,0,60,1.0,0,0.0
0.91,0.0,77.5,0,60,1.0,0,0.0
0.915,0.0,77.5,0,60,1.0,0,0.0
0.92,0.0,77.5,0,60,1.0,0,0.0
0.925,0.0,77.5,0,60,1.0,0,0.0
0.93,0.0,77.5,0,60,1.0,0,0.0
0.935,0.0,77.5,0,60,1.0,0,0.0
0.94,0.0,77.5,0,60,1.0,0,0.0
0.945,0.0,77.5,0,60,1.0,0,0.0
0.95,0.0,77.5,0,60,1.0,0,0.0
0.955,0.0,77.5,0,60,1.0,0,0.0
0.96,0.0,77.5,0,60,1.0,0,0.0
0.965,0.0,77.5,0,60,1.0,0,0.0
0.97,0.0,77.5,0,60,1.0,0,0.0
0.975,0.0,77.5,0,60,1.0,0,0.0
0.98,0.0,77.5,0,60,1.0,0,0.0
0.985,0.0,77.5,0,60,1.0,0,0.0
0.99,0.0,77.5,0,60,1.0,0,0.0
0.995,0.0,77.5,0,60,1.0,0,0.0
1.0,0.0,77.5,0,60,1.0,0,0.0
1.005,0.0,77.5,0,60,1.0,0,0.0
1.01,0.0,77.5,0,60,1.0,0,0.0
1.015,0.0,77.5,0,60,1.0,0,0.0
1.02,0.001684486749771458,77.5,0,60,1.0,0,0.0
1.025,0.003097557930867117,77.5,0,60,1.0,0,0.0
1.03,0.005475106668887023,77.5,0,60,1.0,0,0.0
1.035,0.00930222931468658,77.5,0,60,1.0,0,0.0
1.04,0.01519157517868857,77.5,0,60,1.0,0,0.0
1.045,0.023847336626128316,77.5,0,60,1.0,0,0.0
1.05,0.0359830743700859,77.5,0,60,1.0,0,0.0
1.055,0.05218887796857759,77.5,0,60,1.0,0,0.0
1.06,0.0727577001223134,77.5,0,60,1.0,0,0.0
1.065,0.0974992498694751,77.5,0,60,1.0,0,0.0
1.07,0.12558706050443358,77.5,0,60,1.0,0,0.0
1.075,0.15549263588878245,77.5,0,60,1.0,0,0.0
1.08,0.1850529723539114,77.5,0,60,1.0,0,0.0
1.085,0.21169159439317053,77.5,0,60,1.0,0,0.0
1.09,0.23277292922115492,77.5,0,60,1.0,0,0.0
1.095,0.24602692519491282,77.5,0,60,1.0,0,0.0
1.1,0.24995056064839283,77.5,0,60,1.0,0,0.0
1.105,0.24408826520424054,77.5,0,60,1.0,0,0.0
1.11,0.22911894216865275,77.5,0,60,1.0,0,0.0
1.115,0.20672661788705934,77.5,0,60,1.0,0,0.0
1.12,0.17928878030241233,77.5,0,60,1.0,0,0.0
1.125,0.14946211903866036,77.5,0,60,1.0,0,0.0
1.13,0.1197651512573837,77.5,0,60,1.0,0,0.0
1.135,0.09224675744988023,77.5,0,60,1.0,0,0.0
1.14,0.06829565320281596,77.5,0,60,1.0,0,0.0
1.145,0.04860224607515734,77.5,0,60,1.0,0,0.0
1.15,0.03324612389699793,77.5,0,60,1.0,0,0.0
1.155,0.021859876340472782,77.5,0,60,1.0,0,0.0
1.16,0.01381595518554205,77.5,0,60,1.0,0,0.0
1.165,0.008394095110402422,77.5,0,60,1.0,0,0.0
1.17,0.0049052535271608,77.5,0,60,1.0,0,0.0
1.175,0.0027671663551903634,77.5,0,60,1.0,0,0.0
1.18,0.0015425553464444616,77.5,0,60,1.0,0,0.0
1.185,0.0009638206637011801,77.5,0,60,1.0,0,0.0
1.19,0.0009804935156568228,77.5,0,60,1.0,0,0.0
1.195,0.0018793744894085216,77.5,0,60,1.0,0,0.0
1.2,0.004535525206900863,77.5,0,60,1.0,0,0.0
1.205,0.010832767979632273,77.5,0,60,1.0,1,0.0
1.21,0.024208003392322392,77.5,0,60,1.0,1,0.0
1.215,0.0500971897335304,77.5,0,60,1.0,1,0.0
1.22,0.09582894921774403,77.5,0,60,1.0,1,0.0
1.225,0.16937896721820658,77.5,0,60,1.0,1,0.0
1.23,0.27661303008991756,77.5,0,60,1.0,1,0.0
1.235,0.4173782800009149,77.5,0,60,1.0,1,0.0
1.24,0.5818720934538056,77.5,0,60,1.0,1,0.0
1.245,0.7494718801585675,77.5,0,60,1.0,1,0.0
1.25,0.891813020752378,77.5,0,60,1.0,1,0.0
1.255,0.9800361632936612,77.5,0,60,1.0,1,0.0
1.26,0.993574479225126,77.5000024899223,1,60,1.0,1,5.858640694147171e-08
1.265,0.9263438449375362,77.50000376594136,0,60,1.0,1,8.86103848910459e-08
1.27,0.7873015962290536,77.50000580655897,0,60,1.0,1,1.366249170373254e-07
1.275,0.5959516244629897,77.50000921610113,0,60,1.0,1,2.1684943844240265e-07
1.28,0.376910120078773,77.50001520125163,0,60,1.0,1,3.5767650889711684e-07
1.285,0.15739335672107918,77.50002621870189,0,60,1.0,1,6.169106327166339e-07
1.29,-0.033361226269301235,77.5000472946736,0,60,1.0,1,1.1128158495707526e-06
1.295,-0.1680180840843834,77.50008865159667,0,60,1.0,1,2.085919921642819e-06
1.3,-0.23069703190837854,77.50017080335597,0,60,1.0,1,4.018902493432024e-06
1.305,-0.22587267821131068,77.50033416889595,0,60,1.0,1,7.862797551685136e-06
1.31,-0.17718181630665902,77.50065668969144,0,60,1.0,1,1.5451522151512537e-05
1.315,-0.11494332516451301,77.50128514742521,0,60,1.0,1,3.023876294605543e-05
1.32,-0.061810214049552864,77.50248910111931,0,60,1.0,1,5.8567085160214394e-05
1.325,-0.026546104631500547,77.50475076687931,0,60,1.0,1,0.00011178275010145038
1.33,-0.00719600351942686,77.50890971075603,0,60,1.0,1,0.00020964025308303996
1.335,0.0022072757983807078,77.51638746319077,0,60,1.0,1,0.0003855873691945282
1.34,0.006917199873730717,77.52952295821818,0,60,1.0,1,0.0006946578404277742
1.345,0.01004859748264829,77.55205296713095,0,60,1.0,1,0.0012247756971987655
1.35,0.013037082251128167,77.58976923193298,0,60,1.0,1,0.0021122172219523853
1.355,0.01645163937690478,77.65137158913011,0,60,1.0,1,0.0035616844501201767
1.36,0.020526639934696615,77.74950933960535,0,60,1.0,1,0.005870807990714197
1.365,0.02539629541761738,77.90195754734947,0,60,1.0,1,0.009457824643516901
1.37,0.031171612185577933,78.13280954845649,0,60,1.0,1,0.014889636434270414
1.375,0.03795853426638131,78.47348539969117,0,60,1.0,1,0.022905538816262845
1.38,0.0458588961882057,78.96326918151414,0,60,1.0,1,0.03442986309445025
1.385,0.054966995891435555,79.64901532307513,0,60,1.0,1,0.050565066425297255
1.39,0.06536491004445595,80.58363230643764,0,60,1.0,1,0.07255605426912085
1.395,0.07711726085088699,81.82299164268099,0,60,1.0,1,0.10171745041602327
1.4,0.09026570629555215,83.42104740979093,0,60,1.0,1,0.139318762583316
1.405,0.10482339848670268,85.42319949161549,0,60,1.0,1,0.18642822333212922
1.41,0.12076968927580028,87.85828024175694,0,60,1.0,1,0.24372424098251633
1.415,0.13804539501007884,90.72994635140763,0,60,1.0,1,0.31129285532723844
1.42,0.15654895051787066,94.00864020707704,0,60,1.0,1,0.38843859310769496
1.425,0.17613378141900526,97.62555096793857,0,60,1.0,1,0.47354237571620156
1.43,0.19660720058055794,101.4700561076917,0,60,1.0,1,0.5640013201809813
1.435,0.21773108748496234,105.39188588857056,0,60,1.0,1,0.656279667966366
1.44,0.23922453870058807,109.20870606171526,0,60,1.0,1,0.7460872014521238
1.445,0.2607685857914563,112.7190103692385,0,60,1.0,1,0.828682596923259
1.45,0.2820129681603682,115.71928120045192,0,60,1.0,1,0.8992772047165157
1.455,0.30258482867153996,118.02349647615935,0,60,1.0,1,0.9534940347331612
1.46,0.3220990771751686,119.48243235510543,0,60,1.0,1,0.9878219377671866
1.465,0.3401700499968971,120.0,0,60,1.0,1,1.0
1.47,0.3564239911198326,119.54414514623332,0,60,1.0,1,0.989274003440784
1.475,0.3705118017738417,118.15060626577718,0,60,1.0,1,0.9564848533124044
1.48,0.3821214567925213,115.9189340023266,0,60,1.0,1,0.9039749177018022
1.485,0.39098947374066967,113.0014023537604,0,60,1.0,1,0.835327114206127
1.49,0.3969108472035567,109.58654217728734,0,60,1.0,1,0.7549774629949962
1.495,0.3997469255491936,105.87978274020551,0,60,1.0,1,0.6677595938871885
1.5,0.3994308076379137,102.08396338043309,0,60,1.0,1,0.5784461971866609
1.505,0.3959699661768434,98.38225280045256,0,60,1.0,1,0.49134712471653086
1.51,0.38944595408114946,94.92537560220612,0,60,1.0,1,0.41000883769896745
1.515,0.38001120995358023,91.82416132737285,0,60,1.0,1,0.3370390900558317
1.52,0.3678831374098315,89.14749954500232,0,60,1.0,1,0.27405881282358396
1.525,0.35333577933796634,86.92498677093954,0,60,1.0,1,0.2217643946103421
1.53,0.33668953221163944,85.15301231421464,0,60,1.0,1,0.18007087798152083
1.535,0.3182994390982644,83.802800714477,0,60,1.0,1,0.1483011932818118
1.54,0.29854265738230645,82.82898633651617,0,60,1.0,1,0.1253879138003804
1.545,0.2778057157821067,82.17756644157681,0,60,1.0,1,0.11006038686063094
1.55,0.2564721553719815,81.79246348760998,0,60,1.0,1,0.10099914088494068
1.555,0.23491109433464996,81.6203288855974,0,60,1.0,1,0.096948914955233
1.56,0.21346717185309805,81.61356473758555,0,60,1.0,1,0.09678975853142467
1.565,0.19245222055656455,81.73178486073043,0,60,1.0,1,0.09957140848777479
1.57,0.17213889801761392,81.9420707420853,0,60,1.0,1,0.1045193115784778
1.575,0.15275638501270183,82.21841509548847,0,60,1.0,1,0.11102153165855216
1.58,0.13448814019607322,82.54071215799348,0,60,1.0,1,0.11860499195278781
1.585,0.11747159495449566,82.89358016634176,0,60,1.0,1,0.1269077686198062
1.59,0.10179958433370105,83.26521429635454,0,60,1.0,1,0.13565210109069512
1.595,0.08752324394101413,83.64638683025535,0,60,1.0,1,0.14462086659424359
1.6,0.07465606047174059,84.02964611158836,0,60,1.0,1,0.15363873203737324
1.605,0.0631787448609295,84.40872047275327,0,60,1.0,1,0.16255812877066525
1.61,0.05304460019959574,84.77810639599608,0,60,1.0,1,0.1712495622587312
1.615,0.044185078305849994,85.13280774851903,0,60,1.0,1,0.17959547643574184
1.62,0.03651525513023255,85.46819036181611,0,60,1.0,1,0.18748683204273206
1.625,0.0299390014708757,85.77991932370172,0,60,1.0,1,0.1948216311459228
1.63,0.024353677220580638,86.06395196190566,0,60,1.0,1,0.20150475204483903
1.635,0.01965423034339045,86.31656557761202,0,60,1.0,1,0.20744860182616529
1.64,0.015736632374757337,86.53440443454016,0,60,1.0,1,0.21257422198918033
1.645,0.012500627640593535,86.71453489258448,0,60,1.0,1,0.21681258570787015
1.65,0.009851811652115898,86.85450086784542,0,60,1.0,1,0.22010590277283335
1.655,0.007703084175428559,86.95237417392687,0,60,1.0,1,0.22240880409239694
1.66,0.005975544002062424,87.0067959844984,0,60,1.0,1,0.2236893172823152
1.665,0.004598905818663047,87.01700687163441,0,60,1.0,1,0.22392957345022135
1.67,0.0035115256454839104,86.98286378900848,0,60,1.0,1,0.22312620680019946
1.675,0.002660121266303676,86.90484310169278,0,60,1.0,1,0.22129042592218298
1.68,0.0019992692560877024,86.78402938747664,0,60,1.0,1,0.21844775029356792
1.685,0.0014907520044639367,86.62209028632776,0,60,1.0,1,0.21463741850182969
1.69,0.0011028178277539807,86.42123816980182,0,60,1.0,1,0.20991148634827822
1.695,0.0008094059938923333,86.18417984182693,0,60,1.0,1,0.20433364333710427
1.7,0.0005893771793717645,85.91405586012334,0,60,1.0,1,0.1979777849440786
1.705,0.0004257792353490551,85.61437137477117,0,60,1.0,1,0.19092638528873335
1.71,0.0003051686392901525,85.28892060876314,0,60,1.0,1,0.18326872020619142
1.715,0.00021699992642659966,84.94170724870098,0,60,1.0,1,0.17509899408708185
1.72,0.00015308884054097838,84.57686306932412,0,60,1.0,1,0.16651442516056753
1.725,0.00010714989329311098,84.19856708424052,0,60,1.0,1,0.15761334315860054
1.73,7.440535854020571e-05,83.81096740174658,0,60,1.0,1,0.1484933506293313
1.735,5.1260276743925106e-05,83.41810777713161,0,60,1.0,1,0.13924959475603788
1.74,3.503659887882241e-05,83.02386060247123,0,60,1.0,1,0.1299731906463819
1.745,2.375894748103639e-05,82.63186777501524,0,60,1.0,1,0.12074983000035854
1.75,1.5984413869232557e-05,82.24549055077581,0,60,1.0,1,0.11165860119472501
1.755,1.0669166579899869e-05,81.86776913642002,0,60,1.0,1,0.10277103850400053
1.76,7.06526633560511e-06,81.50139241554777,0,60,1.0,1,0.09415040977759458
1.765,4.641847214699205e-06,81.14867785950845,0,60,1.0,1,0.08585124375314007
1.77,3.025641074479182e-06,80.81156135115772,0,60,1.0,1,0.07791909061547579
1.775,1.9566278676921314e-06,80.49159636340788,0,60,1.0,1,0.07039050266842069
1.78,1.2553456560008793e-06,80.18996169166836,0,60,1.0,1,0.0632932162745496
1.785,7.990660428214668e-07,79.90747674623394,0,60,1.0,1,0.05664651167609269
1.79,5.046221251618276e-07,79.64462327056756,0,60,1.0,1,0.05046172401335445
1.795,3.1616527078858815e-07,79.40157226481837,0,60,1.0,1,0.04474287681925576
1.8,1.9652884407760343e-07,79.17821485897923,0,60,1.0,1,0.03948740844657015
1.805,1.2120002189836396e-07,78.97419589290332,0,60,1.0,1,0.034686962185960575
1.81,7.415549848886236e-08,78.78894901536232,0,60,1.0,1,0.030328212126172236
1.815,4.501406988770349e-08,78.62173220460336,0,60,1.0,1,0.0263936989318438
1.82,0.0,78.4716627308444,0,60,1.0,1,0.022862652490456478
1.825,0.0,78.33775071891439,0,60,1.0,1,0.019711781621515122
1.83,0.0,78.21893061897777,0,60,1.0,1,0.016916014564182714
1.835,0.0,78.11409004761917,0,60,1.0,1,0.014449177591039334
1.84,0.0,78.02209561389758,0,60,1.0,1,0.012284602679942977
1.845,0.0,77.94181548966863,0,60,1.0,1,0.010395658580438293
1.85,0.0,77.87213861598158,0,60,1.0,1,0.008756202728978438
1.855,0.0,77.81199055431146,0,60,1.0,1,0.0073409542190932715
1.86,0.0,77.76034609057041,0,60,1.0,1,0.006125790366362547
1.865,0.0,77.7162387801301,0,60,1.0,1,0.0050879712971787765
1.87,0.0,77.67876768333062,0,60,1.0,1,0.00420629843130869
1.875,0.0,77.64710158383804,0,60,1.0,1,0.00346121373736557
1.88,0.0,77.62048100809753,0,60,1.0,1,0.0028348472493535956
1.885,0.0,77.59821837486274,0,60,1.0,1,0.0023110205850056286
1.89,0.0,77.57969660154583,0,60,1.0,1,0.001875214154019619
1.895,0.0,77.56436648127566,0,60,1.0,1,0.0015145054417801287
1.9,0.0,77.55174312345649,0,60,1.0,1,0.0012174852577997546
1.905,0.0,77.54140172358554,0,60,1.0,1,0.0009741582020126316
1.91,0.0,77.53297289723739,0,60,1.0,1,0.0007758328761737817
1.915,0.0,77.52613778034294,0,60,1.0,1,0.0006150065963043637
1.92,0.0,77.52062306478282,0,60,1.0,1,0.0004852485831252927
1.925,0.0,77.51619610618371,0,60,1.0,1,0.0003810848513814883
1.93,0.0,77.51266021065541,0,60,1.0,1,0.0002978873095390982
1.935,0.0,77.50985017975476,0,60,1.0,1,0.00023176893540621408
1.94,0.0,77.50762816866609,0,60,1.0,1,0.00017948632155500544
1.945,0.0,77.50587989168099,0,60,1.0,1,0.0001383503924938957
1.95,0.0,77.50451119158359,0,60,1.0,1,0.0001061456843197394
1.955,0.0,77.50344497539443,0,60,1.0,1,8.105824457482627e-05
1.96,0.0,77.50261850787646,0,60,1.0,1,6.161195003441582e-05
1.965,0.0,77.50198104596413,0,60,1.0,1,4.6612846214804236e-05
1.97,0.0,77.5014917914954,0,60,1.0,1,3.510097636228024e-05
1.975,0.0,77.50111813594486,0,60,1.0,1,2.63090810556284e-05
1.98,0.0,77.50083416890804,0,60,1.0,1,1.962750371864572e-05
1.985,0.0,77.5006194215277,0,60,1.0,1,1.4574624181223578e-05
1.99,0.0,77.50045781656114,0,60,1.0,1,1.0772154379711698e-05
1.995,0.0,77.50033679808233,0,60,1.0,1,7.924660760703345e-06
2.0,0.0,77.50024661564738,0,60,1.0,1,5.802721114926445e-06
2.005,0.0,77.50017973992418,0,60,1.0,1,4.229174686543047e-06
2.01,0.0,77.50013038912986,0,60,1.0,1,3.0679795262291437e-06
2.015,0.0,77.50009414800623,0,60,1.0,1,2.2152472053328573e-06
2.02,0.0,77.50006766339348,0,60,1.0,1,1.5920798465926697e-06
2.025,0.0,77.5000484026712,0,60,1.0,1,1.1388863811134798e-06
2.03,0.0,77.5000344633739,0,60,1.0,1,8.109029151375366e-07
2.035,0.0,77.50002442413327,0,60,1.0,1,5.74685488760117e-07
2.04,0.0,77.50001722873685,0,60,1.0,1,4.053820435621995e-07
2.045,0.0,77.50001209652484,0,60,1.0,1,2.8462411391421267e-07
2.05,0.0,77.50000845358089,0,60,1.0,1,1.9890778563582418e-07
2.055,0.0,77.50000588022185,0,60,1.0,1,1.383581611528772e-07
2.06,0.001684486749771458,77.50000407117355,0,60,1.0,1,9.579231880921083e-08
2.065,0.003097557930867117,77.5000028055527,0,60,1.0,1,6.601300463123206e-08
2.07,0.005475106668887023,77.50000192437696,0,60,1.0,1,4.527945788247641e-08
2.075,0.00930222931468658,77.5000013138167,0,60,1.0,1,3.09133340311639e-08
2.08,0.01519157517868857,77.50000089279615,0,60,1.0,1,2.1006968274698867e-08
2.085,0.023847336626128316,77.50000060386903,0,60,1.0,1,1.4208682962228468e-08
2.09,0.0359830743700859,77.50000040654264,0,60,1.0,1,9.565709165947149e-09
2.095,0.05218887796857759,77.50000027242211,0,60,1.0,1,6.4099320779325135e-09
2.1,0.0727577001223134,77.50000018169858,0,60,1.0,1,4.2752607415048475e-09
2.105,0.0974992498694751,77.50000012062397,0,60,1.0,1,2.8382109629841153e-09
2.11,0.12558706050443358,77.50000007970556,0,60,1.0,1,1.875424887283075e-09
2.115,0.15549263588878245,77.50000005242235,0,60,1.0,1,1.233467080109061e-09
2.12,0.1850529723539114,77.50000003431762,0,60,1.0,1,8.074734710937585e-10
2.125,0.21169159439317053,77.50000002236098,0,60,1.0,1,5.261406787373262e-10
2.13,0.23277292922115492,77.50000001450232,0,60,1.0,1,3.412310434214305e-10
2.135,0.24602692519491282,77.50000000936176,0,60,1.0,1,2.202766074119341e-10
2.14,0.24995056064839283,77.50000000601518,0,60,1.0,1,1.4153375987542164e-10
2.145,0.24408826520424054,77.50000000384694,0,60,1.0,1,9.05161227017422e-11
2.15,0.22911894216865275,77.5000000024488,0,60,1.0,1,5.761882996867986e-11
2.155,0.20672661788705934,77.50000000155154,0,60,1.0,1,3.650684983072364e-11
2.16,0.17928878030241233,77.50000000097847,0,60,1.0,1,2.3022922130835734e-11
2.165,0.14946211903866036,77.5000000006142,0,60,1.0,1,1.4451603312730133e-11
2.17,0.1197651512573837,77.50000000038374,0,60,1.0,1,9.02907552646117e-12
2.175,0.09224675744988023,77.50000000023864,0,60,1.0,1,5.615126664291465e-12
2.18,0.06829565320281596,77.50000000014771,0,60,1.0,1,3.4754735037602265e-12
2.185,0.04860224607515734,77.500000000091,0,60,1.0,1,2.1413250257918502e-12
2.19,0.03324612389699793,77.5000000000558,0,60,1.0,1,1.3130829756846652e-12
2.195,0.021859876340472782,77.50000000003406,0,60,1.0,1,8.01492205937393e-13
2.2,0.01381595518554205,77.50000000002069,0,60,1.0,1,4.868471638902145e-13
2.205,0.008394095110402422,77.50000000001252,0,60,1.0,1,2.945826589198345e-13
2.21,0.0049052535271608,77.50000000000753,0,60,1.0,1,1.7721771762487205e-13
2.215,0.0027671663551903634,77.5000000000045,0,60,1.0,1,1.0599625752280083e-13
2.22,0.0015425553464444616,77.50000000000269,0,60,1.0,1,6.319650685113362e-14
2.225,0.0009638206637011801,77.50000000000159,0,60,1.0,1,3.744978183770881e-14
2.23,0.0009804935156568228,77.50000000000094,0,60,1.0,1,2.2068621440078406e-14
2.235,0.0018793744894085216,77.50000000000055,0,60,1.0,1,1.3040549032773603e-14
2.24,0.004535525206900863,77.50000000000033,0,60,1.0,1,7.690580198815202e-15
2.245,0.010832767979632273,77.50000000000018,0,60,1.0,1,4.3468496775912015e-15
2.25,0.024208003392322392,77.50000000000011,0,60,1.0,1,2.6749844169792007e-15
2.255,0.0500971897335304,77.50000000000006,0,60,1.0,1,1.3374922084896003e-15
2.26,0.09582894921774403,77.50000000000004,0,60,1.0,1,1.0031191563672002e-15
2.265,0.16937896721820658,77.50000000000001,0,60,1.0,1,3.343730521224001e-16
2.27,0.27661303008991756,77.50000000000001,0,60,1.0,1,3.343730521224001e-16
2.275,0.4173782800009149,77.5,0,60,1.0,1,0.0
2.28,0.5818720934538056,77.5,0,60,1.0,1,0.0
2.285,0.7494718801585675,77.5,0,60,1.0,1,0.0
2.29,0.891813020752378,77.5,0,60,1.0,1,0.0
2.295,0.9800361632936612,77.5,0,60,1.0,1,0.0
2.3,0.993574479225126,77.50000249181176,1,60,1.0,1,5.863086484810885e-08
2.305,0.9263438449375362,77.50000384183856,0,60,1.0,1,9.039620147846375e-08
2.31,0.7873015962290536,77.50000605203118,0,60,1.0,1,1.4240073369364837e-07
2.315,0.5959516244629897,77.5000098502643,0,60,1.0,1,2.317709248365966e-07
2.32,0.376910120078773,77.50001674040978,0,60,1.0,1,3.9389199474392037e-07
2.325,0.15739335672107918,77.50002988936268,0,60,1.0,1,7.032791218615089e-07
2.33,-0.033361226269301235,77.50005598658028,0,60,1.0,1,1.3173313006705832e-06
2.335,-0.1680180840843834,77.50010904250446,0,60,1.0,1,2.565705987348445e-06
2.34,-0.23069703190837854,77.50021792763697,0,60,1.0,1,5.127709105114691e-06
2.345,-0.22587267821131068,77.50044088337641,0,60,1.0,1,1.0373726503838256e-05
2.35,-0.17718181630665902,77.50089256449868,0,60,1.0,1,2.1001517616107722e-05
2.355,-0.11494332516451301,77.50179276579377,0,60,1.0,1,4.218272455920455e-05
2.36,-0.061810214049552864,77.50355118942913,0,60,1.0,1,8.355739833251285e-05
2.365,-0.026546104631500547,77.50690959240086,0,60,1.0,1,0.00016257864472610142
2.37,-0.00719600351942686,77.51317112223475,0,60,1.0,1,0.00030990875846475104
2.375,0.0022072757983807078,77.52455545137923,0,60,1.0,1,0.0005777753265700834
2.38,0.006917199873730717,77.54472497706796,0,60,1.0,1,0.0010523524015990033
2.385,0.01004859748264829,77.57952766654348,0,60,1.0,1,0.001871239212787861
2.39,0.013037082251128167,77.63799012210991,0,60,1.0,1,0.0032468264025861597
2.395,0.01645163937690478,77.7335629797193,0,60,1.0,1,0.005495599522806943
2.4,0.020526639934696615,77.88556318136334,0,60,1.0,1,0.009072074855607954
2.405,0.02539629541761738,78.12067063847793,0,60,1.0,1,0.014604015023010173
2.41,0.031171612185577933,78.47422412231587,0,60,1.0,2,0.022922920525079396
2.415,0.03795853426638131,78.99093771170499,0,60,1.0,2,0.03508088733423499
2.42,0.0458588961882057,79.72455313644113,0,60,1.0,2,0.05234242673979131
2.425,0.054966995891435555,80.7358957043249,0,60,1.0,2,0.07613872245470361
2.43,0.06536491004445595,82.08885917455554,0,60,1.0,2,0.10797315704836559
2.435,0.07711726085088699,83.84404871167135,0,60,1.0,2,0.149271734392267
2.44,0.09026570629555215,86.05017854498587,0,60,1.0,2,0.20118067164672632
2.445,0.10482339848670268,88.73382931864452,0,60,1.0,2,0.26432539573281233
2.45,0.12076968927580028,91.88874480991677,0,60,1.0,2,0.33855870140980643
2.455,0.13804539501007884,95.46636445671342,0,60,1.0,2,0.4227379872167864
2.46,0.15654895051787066,99.36959295544153,0,60,1.0,2,0.5145786577750949
2.465,0.17613378141900526,103.45175485582882,0,60,1.0,2,0.6106295260195017
2.47,0.19660720058055794,107.5221797930646,0,60,1.0,2,0.7064042304250493
2.475,0.21773108748496234,111.35892106398657,0,60,1.0,2,0.7966804956232134
2.48,0.23922453870058807,114.72785713078791,0,60,1.0,2,0.8759495795479508
2.485,0.2607685857914563,117.40610393874456,0,60,1.0,2,0.9389671514998721
2.49,0.2820129681603682,119.20657953132158,0,60,1.0,2,0.9813312830899196
2.495,0.30258482867153996,120.0,0,60,1.0,2,1.0
2.5,0.3220990771751686,119.73073626244305,0,60,1.0,2,0.9936643826457188
2.505,0.3401700499968971,118.4238494759471,0,60,1.0,2,0.9629141053164022
2.51,0.3564239911198326,116.18208945321945,0,60,1.0,2,0.910166810663987
2.515,0.3705118017738417,113.1733745291447,0,60,1.0,2,0.8393735183328164
2.52,0.3821214567925213,109.61089082664786,0,60,1.0,2,0.7555503723917144
2.525,0.39098947374066967,105.7291023657552,0,60,1.0,2,0.6642141733118869
2.53,0.3969108472035567,101.75942264604797,0,60,1.0,2,0.5708099446128934
2.535,0.3997469255491936,97.90901232617857,0,60,1.0,2,0.4802120547336134
2.54,0.3994308076379137,94.34526416670559,0,60,1.0,2,0.39635915686366097
2.545,0.3959699661768434,91.18727314888353,0,60,1.0,2,0.3220534858560832
2.55,0.38944595408114946,88.50427463175579,0,60,1.0,2,0.2589241089824892
2.555,0.38001120995358023,86.3199414541806,0,60,1.0,2,0.20752803421601396
2.56,0.3678831374098315,84.62074135275094,0,60,1.0,2,0.16754685535884564
2.565,0.35333577933796634,83.36632600348436,0,60,1.0,2,0.13803120008198494
2.57,0.33668953221163944,82.5000975498113,0,60,1.0,2,0.11764935411320708
2.575,0.3182994390982644,81.95854814001777,0,60,1.0,2,0.1049070150592416
2.58,0.29854265738230645,81.67853656537754,0,60,1.0,2,0.09831850742064803
2.585,0.2778057157821067,81.60221366217804,0,60,1.0,2,0.09652267440418928
2.59,0.2564721553719815,81.67973868879486,0,60,1.0,2,0.09834679267752602
2.595,0.23491109433464996,81.87019922391292,0,60,1.0,2,0.10282821703324517
2.6,0.21346717185309805,82.14126026801704,0,60,1.0,2,0.109206123953342
2.605,0.19245222055656455,82.46805768409277,0,60,1.0,2,0.11689547491982988
2.61,0.17213889801761392,82.83176315010746,0,60,1.0,2,0.12545325059076384
2.615,0.15275638501270183,83.21812687136497,0,60,1.0,2,0.13454416167917582
2.62,0.13448814019607322,83.61618424954153,0,60,1.0,2,0.14391021763627135
2.625,0.11747159495449566,84.01721373745077,0,60,1.0,2,0.15334620558707704
2.63,0.10179958433370105,84.41396310723198,0,60,1.0,2,0.16268148487604656
2.635,0.08752324394101413,84.80011942466255,0,60,1.0,2,0.17176751587441305
2.64,0.07465606047174059,85.1699784655929,0,60,1.0,2,0.18047008154336247
2.645,0.0631787448609295,85.51826494996435,0,60,1.0,2,0.18866505764621994
2.65,0.05304460019959574,85.840059253804,0,60,1.0,2,0.1962366883248
2.655,0.044185078305849994,86.13079426679849,0,60,1.0,2,0.20307751215996445
2.66,0.03651525513023255,86.38629466659549,0,60,1.0,2,0.20908928627283505
2.665,0.0299390014708757,86.60283845793114,0,60,1.0,2,0.21418443430426218
2.67,0.024353677220580638,86.77722659458583,0,60,1.0,2,0.21828768457849004
2.675,0.01965423034339045,86.90685088831356,0,60,1.0,2,0.22133766796031898
2.68,0.015736632374757337,86.98975350722205,0,60,1.0,2,0.22328831781698935
2.685,0.012500627640593535,87.02467353697683,0,60,1.0,2,0.22410996557592552
2.69,0.009851811652115898,87.0110776394444,0,60,1.0,2,0.223790062104574
2.695,0.007703084175428559,86.94917303121116,0,60,1.0,2,0.2223334830873214
2.7,0.005975544002062424,86.83990197261397,0,60,1.0,2,0.2197623993556229
2.705,0.004598905818663047,86.68491779355341,0,60,1.0,2,0.21611571278949201
2.71,0.0035115256454839104,86.4865432253902,0,60,1.0,2,0.21144807589153394
2.715,0.002660121266303676,86.2477124690008,0,60,1.0,2,0.20582852868237184
2.72,0.0019992692560877024,85.9718990017495,0,60,1.0,2,0.19933880004116483
2.725,0.0014907520044639367,85.66303159799958,0,60,1.0,2,0.1920713317176371
2.73,0.0011028178277539807,85.32540139533346,0,60,1.0,2,0.1841270916549049
2.735,0.0008094059938923333,84.96356307129537,0,60,1.0,2,0.1756132487363616
2.74,0.0005893771793717645,84.58223329764274,0,60,1.0,2,0.16664078347394692
2.745,0.0004257792353490551,84.18618961118601,0,60,1.0,2,0.15732210849849432
2.75,0.0003051686392901525,83.78017268883372,0,60,1.0,2,0.14776876914902862
2.755,0.00021699992642659966,83.36879475167348,0,60,1.0,2,0.13808928827467004
2.76,0.00015308884054097838,82.95645646592097,0,60,1.0,2,0.12838721096284625
2.765,0.00010714989329311098,82.5472742782177,0,60,1.0,2,0.11875939478159292
2.77,7.440535854020571e-05,82.1450196423469,0,60,1.0,2,0.10929457981992695
2.775,5.1260276743925106e-05,81.75307108830053,0,60,1.0,2,0.10007226090118894
2.78,3.503659887882241e-05,81.37437957677281,0,60,1.0,2,0.09116187239465436
2.785,2.375894748103639e-05,81.01144709498455,0,60,1.0,2,0.08262228458787169
2.79,1.5984413869232557e-05,80.66631800298667,0,60,1.0,2,0.0745016000702746
2.795,1.0669166579899869e-05,80.34058224944994,0,60,1.0,2,0.06683722939882206
2.8,7.06526633560511e-06,80.03538925452028,0,60,1.0,2,0.059656217753418415
2.805,4.641847214699205e-06,79.75147101231343,0,60,1.0,2,0.0529757885250219
2.81,3.025641074479182e-06,79.4891728003454,0,60,1.0,2,0.046804065890480015
2.815,1.9566278676921314e-06,79.24848979680112,0,60,1.0,2,0.041140936395320564
2.82,1.2553456560008793e-06,79.02910789449058,0,60,1.0,2,0.035979009282131276
2.825,7.990660428214668e-07,78.8304470550233,0,60,1.0,2,0.03130463658878351
2.83,5.046221251618276e-07,78.65170565820313,0,60,1.0,2,0.027098956663602996
2.835,3.1616527078858815e-07,78.49190445841805,0,60,1.0,2,0.02333892843336584
2.84,1.9652884407760343e-07,78.34992894961812,0,60,1.0,2,0.01999832822630865
2.845,1.2120002189836396e-07,78.22456915105091,0,60,1.0,2,0.017048685907080346
2.85,7.415549848886236e-08,78.11455604558064,0,60,1.0,2,0.014460142248956278
2.855,4.501406988770349e-08,78.018594120612,0,60,1.0,2,0.01220221460263514
2.86,0.0,77.93538966935525,0,60,1.0,2,0.010244462808358723
2.865,0.0,77.86367470016516,0,60,1.0,2,0.008557051768592066
2.87,0.0,77.80222646861542,0,60,1.0,2,0.00711121102624508
2.875,0.0,77.74988278736755,0,60,1.0,2,0.0058795949968836175
2.88,0.0,77.70555338106993,0,60,1.0,2,0.004836550142821954
2.885,0.0,77.66822763736607,0,60,1.0,2,0.0039582973497899465
2.89,0.0,77.63697916182198,0,60,1.0,2,0.0032230391016937307
2.895,0.0,77.61096757646521,0,60,1.0,2,0.0026110017991815017
2.9,0.0,77.58943801168321,0,60,1.0,2,0.002104423804310914
2.905,0.0,77.57171873294385,0,60,1.0,2,0.0016874995986788288
2.91,0.0,77.55721732087633,0,60,1.0,2,0.0013462899029725443
2.915,0.0,77.54541578936765,0,60,1.0,2,0.0010686068086506431
2.92,0.0,77.53586498497702,0,60,1.0,2,0.0008438819994594001
2.925,0.0,77.52817856529884,0,60,1.0,2,0.0006630250658551685
2.93,0.0,77.52202680664169,0,60,1.0,2,0.0005182778033338978
2.935,0.0,77.5171304447848,0,60,1.0,2,0.0004030692890540542
2.94,0.0,77.51325470838246,0,60,1.0,2,0.0003118754913520447
2.945,0.0,77.51020366409061,0,60,1.0,2,0.00024008621389672204
2.95,0.0,77.50781495653038,0,60,1.0,2,0.00018388133012663008
2.955,0.0,77.50595499523384,0,60,1.0,2,0.00014011753491378358
2.96,0.0,77.50451461486995,0,60,1.0,2,0.00010622623223405433
2.965,0.0,77.50340521419459,0,60,1.0,2,8.012268693144452e-05
2.97,0.0,77.50255536298914,0,60,1.0,2,6.012618797981037e-05
2.975,0.0,77.50190785429267,0,60,1.0,2,4.489068923924285e-05
2.98,0.0,77.50141717096078,0,60,1.0,2,3.334519907712895e-05
2.985,0.0,77.50104733043376,0,60,1.0,2,2.4643069029734227e-05
2.99,0.0,77.50077006899966,0,60,1.0,2,1.811927058016034e-05
2.995,0.0,77.50056332625815,0,60,1.0,2,1.3254735485776002e-05
3.0,0.0,77.50040999143872,0,60,1.0,2,9.646857381540031e-06
3.005,0.0,77.50029687526775,0,60,1.0,2,6.985300417655333e-06
3.01,0.0,77.50021387384992,0,60,1.0,2,5.032325880366068e-06
3.015,0.0,77.50015329422482,0,60,1.0,2,3.6069229368502634e-06
3.02,0.0,77.50010931464227,0,60,1.0,2,2.5721092299590965e-06
3.025,0.0,77.50007755598538,0,60,1.0,2,1.824846714939935e-06
3.03,0.0,77.50005474402688,0,60,1.0,2,1.288094750193255e-06
3.035,0.0,77.50003844524194,0,60,1.0,2,9.045939280253258e-07
3.04,0.0,77.50002686166287,0,60,1.0,2,6.320391264580394e-07
3.045,0.0,77.50001867272185,0,60,1.0,2,4.393581611887331e-07
3.05,0.0,77.50001291417894,0,60,1.0,2,3.0386303385111047e-07
3.055,0.001684486749771458,77.5000088860839,0,60,1.0,2,2.0908432715901547e-07
3.06,0.003097557930867117,77.50000608328911,0,60,1.0,2,1.431362143060088e-07
3.065,0.005475106668887023,77.50000414334353,0,60,1.0,2,9.7490436032518e-08
3.07,0.00930222931468658,77.50000280768167,0,60,1.0,2,6.606309806128968e-08
3.075,0.01519157517868857,77.50000189290678,0,60,1.0,2,4.453898307420947e-08
3.08,0.023847336626128316,77.50000126968219,0,60,1.0,2,2.9874874986917885e-08
3.085,0.0359830743700859,77.50000084731572,0,60,1.0,2,1.9936840424313284e-08
3.09,0.05218887796857759,77.50000056257437,0,60,1.0,2,1.3237044025599436e-08
3.095,0.0727577001223134,77.50000037161998,0,60,1.0,2,8.743999427786228e-09
3.1,0.0974992498694751,77.50000024423203,0,60,1.0,2,5.7466359200642566e-09
3.105,0.12558706050443358,77.50000015969474,0,60,1.0,2,3.757523191940409e-09
3.11,0.15549263588878245,77.50000010388743,0,60,1.0,2,2.444410122681053e-09
3.115,0.1850529723539114,77.50000006723879,0,60,1.0,2,1.5820891054746051e-09
3.12,0.21169159439317053,77.50000004329733,0,60,1.0,2,1.018760793372434e-09
3.125,0.23277292922115492,77.50000002773875,0,60,1.0,2,6.526764697328498e-10
3.13,0.24602692519491282,77.5000000176806,0,60,1.0,2,4.1601424527470956e-10
3.135,0.24995056064839283,77.50000001121222,0,60,1.0,2,2.6381699439405244e-10
3.14,0.24408826520424054,77.50000000707409,0,60,1.0,2,1.6644923348127014e-10
3.145,0.22911894216865275,77.50000000444052,0,60,1.0,2,1.0448288508889484e-10
3.15,0.20672661788705934,77.5000000027732,0,60,1.0,2,6.525189800253001e-11
3.155,0.17928878030241233,77.50000000172311,0,60,1.0,2,4.054373568899738e-11
3.16,0.14946211903866036,77.5000000010652,0,60,1.0,2,2.5063600867938744e-11
3.165,0.1197651512573837,77.50000000065513,0,60,1.0,2,1.5414932075894767e-11
3.17,0.09224675744988023,77.50000000040089,0,60,1.0,2,9.432663800372906e-12
3.175,0.06829565320281596,77.50000000024406,0,60,1.0,2,5.7425227971500995e-12
3.18,0.04860224607515734,77.50000000014782,0,60,1.0,2,3.4781484881772057e-12
3.185,0.03324612389699793,77.50000000008907,0,60,1.0,2,2.0958502907032036e-12
3.19,0.021859876340472782,77.5000000000534,0,60,1.0,2,1.2565739298759795e-12
3.195,0.01381595518554205,77.50000000003186,0,60,1.0,2,7.49664382858421e-13
3.2,0.008394095110402422,77.5000000000189,0,60,1.0,2,4.447161593227921e-13
3.205,0.0049052535271608,77.50000000001116,0,60,1.0,2,2.6248284591608404e-13
3.21,0.0027671663551903634,77.50000000000655,0,60,1.0,2,1.5414597702842645e-13
3.215,0.0015425553464444616,77.50000000000384,0,60,1.0,2,9.028072407304802e-14
3.22,0.0009638206637011801,77.50000000000223,0,60,1.0,2,5.2496569183216817e-14
3.225,0.0009804935156568228,77.5000000000013,0,60,1.0,2,3.042794774313841e-14
3.23,0.0018793744894085216,77.50000000000074,0,60,1.0,2,1.7387398710364806e-14
3.235,0.004535525206900863,77.50000000000043,0,60,1.0,2,1.0031191563672003e-14
3.24,0.010832767979632273,77.50000000000024,0,60,1.0,2,5.684341886080802e-15
3.245,0.024208003392322392,77.50000000000014,0,60,1.0,2,3.343730521224001e-15
3.25,0.0500971897335304,77.50000000000007,0,60,1.0,2,1.6718652606120004e-15
3.255,0.09582894921774403,77.50000000000004,0,60,1.0,2,1.0031191563672002e-15
3.26,0.16937896721820658,77.50000000000003,0,60,1.0,2,6.687461042448002e-16
3.265,0.27661303008991756,77.50000000000001,0,60,1.0,2,3.343730521224001e-16
3.27,0.4173782800009149,77.5,0,60,1.0,2,0.0
3.275,0.5818720934538056,77.5,0,60,1.0,2,0.0
3.28,0.7494718801585675,77.5,0,60,1.0,2,0.0
3.285,0.891813020752378,77.5,0,60,1.0,2,0.0
3.29,0.9800361632936612,77.5,0,60,1.0,2,0.0
3.295,0.993574479225126,77.50000249379623,1,60,1.0,2,5.8677558372972485e-08
3.3,0.9263438449375362,77.50000382794776,0,60,1.0,2,9.006935917622125e-08
3.305,0.7873015962290536,77.50000600036053,0,60,1.0,2,1.4118495361050436e-07
3.31,0.5959516244629897,77.50000970943701,0,60,1.0,2,2.2845734138975198e-07
3.315,0.376910120078773,77.5000163868594,0,60,1.0,2,3.8557316235496463e-07
3.32,0.15739335672107918,77.50002902423199,0,60,1.0,2,6.829231056947131e-07
3.325,-0.033361226269301235,77.50005389476512,0,60,1.0,2,1.268112120388811e-06
3.33,-0.1680180840843834,77.50010404947875,0,60,1.0,2,2.4482230294191086e-06
3.335,-0.23069703190837854,77.50020622040319,0,60,1.0,2,4.852244780843595e-06
3.34,-0.22587267821131068,77.50041404783398,0,60,1.0,2,9.742301976115521e-06
3.345,-0.17718181630665902,77.50083263801669,0,60,1.0,2,1.959148274562829e-05
3.35,-0.11494332516451301,77.50166268015035,0,60,1.0,2,3.912188589050161e-05
3.355,-0.061810214049552864,77.5032770278292,0,60,1.0,2,7.710653715762687e-05
3.36,-0.026546104631500547,77.50634895429774,0,60,1.0,2,0.0001493871599467077
3.365,-0.00719600351942686,77.5120590120072,0,60,1.0,2,0.0002837414589929294
3.37,0.0022072757983807078,77.52241562190353,0,60,1.0,2,0.0005274263977302032
3.375,0.006917199873730717,77.54073109806174,0,60,1.0,2,0.0009583787779233182
3.38,0.01004859748264829,77.57229617891642,0,60,1.0,2,0.0017010865627392323
3.385,0.013037082251128167,77.62528706971409,0,60,1.0,2,0.0029479310520962505
3.39,0.01645163937690478,77.7119131132812,0,60,1.0,2,0.004986190900734086
3.395,0.020526639934696615,77.84976424958334,0,60,1.0,2,0.008229747049019874
3.4,0.02539629541761738,78.06324165455797,0,60,1.0,2,0.013252744813128709
3.405,0.031171612185577933,78.38485440731901,0,60,1.0,2,0.020820103701623793
3.41,0.03795853426638131,78.85605110071748,0,60,1.0,2,0.031907084722764226
3.415,0.0458588961882057,79.52715125776614,0,60,1.0,2,0.047697676653320836
3.42,0.054966995891435555,80.45588226229052,0,60,1.0,2,0.06955017087742389
3.425,0.06536491004445595,81.70405544530206,0,60,1.0,2,0.09891895165416613
3.43,0.07711726085088699,83.33206946519013,0,60,1.0,2,0.1372251638868266
3.435,0.09026570629555215,85.39123254573106,0,60,1.0,2,0.1856760598995543
3.44,0.10482339848670268,87.9143369512103,0,60,1.0,2,0.24504322238141887
3.445,0.12076968927580028,90.90544393360824,0,60,1.0,2,0.3154222102025468
3.45,0.13804539501007884,94.33034336266256,0,60,1.0,2,0.396008079121472
3.455,0.15654895051787066,98.10950421064753,0,60,1.0,2,0.4849295108387654
3.46,0.17613378141900526,102.11539119616134,0,60,1.0,2,0.5791856752037963
3.465,0.19660720058055794,106.17568759500095,0,60,1.0,2,0.6747220610588459
3.47,0.21773108748496234,110.08321153763839,0,60,1.0,2,0.7666638008856091
3.475,0.23922453870058807,113.61222628224048,0,60,1.0,2,0.8496994419350702
3.48,0.2607685857914563,116.53961398056285,0,60,1.0,2,0.9185791524838317
3.485,0.2820129681603682,118.66827111065578,0,60,1.0,2,0.9686652026036654
3.49,0.30258482867153996,119.84936740314373,0,60,1.0,2,0.9964557036033819
3.495,0.3220990771751686,120.0,0,60,1.0,2,1.0
3.5,0.3401700499968971,119.11335164043977,0,60,1.0,2,0.9791376856574064
3.505,0.3564239911198326,117.2596422087817,0,60,1.0,2,0.9355209931478047
3.51,0.3705118017738417,114.57771066593102,0,60,1.0,2,0.8724167215513182
3.515,0.3821214567925213,111.25864733544083,0,60,1.0,2,0.7943211137750783
3.52,0.39098947374066967,107.52417358062645,0,60,1.0,2,0.7064511430735636
3.525,0.3969108472035567,103.60317581973628,0,60,1.0,2,0.614192372229089
3.53,0.3997469255491936,99.70982687224779,0,60,1.0,2,0.5225841616999479
3.535,0.3994308076379137,96.02611916232044,0,60,1.0,2,0.43590868617224565
3.54,0.3959699661768434,92.69058107724302,0,60,1.0,2,0.3574254371116006
3.545,0.38944595408114946,89.79371843965717,0,60,1.0,2,0.28926396328605103
3.55,0.38001120995358023,87.37958938048318,0,60,1.0,2,0.2324609265996043
3.555,0.3678831374098315,85.45209135214775,0,60,1.0,2,0.1871080318152411
3.56,0.35333577933796634,83.98411918621723,0,60,1.0,2,0.15256751026393478
3.565,0.33668953221163944,82.92773974008752,0,60,1.0,2,0.12771152329617688
3.57,0.3182994390982644,82.22383282330381,0,60,1.0,2,0.11114900760714845
3.575,0.29854265738230645,81.81013488536829,0,60,1.0,2,0.10141493847925377
3.58,0.2778057157821067,81.62715266498432,0,60,1.0,2,0.09710947447021935
3.585,0.2564721553719815,81.62187846806819,0,60,1.0,2,0.09698537571925152
3.59,0.23491109433464996,81.74957199839405,0,60,1.0,2,0.09998992937397755
3.595,0.21346717185309805,81.9740569196691,0,60,1.0,2,0.10527192752162577
3.6,0.19245222055656455,82.2670305887381,0,60,1.0,2,0.11216542561736693
3.605,0.17213889801761392,82.6068399772209,0,60,1.0,2,0.12016094064049178
3.61,0.15275638501270183,82.97707830332679,0,60,1.0,2,0.12887243066651274
3.615,0.13448814019607322,83.36524231629802,0,60,1.0,3,0.13800570155995348
3.62,0.11747159495449566,83.76158527846451,0,60,1.0,3,0.14733141831681196
3.625,0.10179958433370105,84.15821910240557,0,60,1.0,3,0.156663978880131
3.63,0.08752324394101413,84.54846447631488,0,60,1.0,3,0.16584622297211474
3.635,0.07465606047174059,84.92641729835339,0,60,1.0,3,0.17473923054949142
3.64,0.0631787448609295,85.2866873918496,0,60,1.0,3,0.18321617392587286
3.645,0.05304460019959574,85.6242648120442,0,60,1.0,3,0.19115917204809887
3.65,0.044185078305849994,85.93447459191242,0,60,1.0,3,0.19845822569205693
3.655,0.03651525513023255,86.21298860076058,0,60,1.0,3,0.20501149648848427
3.66,0.0299390014708757,86.45587095455626,0,60,1.0,3,0.21072637540132377
3.665,0.024353677220580638,86.65963999461131,0,60,1.0,3,0.2155209410496779
3.67,0.01965423034339045,86.82133492105665,0,60,1.0,3,0.21932552755427404
3.675,0.015736632374757337,86.93857885017128,0,60,1.0,3,0.2220842082393243
3.68,0.012500627640593535,87.00963266008729,0,60,1.0,3,0.2237560625902892
3.685,0.009851811652115898,87.03343582049601,0,60,1.0,3,0.2243161369528473
3.69,0.007703084175428559,87.00963173891398,0,60,1.0,3,0.2237560409156231
3.695,0.005975544002062424,86.938576193165,0,60,1.0,3,0.22208414572152954
3.7,0.004598905818663047,86.82132827999462,0,60,1.0,3,0.219325371293991
3.705,0.0035115256454839104,86.65962406044066,0,60,1.0,3,0.2155205661280156
3.71,0.002660121266303676,86.45583375264079,0,60,1.0,3,0.21072550006213614
3.715,0.0019992692560877024,86.21290391749133,0,60,1.0,3,0.2050095039409725
3.72,0.0014907520044639367,85.93428659481444,0,60,1.0,3,0.19845380223092796
3.725,0.0011028178277539807,85.62385776540609,0,60,1.0,3,0.1911495944801432
3.73,0.0008094059938923333,85.28582782555713,0,60,1.0,3,0.18319594883663848
3.735,0.0005893771793717645,84.92464695644118,0,60,1.0,3,0.17469757544567482
3.74,0.0004257792353490551,84.54490834692771,0,60,1.0,3,0.1657625493394756
3.745,0.0003051686392901525,84.1512521860989,0,60,1.0,3,0.1565000514376212
3.75,0.00021699992642659966,83.74827318768754,0,60,1.0,3,0.14701819265147165
3.755,0.00015308884054097838,83.34043415451329,0,60,1.0,3,0.13742198010619505
3.76,0.00010714989329311098,82.93198775273756,0,60,1.0,3,0.1278114765350013
3.765,7.440535854020571e-05,82.52690826257488,0,60,1.0,3,0.11828019441352654
3.77,5.1260276743925106e-05,82.12883462523583,0,60,1.0,3,0.10891375588790177
3.775,3.503659887882241e-05,81.74102563739208,0,60,1.0,3,0.09978883852687258
3.78,2.375894748103639e-05,81.36632767600855,0,60,1.0,3,0.09097241590608358
3.785,1.5984413869232557e-05,81.00715488812935,0,60,1.0,3,0.08252129148539646
3.79,1.0669166579899869e-05,80.66548136982472,0,60,1.0,3,0.07448191458411102
3.795,7.06526633560511e-06,80.34284450049499,0,60,1.0,3,0.06689045883517625
3.8,4.641847214699205e-06,80.04035830388436,0,60,1.0,3,0.059773136561984956
3.805,3.025641074479182e-06,79.75873548233507,0,60,1.0,3,0.0531467172314134
3.81,1.9566278676921314e-06,79.4983166189272,0,60,1.0,3,0.04701921456299307
3.815,1.2553456560008793e-06,79.25910496239372,0,60,1.0,3,0.04139070499749932
3.82,7.990660428214668e-07,79.04080519796145,0,60,1.0,3,0.03625423995203405
3.825,5.046221251618276e-07,78.84286465667756,0,60,1.0,3,0.03159681545123677
3.83,3.1616527078858815e-07,78.66451551736972,0,60,1.0,3,0.02740036511458169
3.835,1.9652884407760343e-07,78.50481669878073,0,60,1.0,3,0.023642745853664215
3.84,1.2120002189836396e-07,78.36269431353409,0,60,1.0,3,0.020298689730213936
3.845,7.415549848886236e-08,78.23697974928406,0,60,1.0,3,0.01734069998315436
3.85,4.501406988770349e-08,78.12644464506172,0,60,1.0,3,0.014739874001452335
3.855,0.0,78.02983223281902,0,60,1.0,3,0.012466640772212191
3.86,0.0,77.94588470720849,0,60,1.0,3,0.010491404875493934
3.865,0.0,77.87336646401664,0,60,1.0,3,0.008785093270979788
3.87,0.0,77.81108320437647,0,60,1.0,3,0.00731960480885819
3.875,0.0,77.75789703460497,0,60,1.0,3,0.006068165520116843
3.88,0.0,77.7127377985272,0,60,1.0,3,0.0050055952594635425
3.885,0.0,77.67461096019198,0,60,1.0,3,0.0041084931809878605
3.89,0.0,77.64260241090227,0,60,1.0,3,0.003355350844759307
3.895,0.0,77.61588060740796,0,60,1.0,3,0.0027266025272461
3.9,0.0,77.5936964605813,0,60,1.0,3,0.0022046226019129147
3.905,0.0,77.57538138902093,0,60,1.0,3,0.0017736797416690105
3.91,0.0,77.56034393314094,0,60,1.0,3,0.001419857250375103
3.915,0.0,77.5480652957481,0,60,1.0,3,0.0011309481352494754
3.92,0.0,77.53809413809743,0,60,1.0,3,0.0008963326611161151
3.925,0.0,77.53004091886824,0,60,1.0,3,0.0007068451498408944
3.93,0.0,77.52357201997987,0,60,1.0,3,0.0005546357642321495
3.935,0.0,77.51840385980424,0,60,1.0,3,0.0004330319953938295
3.94,0.0,77.51429715282914,0,60,1.0,3,0.0003364035959798591
3.945,0.0,77.51105143644553,0,60,1.0,3,0.00026003379871828174
3.95,0.0,77.5084999511344,0,60,1.0,3,0.0001999988502210967
3.955,0.0,77.50650493041393,0,60,1.0,3,0.0001530571862100019
3.96,0.0,77.50495333166883,0,60,1.0,3,0.00011654898044305221
3.965,0.0,77.50375301836885,0,60,1.0,3,8.830631456128364e-05
3.97,0.0,77.50282938794548,0,60,1.0,3,6.65738340113448e-05
3.975,0.0,77.5021224273595,0,60,1.0,3,4.9939467282242466e-05
3.98,0.0,77.50158416968905,0,60,1.0,3,3.7274580918900775e-05
3.985,0.0,77.50117651939523,0,60,1.0,3,2.7682809299529468e-05
3.99,0.0,77.5008694107589,0,60,1.0,3,2.0456723738708902e-05
3.995,0.0,77.50063926283588,0,60,1.0,3,1.5041478491184535e-05
4.0,0.0,77.50046769468173,0,60,1.0,3,1.1004580746617542e-05
4.005,0.0,77.50034046614508,0,60,1.0,3,8.010968119432458e-06
4.01,0.0,77.50024661186245,0,60,1.0,3,5.80263205767337e-06
4.015,0.0,77.50017773891317,0,60,1.0,3,4.182092074496027e-06
4.02,0.0,77.5001274616702,0,60,1.0,3,2.9990981224326627e-06
4.025,0.0,77.50009095052647,0,60,1.0,3,2.1400123875323246e-06
4.03,0.0,77.500064574248,0,60,1.0,3,1.5193940705959155e-06
4.035,0.0,77.50004561860754,0,60,1.0,3,1.0733790010336259e-06
4.04,0.0,77.50003206662257,0,60,1.0,3,7.545087662626483e-07
4.045,0.0,77.5000224281237,0,60,1.0,3,5.277205576369263e-07
4.05,0.0,77.50001560850087,0,60,1.0,3,3.6725884409433465e-07
4.055,0.0,77.50001080831444,0,60,1.0,3,2.5431328100132624e-07
4.06,0.001684486749771458,77.50000744703297,0,60,1.0,3,1.7522430519367096e-07
4.065,0.003097557930867117,77.50000510548624,0,60,1.0,3,1.2012908795815533e-07
4.07,0.005475106668887023,77.5000034827273,0,60,1.0,3,8.194652456736282e-08
4.075,0.00930222931468658,77.50000236390684,0,60,1.0,3,5.5621337517496775e-08
4.08,0.01519157517868857,77.50000159650313,0,60,1.0,3,3.7564779417794744e-08
4.085,0.023847336626128316,77.50000107284681,0,60,1.0,3,2.5243454448333496e-08
4.09,0.0359830743700859,77.50000071735509,0,60,1.0,3,1.6878943356727284e-08
4.095,0.05218887796857759,77.50000047726456,0,60,1.0,3,1.1229754443989162e-08
4.1,0.0727577001223134,77.5000003159459,0,60,1.0,3,7.4340211058905185e-09
4.105,0.0974992498694751,77.50000020811088,0,60,1.0,3,4.89672649617954e-09
4.11,0.12558706050443358,77.50000013639716,0,60,1.0,3,3.209344988456852e-09
4.115,0.15549263588878245,77.50000008894969,0,60,1.0,3,2.092933888942592e-09
4.12,0.1850529723539114,77.50000005771811,0,60,1.0,3,1.358073204220786e-09
4.125,0.21169159439317053,77.50000003726561,0,60,1.0,3,8.768378232643419e-10
4.13,0.23277292922115492,77.50000002394049,0,60,1.0,3,5.633055747346267e-10
4.135,0.24602692519491282,77.50000001530334,0,60,1.0,3,3.6007864925041384e-10
4.14,0.24995056064839283,77.50000000973347,0,60,1.0,3,2.2902280333629974e-10
4.145,0.24408826520424054,77.50000000615996,0,60,1.0,3,1.4494035253044465e-10
4.15,0.22911894216865275,77.50000000387898,0,60,1.0,3,9.127013393427821e-11
4.155,0.20672661788705934,77.50000000243044,0,60,1.0,3,5.718681998533772e-11
4.16,0.17928878030241233,77.50000000151523,0,60,1.0,3,3.565252668255091e-11
4.165,0.14946211903866036,77.50000000093995,0,60,1.0,3,2.2116436786531908e-11
4.17,0.1197651512573837,77.50000000058017,0,60,1.0,3,1.3651114225949106e-11
4.175,0.09224675744988023,77.50000000035632,0,60,1.0,3,8.38406990891706e-12
4.18,0.06829565320281596,77.50000000021774,0,60,1.0,3,5.123263904619414e-12
4.185,0.04860224607515734,77.5000000001324,0,60,1.0,3,3.1153537266244016e-12
4.19,0.03324612389699793,77.5000000000801,0,60,1.0,3,1.884860894813969e-12
4.195,0.021859876340472782,77.50000000004822,0,60,1.0,3,1.1345277658513034e-12
4.2,0.01381595518554205,77.50000000002889,0,60,1.0,3,6.797804149648394e-13
4.205,0.008394095110402422,77.50000000001721,0,60,1.0,3,4.049257661202265e-13
4.21,0.0049052535271608,77.5000000000102,0,60,1.0,3,2.4007985142388327e-13
4.215,0.0027671663551903634,77.50000000000603,0,60,1.0,3,1.4177417409989764e-13
4.22,0.0015425553464444616,77.50000000000354,0,60,1.0,3,8.325888997847762e-14
4.225,0.0009638206637011801,77.50000000000206,0,60,1.0,3,4.848409255774801e-14
4.23,0.0009804935156568228,77.5000000000012,0,60,1.0,3,2.808733637828161e-14
4.235,0.0018793744894085216,77.5000000000007,0,60,1.0,3,1.6384279553997603e-14
4.24,0.004535525206900863,77.5000000000004,0,60,1.0,3,9.362445459427202e-15
4.245,0.010832767979632273,77.50000000000023,0,60,1.0,3,5.349968833958401e-15
4.25,0.024208003392322392,77.50000000000013,0,60,1.0,3,3.0093574691016007e-15
4.255,0.0500971897335304,77.50000000000007,0,60,1.0,3,1.6718652606120004e-15
4.26,0.09582894921774403,77.50000000000004,0,60,1.0,3,1.0031191563672002e-15
4.265,0.16937896721820658,77.50000000000003,0,60,1.0,3,6.687461042448002e-16
4.27,0.27661303008991756,77.50000000000001,0,60,1.0,3,3.343730521224001e-16
4.275,0.4173782800009149,77.5,0,60,1.0,3,0.0
4.28,0.5818720934538056,77.5,0,60,1.0,3,0.0
4.285,0.7494718801585675,77.5,0,60,1.0,3,0.0
4.29,0.891813020752378,77.5,0,60,1.0,3,0.0
4.295,0.9800361632936612,77.5,0,60,1.0,3,0.0
4.3,0.993574479225126,77.50000249074864,1,60,1.0,3,5.8605850400079576e-08
4.305,0.9263438449375362,77.50000373719767,0,60,1.0,3,8.793406289655917e-08
4.31,0.7873015962290536,77.50000571125484,0,60,1.0,3,1.3438246690063405e-07
4.315,0.5959516244629897,77.50000897156823,0,60,1.0,3,2.1109572317607885e-07
4.32,0.376910120078773,77.50001461785887,0,60,1.0,3,3.43949620387588e-07
4.325,0.15739335672107918,77.50002485761756,0,60,1.0,3,5.848851190769304e-07
4.33,-0.033361226269301235,77.5000441468857,0,60,1.0,3,1.0387502517433485e-06
4.335,-0.1680180840843834,77.50008143641718,0,60,1.0,3,1.9161509923753115e-06
4.34,-0.23069703190837854,77.50015448638096,0,60,1.0,3,3.6349736697449024e-06
4.345,-0.22587267821131068,77.50029793771368,0,60,1.0,3,7.0102991454699375e-06
4.35,-0.17718181630665902,77.50057799534659,0,60,1.0,3,1.3599890507975942e-05
4.355,-0.11494332516451301,77.50111837318384,0,60,1.0,3,2.6314663149244498e-05
4.36,-0.061810214049552864,77.5021447712547,0,60,1.0,3,5.046520599307769e-05
4.365,-0.026546104631500547,77.50405875758024,0,60,1.0,3,9.550017835856712e-05
4.37,-0.00719600351942686,77.50755652220829,0,60,1.0,3,0.00017780052254800146
4.375,0.0022072757983807078,77.5138132687215,0,60,1.0,3,0.00032501808756485256
4.38,0.006917199873730717,77.52475921295319,0,60,1.0,3,0.000582569716545536
4.385,0.01004859748264829,77.54347674592255,0,60,1.0,3,0.0010229822570011037
4.39,0.013037082251128167,77.57474787349175,0,60,1.0,3,0.001758773493923413
4.395,0.01645163937690478,77.62577327415069,0,60,1.0,3,0.0029593711564867885
4.4,0.020526639934696615,77.70706537776042,0,60,1.0,3,0.0048721265355391764
4.405,0.02539629541761738,77.83348417583925,0,60,1.0,3,0.007846686490335193
4.41,0.031171612185577933,78.02533403405856,0,60,1.0,3,0.01236080080137787
4.415,0.03795853426638131,78.30937397061481,0,60,1.0,3,0.019044093426230924
4.42,0.0458588961882057,78.71951933566189,0,60,1.0,3,0.02869457260380908
4.425,0.054966995891435555,79.29694287055824,0,60,1.0,3,0.04228100871901742
4.43,0.06536491004445595,80.08923773111762,0,60,1.0,3,0.06092324073217931
4.435,0.07711726085088699,81.14830879222492,0,60,1.0,3,0.08584255981705703
4.44,0.09026570629555215,82.52673576022178,0,60,1.0,3,0.11827613553463018
4.445,0.10482339848670268,84.27251918352495,0,60,1.0,3,0.1593533925535282
4.45,0.12076968927580028,86.42237931349577,0,60,1.0,3,0.2099383367881357
4.455,0.13804539501007884,88.99410554557689,0,60,1.0,3,0.2704495422488679
4.46,0.15654895051787066,91.9788018156371,0,60,1.0,3,0.3406776897796964
4.465,0.17613378141900526,95.334168598068,0,60,1.0,3,0.41962749642512953
4.47,0.19660720058055794,98.98012138918452,0,60,1.0,3,0.5054146209219886
4.475,0.21773108748496234,102.79799284778882,0,60,1.0,3,0.5952468905362075
4.48,0.23922453870058807,106.63425574998296,0,60,1.0,3,0.6855118999995989
4.485,0.2607685857914563,110.3091421021212,0,60,1.0,3,0.7719798141675577
4.49,0.2820129681603682,113.62978726267669,0,60,1.0,3,0.8501126414747455
4.495,0.30258482867153996,116.40672107938641,0,60,1.0,3,0.915452260691445
4.5,0.3220990771751686,118.47182096137549,0,60,1.0,3,0.9640428461500115
4.505,0.3401700499968971,119.6953952366045,0,60,1.0,3,0.9928328290965764
4.51,0.3564239911198326,120.0,0,60,1.0,3,1.0
4.515,0.3705118017738417,119.36895538564825,0,60,1.0,3,0.9851518914270176
4.52,0.3821214567925213,117.8482718652806,0,60,1.0,3,0.9493711027124846
4.525,0.39098947374066967,115.54169086462247,0,60,1.0,3,0.8950986085793522
4.53,0.3969108472035567,112.59959541754621,0,60,1.0,3,0.8258728333540285
4.535,0.3997469255491936,109.20345077779993,0,60,1.0,3,0.7459635477129395
4.54,0.3994308076379137,105.54802170749046,0,60,1.0,3,0.6599534519409521
4.545,0.3959699661768434,101.8237860184662,0,60,1.0,3,0.572324376905087
4.55,0.38944595408114946,98.20171874166881,0,60,1.0,3,0.4870992645098544
4.555,0.38001120995358023,94.82204096605442,0,60,1.0,3,0.407577434495398
4.56,0.3678831374098315,91.78775541635707,0,60,1.0,3,0.3361824803848723
4.565,0.35333577933796634,89.16299261618758,0,60,1.0,3,0.27442335567500187
4.57,0.33668953221163944,86.97551489147115,0,60,1.0,3,0.22295329156402705
4.575,0.3182994390982644,85.22227107932854,0,60,1.0,3,0.18170049598420085
4.58,0.29854265738230645,83.87670192276543,0,60,1.0,3,0.15004004524153963
4.585,0.2778057157821067,82.89654561652101,0,60,1.0,3,0.12697754391814142
4.59,0.2564721553719815,82.23112307730574,0,60,1.0,3,0.11132054299542915
4.595,0.23491109433464996,81.82741116257147,0,60,1.0,3,0.10182143911932859
4.6,0.21346717185309805,81.63455867864775,0,60,1.0,3,0.09728373361524117
4.605,0.19245222055656455,81.60680170223023,0,60,1.0,3,0.09663062828777008
4.61,0.17213889801761392,81.70495430565997,0,60,1.0,3,0.0989401013096463
4.615,0.15275638501270183,81.89677692135083,0,60,1.0,3,0.10345357462001964
4.62,0.13448814019607322,82.15656636018309,0,60,1.0,3,0.1095662672984257
4.625,0.11747159495449566,82.46429012245926,0,60,1.0,3,0.11680682641080613
4.63,0.10179958433370105,82.8045283196595,0,60,1.0,3,0.12481243105081169
4.635,0.08752324394101413,83.16541222644258,0,60,1.0,3,0.13330381709276667
4.64,0.07465606047174059,83.53767634330968,0,60,1.0,3,0.14206297278375726
4.645,0.0631787448609295,83.91388111514495,0,60,1.0,3,0.15091484976811637
4.65,0.05304460019959574,84.28782021906059,0,60,1.0,3,0.15971341691907276
4.655,0.044185078305849994,84.65409926224211,0,60,1.0,3,0.16833174734687326
4.66,0.03651525513023255,85.0078589300795,0,60,1.0,3,0.17665550423716456
4.665,0.0299390014708757,85.34461127744662,0,60,1.0,3,0.18457908888109686
4.67,0.024353677220580638,85.66015930774962,0,60,1.0,3,0.1920037484176382
4.675,0.01965423034339045,85.95057432507056,0,60,1.0,3,0.19883704294283674
4.68,0.015736632374757337,86.21221077831807,0,60,1.0,3,0.2049931947839545
4.685,0.012500627640593535,86.44174327657818,0,60,1.0,3,0.21039395944889835
4.69,0.009851811652115898,86.63621460417082,0,60,1.0,3,0.21496975539225452
4.695,0.007703084175428559,86.79308677227421,0,60,1.0,3,0.21866086522998135
4.7,0.005975544002062424,86.91028950286497,0,60,1.0,3,0.2214185765379993
4.705,0.004598905818663047,86.98626223109395,0,60,1.0,3,0.22320617014338695
4.71,0.0035115256454839104,87.01998692484162,0,60,1.0,3,0.22399969234921455
4.715,0.002660121266303676,87.01100991632812,0,60,1.0,3,0.22378846861948518
4.72,0.0019992692560877024,86.95945163913956,0,60,1.0,3,0.22257533268563667
4.725,0.0014907520044639367,86.86600374296489,0,60,1.0,3,0.22037655865799746
4.73,0.0011028178277539807,86.73191356296712,0,60,1.0,3,0.2172214955992264
4.735,0.0008094059938923333,86.55895637276944,0,60,1.0,3,0.2131519146533987
4.74,0.0005893771793717645,86.34939625601568,0,60,1.0,3,0.20822108837683953
4.745,0.0004257792353490551,86.1059367891027,0,60,1.0,3,0.2024926303318282
4.75,0.0003051686392901525,85.83166303058954,0,60,1.0,3,0.19603913013151855
4.755,0.00021699992642659966,85.52997655357439,0,60,1.0,3,0.18894062478998555
4.76,0.00015308884054097838,85.20452542960692,0,60,1.0,3,0.18128295128486865
4.765,0.00010714989329311098,84.8591311722773,0,60,1.0,3,0.17315602758299534
4.77,7.440535854020571e-05,84.49771467412947,0,60,1.0,3,0.1646521099795169
4.775,5.1260276743925106e-05,84.12422312368471,0,60,1.0,3,0.15586407349846387
4.78,3.503659887882241e-05,83.74255977482709,0,60,1.0,3,0.14688375940769613
4.785,2.375894748103639e-05,83.3565182660101,0,60,1.0,3,0.1378004297884729
4.79,1.5984413869232557e-05,82.9697229613804,0,60,1.0,3,0.12869936379718586
4.795,1.0669166579899869e-05,82.58557652138303,0,60,1.0,3,0.11966062403254193
4.8,7.06526633560511e-06,82.20721561920514,0,60,1.0,3,0.1107580145695328
4.805,4.641847214699205e-06,81.83747541445932,0,60,1.0,3,0.10205824504610164
4.81,3.025641074479182e-06,81.47886308952788,0,60,1.0,3,0.09362030798889123
4.815,1.9566278676921314e-06,81.13354045891697,0,60,1.0,3,0.08549506962157573
4.82,1.2553456560008793e-06,80.80331538843093,0,60,1.0,4,0.07772506796308074
4.825,7.990660428214668e-07,80.48964151788857,0,60,1.0,4,0.07034450630326052
4.83,5.046221251618276e-07,80.1936255753785,0,60,1.0,4,0.06337942530302364
4.835,3.1616527078858815e-07,79.91604140743877,0,60,1.0,4,0.05684803311620633
4.84,1.9652884407760343e-07,79.65734973059041,0,60,1.0,4,0.050761170131539086
4.845,1.2120002189836396e-07,79.41772253577084,0,60,1.0,4,0.04512288319460789
4.85,7.415549848886236e-08,79.19707104686094,0,60,1.0,4,0.039931083455551554
4.855,4.501406988770349e-08,78.99507614445564,0,60,1.0,4,0.035178262222485594
4.86,0.0,78.81122021168667,0,60,1.0,4,0.030852240274980566
4.865,0.0,78.64481943465971,0,60,1.0,4,0.0269369278743461
4.87,0.0,78.49505568965337,0,60,1.0,4,0.023413075050667524
4.875,0.0,78.36100726610847,0,60,1.0,4,0.02025899449666995
4.88,0.0,78.24167780211948,0,60,1.0,4,0.017451242402811363
4.885,0.0,78.13602294148403,0,60,1.0,4,0.014965245681977154
4.89,0.0,78.04297435280705,0,60,1.0,4,0.012775867124871772
4.895,0.0,77.96146087689337,0,60,1.0,4,0.010857902985726335
4.9,0.0,77.89042668477981,0,60,1.0,4,0.009186510230113206
4.905,0.0,77.82884643227335,0,60,1.0,4,0.007737563112314159
4.91,0.0,77.77573748574355,0,60,1.0,4,0.006487940841024657
4.915,0.0,77.73016936702706,0,60,1.0,4,0.0054157498124014
4.92,0.0,77.69127062232624,0,60,1.0,4,0.004500485231205724
4.925,0.0,77.6582333613129,0,60,1.0,4,0.0037231379132445937
4.93,0.0,77.63031573925792,0,60,1.0,4,0.0030662526884217348
4.935,0.0,77.60684266831569,0,60,1.0,4,0.0025139451368398325
4.94,0.0,77.58720504582733,0,60,1.0,4,0.002051883431231344
4.945,0.0,77.57085777957612,0,60,1.0,4,0.001667241872379196
4.95,0.0,77.55731687430486,0,60,1.0,4,0.0013486323365849357
4.955,0.0,77.54615582242496,0,60,1.0,4,0.0010860193511756306
4.96,0.0,77.53700151653213,0,60,1.0,4,0.0008706239184030384
4.965,0.0,77.52952987374293,0,60,1.0,4,0.0006948205586571904
4.97,0.0,77.52346133340869,0,60,1.0,4,0.0005520313743221215
4.975,0.0,77.51855636164399,0,60,1.0,4,0.0004366202739761855
4.98,0.0,77.51461106927293,0,60,1.0,4,0.0003437898652454324
4.985,0.0,77.51145302495763,0,60,1.0,4,0.00026948294017957404
4.99,0.0,77.50893732291566,0,60,1.0,4,0.0002102899509566214
4.995,0.0,77.50694294504625,0,60,1.0,4,0.00016336341285289242
5.0,0.0,77.50536944058639,0,60,1.0,4,0.00012633977850334626
5.005,0.0,77.50413393258488,0,60,1.0,4,9.7269001997133e-05
5.01,0.0,77.50316844938739,0,60,1.0,4,7.455175029148824e-05
5.015,0.0,77.50241757075612,0,60,1.0,4,5.6884017791122355e-05
5.02,0.0,77.50183637194186,0,60,1.0,4,4.320875157324789e-05
5.025,0.0,77.50138864469302,0,60,1.0,4,3.267399277700968e-05
5.03,0.0,77.50104537152076,0,60,1.0,4,2.4596976959066844e-05
5.035,0.0,77.50078342824536,0,60,1.0,4,1.8433605773078158e-05
5.04,0.0,77.5005844896453,0,60,1.0,4,1.3752697536601237e-05
5.045,0.0,77.50043411366167,0,60,1.0,4,1.0214439098089155e-05
5.05,0.0,77.5003209808483,0,60,1.0,4,7.552490548251251e-06
5.055,0.0,77.50023626741132,0,60,1.0,4,5.559233207631062e-06
5.06,0.0,77.50017313208562,0,60,1.0,4,4.073696132255624e-06
5.065,0.0,77.50012629912273,0,60,1.0,4,2.9717440641514474e-06
5.07,0.0,77.50009172170994,0,60,1.0,4,2.1581578808389383e-06
5.075,0.0,77.50006631213128,0,60,1.0,4,1.5602854419097745e-06
5.08,0.0,77.50004772686034,0,60,1.0,4,1.1229849492872958e-06
5.085,0.0,77.5000341965096,0,60,1.0,4,8.046237553571701e-07
5.09,0.0,77.50002439213024,0,60,1.0,4,5.739324762998877e-07
5.095,0.0,77.5000173207509,0,60,1.0,4,4.0754707998423647e-07
5.1,0.0,77.50001224426546,0,60,1.0,4,2.8810036383219996e-07
5.105,0.0,77.50000861683532,0,60,1.0,4,2.0274906626796378e-07
5.11,0.0,77.50000603687084,0,60,1.0,4,1.4204401984042145e-07
5.115,0.0,77.50000421041604,0,60,1.0,4,9.906861263890973e-08
5.12,0.001684486749771458,77.5000029233928,0,60,1.0,4,6.878571291642455e-08
5.125,0.003097557930867117,77.50000202068385,0,60,1.0,4,4.7545502384844656e-08
5.13,0.005475106668887023,77.50000139046033,0,60,1.0,4,3.2716713563144474e-08
5.135,0.00930222931468658,77.50000095250633,0,60,1.0,4,2.2411913558993118e-08
5.14,0.01519157517868857,77.50000064957032,0,60,1.0,4,1.5284007638590135e-08
5.145,0.023847336626128316,77.50000044099485,0,60,1.0,4,1.0376349484217558e-08
5.15,0.0359830743700859,77.50000029805052,0,60,1.0,4,7.012953480679083e-09
5.155,0.05218887796857759,77.50000020053736,0,60,1.0,4,4.71852605615448e-09
5.16,0.0727577001223134,77.5000001343228,0,60,1.0,4,3.1605365540385452e-09
5.165,0.0974992498694751,77.50000008956808,0,60,1.0,4,2.1074841323056984e-09
5.17,0.12558706050443358,77.50000005945738,0,60,1.0,4,1.3989971220700468e-09
5.175,0.15549263588878245,77.50000003929229,0,60,1.0,4,9.24524436092778e-10
5.18,0.1850529723539114,77.50000002584984,0,60,1.0,4,6.082316036447403e-10
5.185,0.21169159439317053,77.50000001693002,0,60,1.0,4,3.983533294077086e-10
5.19,0.23277292922115492,77.5000000110384,0,60,1.0,4,2.5972694322049124e-10
5.195,0.24602692519491282,77.5000000071648,0,60,1.0,4,1.6858353667296744e-10
5.2,0.24995056064839283,77.50000000462967,0,60,1.0,4,1.08933390412644e-10
5.205,0.24408826520424054,77.50000000297815,0,60,1.0,4,7.007422616023926e-11
5.21,0.22911894216865275,77.50000000190718,0,60,1.0,4,4.487486983313883e-11
5.215,0.20672661788705934,77.50000000121587,0,60,1.0,4,2.860862396654043e-11
5.22,0.17928878030241233,77.50000000077166,0,60,1.0,4,1.8156791103298448e-11
5.225,0.14946211903866036,77.50000000048755,0,60,1.0,4,1.1471670672215302e-11
5.23,0.1197651512573837,77.50000000030666,0,60,1.0,4,7.215436091749272e-12
5.235,0.09224675744988023,77.50000000019202,0,60,1.0,4,4.51804868027787e-12
5.24,0.06829565320281596,77.5000000001197,0,60,1.0,4,2.816424218026976e-12
5.245,0.04860224607515734,77.50000000007428,0,60,1.0,4,1.7477679434437852e-12
5.25,0.03324612389699793,77.50000000004589,0,60,1.0,4,1.0796905853032298e-12
5.255,0.021859876340472782,77.50000000002822,0,60,1.0,4,6.640648815150865e-13
5.26,0.01381595518554205,77.50000000001728,0,60,1.0,4,4.0659763138083853e-13
5.265,0.008394095110402422,77.50000000001053,0,60,1.0,4,2.4777043162269844e-13
5.27,0.0049052535271608,77.5000000000064,0,60,1.0,4,1.5046787345508003e-13
5.275,0.0027671663551903634,77.50000000000387,0,60,1.0,4,9.094947017729283e-14
5.28,0.0015425553464444616,77.50000000000232,0,60,1.0,4,5.4502807495951216e-14
5.285,0.0009638206637011801,77.50000000000139,0,60,1.0,4,3.2768559107995206e-14
5.29,0.0009804935156568228,77.50000000000082,0,60,1.0,4,1.9393637023099206e-14
5.295,0.0018793744894085216,77.5000000000005,0,60,1.0,4,1.1703056824284003e-14
5.3,0.004535525206900863,77.50000000000028,0,60,1.0,4,6.687461042448002e-15
5.305,0.010832767979632273,77.50000000000017,0,60,1.0,4,4.012476625468801e-15
5.31,0.024208003392322392,77.5000000000001,0,60,1.0,4,2.3406113648568006e-15
5.315,0.0500971897335304,77.50000000000006,0,60,1.0,4,1.3374922084896003e-15
5.32,0.09582894921774403,77.50000000000003,0,60,1.0,4,6.687461042448002e-16
5.325,0.16937896721820658,77.50000000000001,0,60,1.0,4,3.343730521224001e-16
5.33,0.27661303008991756,77.50000000000001,0,60,1.0,4,3.343730521224001e-16
5.335,0.4173782800009149,77.5,0,60,1.0,4,0.0
5.34,0.5818720934538056,77.5,0,60,1.0,4,0.0
5.345,0.7494718801585675,77.5,0,60,1.0,4,0.0
5.35,0.891813020752378,77.5,0,60,1.0,4,0.0
5.355,0.9800361632936612,77.5,0,60,1.0,4,0.0
5.36,0.993574479225126,77.50000249181176,1,60,1.0,4,5.863086484810885e-08
5.365,0.9263438449375362,77.50000384183856,0,60,1.0,4,9.039620147846375e-08
5.37,0.7873015962290536,77.50000605203118,0,60,1.0,4,1.4240073369364837e-07
5.375,0.5959516244629897,77.5000098502643,0,60,1.0,4,2.317709248365966e-07
5.38,0.376910120078773,77.50001674040978,0,60,1.0,4,3.9389199474392037e-07
5.385,0.15739335672107918,77.50002988936268,0,60,1.0,4,7.032791218615089e-07
5.39,-0.033361226269301235,77.50005598658028,0,60,1.0,4,1.3173313006705832e-06
5.395,-0.1680180840843834,77.50010904250446,0,60,1.0,4,2.565705987348445e-06
5.4,-0.23069703190837854,77.50021792763697,0,60,1.0,4,5.127709105114691e-06
5.405,-0.22587267821131068,77.50044088337641,0,60,1.0,4,1.0373726503838256e-05
5.41,-0.17718181630665902,77.50089256449868,0,60,1.0,4,2.1001517616107722e-05
5.415,-0.11494332516451301,77.50179276579377,0,60,1.0,4,4.218272455920455e-05
5.42,-0.061810214049552864,77.50355118942913,0,60,1.0,4,8.355739833251285e-05
5.425,-0.026546104631500547,77.50690959240086,0,60,1.0,4,0.00016257864472610142
5.43,-0.00719600351942686,77.51317112223475,0,60,1.0,4,0.00030990875846475104
5.435,0.0022072757983807078,77.52455545137923,0,60,1.0,4,0.0005777753265700834
5.44,0.006917199873730717,77.54472497706796,0,60,1.0,4,0.0010523524015990033
5.445,0.01004859748264829,77.57952766654348,0,60,1.0,4,0.001871239212787861
5.45,0.013037082251128167,77.63799012210991,0,60,1.0,4,0.0032468264025861597
5.455,0.01645163937690478,77.7335629797193,0,60,1.0,4,0.005495599522806943
5.46,0.020526639934696615,77.88556318136334,0,60,1.0,4,0.009072074855607954
5.465,0.02539629541761738,78.12067063847793,0,60,1.0,4,0.014604015023010173
5.47,0.031171612185577933,78.47422412231587,0,60,1.0,4,0.022922920525079396
5.475,0.03795853426638131,78.99093771170499,0,60,1.0,4,0.03508088733423499
5.48,0.0458588961882057,79.72455313644113,0,60,1.0,4,0.05234242673979131
5.485,0.054966995891435555,80.7358957043249,0,60,1.0,4,0.07613872245470361
5.49,0.06536491004445595,82.08885917455554,0,60,1.0,4,0.10797315704836559
5.495,0.07711726085088699,83.84404871167135,0,60,1.0,4,0.149271734392267
5.5,0.09026570629555215,86.05017854498587,0,60,1.0,4,0.20118067164672632
5.505,0.10482339848670268,88.73382931864452,0,60,1.0,4,0.26432539573281233
5.51,0.12076968927580028,91.88874480991677,0,60,1.0,4,0.33855870140980643
5.515,0.13804539501007884,95.46636445671342,0,60,1.0,4,0.4227379872167864
5.52,0.15654895051787066,99.36959295544153,0,60,1.0,4,0.5145786577750949
5.525,0.17613378141900526,103.45175485582882,0,60,1.0,4,0.6106295260195017
5.53,0.19660720058055794,107.5221797930646,0,60,1.0,4,0.7064042304250493
5.535,0.21773108748496234,111.35892106398657,0,60,1.0,4,0.7966804956232134
5.54,0.23922453870058807,114.72785713078791,0,60,1.0,4,0.8759495795479508
5.545,0.2607685857914563,117.40610393874456,0,60,1.0,4,0.9389671514998721
5.55,0.2820129681603682,119.20657953132158,0,60,1.0,4,0.9813312830899196
5.555,0.30258482867153996,120.0,0,60,1.0,4,1.0
5.56,0.3220990771751686,119.73073626244305,0,60,1.0,4,0.9936643826457188
5.565,0.3401700499968971,118.4238494759471,0,60,1.0,4,0.9629141053164022
5.57,0.3564239911198326,116.18208945321945,0,60,1.0,4,0.910166810663987
5.575,0.3705118017738417,113.1733745291447,0,60,1.0,4,0.8393735183328164
5.58,0.3821214567925213,109.61089082664786,0,60,1.0,4,0.7555503723917144
5.585,0.39098947374066967,105.7291023657552,0,60,1.0,4,0.6642141733118869
5.59,0.3969108472035567,101.75942264604797,0,60,1.0,4,0.5708099446128934
5.595,0.3997469255491936,97.90901232617857,0,60,1.0,4,0.4802120547336134
5.6,0.3994308076379137,94.34526416670559,0,60,1.0,4,0.39635915686366097
5.605,0.3959699661768434,91.18727314888353,0,60,1.0,4,0.3220534858560832
5.61,0.38944595408114946,88.50427463175579,0,60,1.0,4,0.2589241089824892
5.615,0.38001120995358023,86.3199414541806,0,60,1.0,4,0.20752803421601396
5.62,0.3678831374098315,84.62074135275094,0,60,1.0,4,0.16754685535884564
5.625,0.35333577933796634,83.36632600348436,0,60,1.0,4,0.13803120008198494
5.63,0.33668953221163944,82.5000975498113,0,60,1.0,4,0.11764935411320708
5.635,0.3182994390982644,81.95854814001777,0,60,1.0,4,0.1049070150592416
5.64,0.29854265738230645,81.67853656537754,0,60,1.0,4,0.09831850742064803
5.645,0.2778057157821067,81.60221366217804,0,60,1.0,4,0.09652267440418928
5.65,0.2564721553719815,81.67973868879486,0,60,1.0,4,0.09834679267752602
5.655,0.23491109433464996,81.87019922391292,0,60,1.0,4,0.10282821703324517
5.66,0.21346717185309805,82.14126026801704,0,60,1.0,4,0.109206123953342
5.665,0.19245222055656455,82.46805768409277,0,60,1.0,4,0.11689547491982988
5.67,0.17213889801761392,82.83176315010746,0,60,1.0,4,0.12545325059076384
5.675,0.15275638501270183,83.21812687136497,0,60,1.0,4,0.13454416167917582
5.68,0.13448814019607322,83.61618424954153,0,60,1.0,4,0.14391021763627135
5.685,0.11747159495449566,84.01721373745077,0,60,1.0,4,0.15334620558707704
5.69,0.10179958433370105,84.41396310723198,0,60,1.0,4,0.16268148487604656
5.695,0.08752324394101413,84.80011942466255,0,60,1.0,4,0.17176751587441305
5.7,0.07465606047174059,85.1699784655929,0,60,1.0,4,0.18047008154336247
5.705,0.0631787448609295,85.51826494996435,0,60,1.0,4,0.18866505764621994
5.71,0.05304460019959574,85.840059253804,0,60,1.0,4,0.1962366883248
5.715,0.044185078305849994,86.13079426679849,0,60,1.0,4,0.20307751215996445
5.72,0.03651525513023255,86.38629466659549,0,60,1.0,4,0.20908928627283505
5.725,0.0299390014708757,86.60283845793114,0,60,1.0,4,0.21418443430426218
5.73,0.024353677220580638,86.77722659458583,0,60,1.0,4,0.21828768457849004
5.735,0.01965423034339045,86.90685088831356,0,60,1.0,4,0.22133766796031898
5.74,0.015736632374757337,86.98975350722205,0,60,1.0,4,0.22328831781698935
5.745,0.012500627640593535,87.02467353697683,0,60,1.0,4,0.22410996557592552
5.75,0.009851811652115898,87.0110776394444,0,60,1.0,4,0.223790062104574
5.755,0.007703084175428559,86.94917303121116,0,60,1.0,4,0.2223334830873214
5.76,0.005975544002062424,86.83990197261397,0,60,1.0,4,0.2197623993556229
5.765,0.004598905818663047,86.68491779355341,0,60,1.0,4,0.21611571278949201
5.77,0.0035115256454839104,86.4865432253902,0,60,1.0,4,0.21144807589153394
5.775,0.002660121266303676,86.2477124690008,0,60,1.0,4,0.20582852868237184
5.78,0.0019992692560877024,85.9718990017495,0,60,1.0,4,0.19933880004116483
5.785,0.0014907520044639367,85.66303159799958,0,60,1.0,4,0.1920713317176371
5.79,0.0011028178277539807,85.32540139533346,0,60,1.0,4,0.1841270916549049
5.795,0.0008094059938923333,84.96356307129537,0,60,1.0,4,0.1756132487363616
5.8,0.0005893771793717645,84.58223329764274,0,60,1.0,4,0.16664078347394692
5.805,0.0004257792353490551,84.18618961118601,0,60,1.0,4,0.15732210849849432
5.81,0.0003051686392901525,83.78017268883372,0,60,1.0,4,0.14776876914902862
5.815,0.00021699992642659966,83.36879475167348,0,60,1.0,4,0.13808928827467004
5.82,0.00015308884054097838,82.95645646592097,0,60,1.0,4,0.12838721096284625
5.825,0.00010714989329311098,82.5472742782177,0,60,1.0,4,0.11875939478159292
5.83,7.440535854020571e-05,82.1450196423469,0,60,1.0,4,0.10929457981992695
5.835,5.1260276743925106e-05,81.75307108830053,0,60,1.0,4,0.10007226090118894
5.84,3.503659887882241e-05,81.37437957677281,0,60,1.0,4,0.09116187239465436
5.845,2.375894748103639e-05,81.01144709498455,0,60,1.0,4,0.08262228458787169
5.85,1.5984413869232557e-05,80.66631800298667,0,60,1.0,4,0.0745016000702746
5.855,1.0669166579899869e-05,80.34058224944994,0,60,1.0,4,0.06683722939882206
5.86,7.06526633560511e-06,80.03538925452028,0,60,1.0,4,0.059656217753418415
5.865,4.641847214699205e-06,79.75147101231343,0,60,1.0,4,0.0529757885250219
5.87,3.025641074479182e-06,79.4891728003454,0,60,1.0,4,0.046804065890480015
5.875,1.9566278676921314e-06,79.24848979680112,0,60,1.0,4,0.041140936395320564
5.88,1.2553456560008793e-06,79.02910789449058,0,60,1.0,4,0.035979009282131276
5.885,7.990660428214668e-07,78.8304470550233,0,60,1.0,4,0.03130463658878351
5.89,5.046221251618276e-07,78.65170565820313,0,60,1.0,4,0.027098956663602996
5.895,3.1616527078858815e-07,78.49190445841805,0,60,1.0,4,0.02333892843336584
5.9,1.9652884407760343e-07,78.34992894961812,0,60,1.0,4,0.01999832822630865
5.905,1.2120002189836396e-07,78.22456915105091,0,60,1.0,4,0.017048685907080346
5.91,7.415549848886236e-08,78.11455604558064,0,60,1.0,4,0.014460142248956278
5.915,4.501406988770349e-08,78.018594120612,0,60,1.0,4,0.01220221460263514
5.92,0.0,77.93538966935525,0,60,1.0,4,0.010244462808358723
5.925,0.0,77.86367470016516,0,60,1.0,4,0.008557051768592066
5.93,0.0,77.80222646861542,0,60,1.0,4,0.00711121102624508
5.935,0.0,77.74988278736755,0,60,1.0,4,0.0058795949968836175
5.94,0.0,77.70555338106993,0,60,1.0,4,0.004836550142821954
5.945,0.0,77.66822763736607,0,60,1.0,4,0.0039582973497899465
5.95,0.0,77.63697916182198,0,60,1.0,4,0.0032230391016937307
5.955,0.0,77.61096757646521,0,60,1.0,4,0.0026110017991815017
5.96,0.0,77.58943801168321,0,60,1.0,4,0.002104423804310914
5.965,0.0,77.57171873294385,0,60,1.0,4,0.0016874995986788288
5.97,0.0,77.55721732087633,0,60,1.0,4,0.0013462899029725443
5.975,0.0,77.54541578936765,0,60,1.0,4,0.0010686068086506431
5.98,0.0,77.53586498497702,0,60,1.0,4,0.0008438819994594001
5.985,0.0,77.52817856529884,0,60,1.0,4,0.0006630250658551685
5.99,0.0,77.52202680664169,0,60,1.0,4,0.0005182778033338978
5.995,0.0,77.5171304447848,0,60,1.0,4,0.0004030692890540542
6.0,0.0,77.51325470838246,0,60,1.0,4,0.0003118754913520447
6.005,0.0,77.51020366409061,0,60,1.0,4,0.00024008621389672204
6.01,0.0,77.50781495653038,0,60,1.0,4,0.00018388133012663008
6.015,0.0,77.50595499523384,0,60,1.0,4,0.00014011753491378358
6.02,0.0,77.50451461486995,0,60,1.0,4,0.00010622623223405433
6.025,0.0,77.50340521419459,0,60,1.0,5,8.012268693144452e-05
6.03,0.0,77.50255536298914,0,60,1.0,5,6.012618797981037e-05
6.035,0.0,77.50190785429267,0,60,1.0,5,4.489068923924285e-05
6.04,0.0,77.50141717096078,0,60,1.0,5,3.334519907712895e-05
6.045,0.0,77.50104733043376,0,60,1.0,5,2.4643069029734227e-05
6.05,0.0,77.50077006899966,0,60,1.0,5,1.811927058016034e-05
6.055,0.0,77.50056332625815,0,60,1.0,5,1.3254735485776002e-05
6.06,0.0,77.50040999143872,0,60,1.0,5,9.646857381540031e-06
6.065,0.0,77.50029687526775,0,60,1.0,5,6.985300417655333e-06
6.07,0.0,77.50021387384992,0,60,1.0,5,5.032325880366068e-06
6.075,0.0,77.50015329422482,0,60,1.0,5,3.6069229368502634e-06
6.08,0.0,77.50010931464227,0,60,1.0,5,2.5721092299590965e-06
6.085,0.0,77.50007755598538,0,60,1.0,5,1.824846714939935e-06
6.09,0.0,77.50005474402688,0,60,1.0,5,1.288094750193255e-06
6.095,0.0,77.50003844524194,0,60,1.0,5,9.045939280253258e-07
6.1,0.0,77.50002686166287,0,60,1.0,5,6.320391264580394e-07
6.105,0.0,77.50001867272185,0,60,1.0,5,4.393581611887331e-07
6.11,0.0,77.50001291417894,0,60,1.0,5,3.0386303385111047e-07
6.115,0.001684486749771458,77.5000088860839,0,60,1.0,5,2.0908432715901547e-07
6.12,0.003097557930867117,77.50000608328911,0,60,1.0,5,1.431362143060088e-07
6.125,0.005475106668887023,77.50000414334353,0,60,1.0,5,9.7490436032518e-08
6.13,0.00930222931468658,77.50000280768167,0,60,1.0,5,6.606309806128968e-08
6.135,0.01519157517868857,77.50000189290678,0,60,1.0,5,4.453898307420947e-08
6.14,0.023847336626128316,77.50000126968219,0,60,1.0,5,2.9874874986917885e-08
6.145,0.0359830743700859,77.50000084731572,0,60,1.0,5,1.9936840424313284e-08
6.15,0.05218887796857759,77.50000056257437,0,60,1.0,5,1.3237044025599436e-08
6.155,0.0727577001223134,77.50000037161998,0,60,1.0,5,8.743999427786228e-09
6.16,0.0974992498694751,77.50000024423203,0,60,1.0,5,5.7466359200642566e-09
6.165,0.12558706050443358,77.50000015969474,0,60,1.0,5,3.757523191940409e-09
6.17,0.15549263588878245,77.50000010388743,0,60,1.0,5,2.444410122681053e-09
6.175,0.1850529723539114,77.50000006723879,0,60,1.0,5,1.5820891054746051e-09
6.18,0.21169159439317053,77.50000004329733,0,60,1.0,5,1.018760793372434e-09
6.185,0.23277292922115492,77.50000002773875,0,60,1.0,5,6.526764697328498e-10
6.19,0.24602692519491282,77.5000000176806,0,60,1.0,5,4.1601424527470956e-10
6.195,0.24995056064839283,77.50000001121222,0,60,1.0,5,2.6381699439405244e-10
6.2,0.24408826520424054,77.50000000707409,0,60,1.0,5,1.6644923348127014e-10
6.205,0.22911894216865275,77.50000000444052,0,60,1.0,5,1.0448288508889484e-10
6.21,0.20672661788705934,77.5000000027732,0,60,1.0,5,6.525189800253001e-11
6.215,0.17928878030241233,77.50000000172311,0,60,1.0,5,4.054373568899738e-11
6.22,0.14946211903866036,77.5000000010652,0,60,1.0,5,2.5063600867938744e-11
6.225,0.1197651512573837,77.50000000065513,0,60,1.0,5,1.5414932075894767e-11
6.23,0.09224675744988023,77.50000000040089,0,60,1.0,5,9.432663800372906e-12
6.235,0.06829565320281596,77.50000000024406,0,60,1.0,5,5.7425227971500995e-12
6.24,0.04860224607515734,77.50000000014782,0,60,1.0,5,3.4781484881772057e-12
6.245,0.03324612389699793,77.50000000008907,0,60,1.0,5,2.0958502907032036e-12
6.25,0.021859876340472782,77.5000000000534,0,60,1.0,5,1.2565739298759795e-12
6.255,0.01381595518554205,77.50000000003186,0,60,1.0,5,7.49664382858421e-13
6.26,0.008394095110402422,77.5000000000189,0,60,1.0,5,4.447161593227921e-13
6.265,0.0049052535271608,77.50000000001116,0,60,1.0,5,2.6248284591608404e-13
6.27,0.0027671663551903634,77.50000000000655,0,60,1.0,5,1.5414597702842645e-13
6.275,0.0015425553464444616,77.50000000000384,0,60,1.0,5,9.028072407304802e-14
6.28,0.0009638206637011801,77.50000000000223,0,60,1.0,5,5.2496569183216817e-14
6.285,0.0009804935156568228,77.5000000000013,0,60,1.0,5,3.042794774313841e-14
6.29,0.0018793744894085216,77.50000000000074,0,60,1.0,5,1.7387398710364806e-14
6.295,0.004535525206900863,77.50000000000043,0,60,1.0,5,1.0031191563672003e-14
6.3,0.010832767979632273,77.50000000000024,0,60,1.0,5,5.684341886080802e-15
6.305,0.024208003392322392,77.50000000000014,0,60,1.0,5,3.343730521224001e-15
6.31,0.0500971897335304,77.50000000000007,0,60,1.0,5,1.6718652606120004e-15
6.315,0.09582894921774403,77.50000000000004,0,60,1.0,5,1.0031191563672002e-15
6.32,0.16937896721820658,77.50000000000003,0,60,1.0,5,6.687461042448002e-16
6.325,0.27661303008991756,77.50000000000001,0,60,1.0,5,3.343730521224001e-16
6.33,0.4173782800009149,77.5,0,60,1.0,5,0.0
6.335,0.5818720934538056,77.5,0,60,1.0,5,0.0
6.34,0.7494718801585675,77.5,0,60,1.0,5,0.0
6.345,0.891813020752378,77.5,0,60,1.0,5,0.0
6.35,0.9800361632936612,77.5,0,60,1.0,5,0.0
6.355,0.993574479225126,77.50000249070214,1,60,1.0,5,5.8604756331453034e-08
6.36,0.9263438449375362,77.5000037748439,0,60,1.0,5,8.881985656765156e-08
6.365,0.7873015962290536,77.500005833579,0,60,1.0,5,1.372606822555741e-07
6.37,0.5959516244629897,77.50000928366461,0,60,1.0,5,2.1843916730337214e-07
6.375,0.376910120078773,77.500015361103,0,60,1.0,5,3.6143771754883777e-07
6.38,0.15739335672107918,77.50002659138995,0,60,1.0,5,6.256797636230177e-07
6.385,-0.033361226269301235,77.50004815927716,0,60,1.0,5,1.133159462503553e-06
6.39,-0.1680180840843834,77.5000906430617,0,60,1.0,5,2.1327779222701793e-06
6.395,-0.23069703190837854,77.50017533177136,0,60,1.0,5,4.1254534437484836e-06
6.4,-0.22587267821131068,77.50034427932519,0,60,1.0,5,8.100690004486001e-06
6.405,-0.17718181630665902,77.50067876339347,0,60,1.0,5,1.5970903375679934e-05
6.41,-0.11494332516451301,77.50133214821588,0,60,1.0,5,3.1344663903061755e-05
6.415,-0.061810214049552864,77.5025865477528,0,60,1.0,5,6.085994712467415e-05
6.42,-0.026546104631500547,77.50494731977106,0,60,1.0,5,0.00011640752402500125
6.425,-0.00719600351942686,77.50929523851232,0,60,1.0,5,0.00021871149440759086
6.43,0.0022072757983807078,77.5171226889302,0,60,1.0,5,0.0004028867983576594
6.435,0.006917199873730717,77.53088616090623,0,60,1.0,5,0.0007267331977937588
6.44,0.01004859748264829,77.55451044219848,0,60,1.0,5,0.0012825986399641752
6.445,0.013037082251128167,77.59407677734065,0,60,1.0,5,0.00221357123154462
6.45,0.01645163937690478,77.65871339087008,0,60,1.0,5,0.003734432726354739
6.455,0.020526639934696615,77.76167727564739,0,60,1.0,5,0.006157112368173798
6.46,0.02539629541761738,77.92156705033047,0,60,1.0,5,0.009919224713658035
6.465,0.031171612185577933,78.16353698380597,0,60,1.0,5,0.01561263491308162
6.47,0.03795853426638131,78.5202964150463,0,60,1.0,5,0.02400697447167772
6.475,0.0458588961882057,79.03258899051217,0,60,1.0,5,0.036060917423815696
6.48,0.054966995891435555,79.74877354393652,0,60,1.0,5,0.05291231868085935
6.485,0.06536491004445595,80.7231018809971,0,60,1.0,5,0.07583769131757896
6.49,0.07711726085088699,82.01234009388017,0,60,1.0,5,0.1061727080912981
6.495,0.09026570629555215,83.67053603700003,0,60,1.0,5,0.1451890832235302
6.5,0.10482339848670268,85.74200698045453,0,60,1.0,5,0.1939295760106949
6.505,0.12076968927580028,88.25299216597037,0,60,1.0,5,0.25301158037577337
6.51,0.13804539501007884,91.20283520772053,0,60,1.0,5,0.3224196519463653
6.515,0.15654895051787066,94.55594843457419,0,60,1.0,5,0.40131643375468684
6.52,0.17613378141900526,98.2360618659798,0,60,1.0,5,0.48790733802305425
6.525,0.19660720058055794,102.12427180024235,0,60,1.0,5,0.5793946305939377
6.53,0.21773108748496234,106.06210749842371,0,60,1.0,5,0.672049588198205
6.535,0.23922453870058807,109.86021864616963,0,60,1.0,5,0.7614169093216383
6.54,0.2607685857914563,113.31241870434148,0,60,1.0,5,0.8426451459845055
6.545,0.2820129681603682,116.21384448755202,0,60,1.0,5,0.9109139879424005
6.55,0.30258482867153996,118.38110783857866,0,60,1.0,5,0.9619084197312625
6.555,0.3220990771751686,119.6717274950356,0,60,1.0,5,0.9922759410596611
6.56,0.3401700499968971,120.0,0,60,1.0,5,1.0
6.565,0.3564239911198326,119.34686742618811,0,60,1.0,5,0.9846321747338379
6.57,0.3705118017738417,117.76221775269957,0,60,1.0,5,0.9473463000635193
6.575,0.3821214567925213,115.35924796725743,0,60,1.0,5,0.8908058345237043
6.58,0.39098947374066967,112.30178985500262,0,60,1.0,5,0.8188656436471206
6.585,0.3969108472035567,108.78658469160068,0,60,1.0,5,0.736154933920016
6.59,0.3997469255491936,105.02318183622177,0,60,1.0,5,0.6476042784993357
6.595,0.3994308076379137,101.21431013746422,0,60,1.0,5,0.5579837679403347
6.6,0.3959699661768434,97.53923277955604,0,60,1.0,5,0.4715113595189658
6.605,0.38944595408114946,94.14185919721706,0,60,1.0,5,0.39157315758157785
6.61,0.38001120995358023,91.12443922669075,0,60,1.0,5,0.3205750406280177
6.615,0.3678831374098315,88.54671365581692,0,60,1.0,5,0.25992267425451565
6.62,0.35333577933796634,86.42962122580431,0,60,1.0,5,0.21010873472480732
6.625,0.33668953221163944,84.76217841349774,0,60,1.0,5,0.17087478619994673
6.63,0.3182994390982644,83.50998827510688,0,60,1.0,5,0.14141148882604418
6.635,0.29854265738230645,82.6239592616714,0,60,1.0,5,0.12056374733344476
6.64,0.2778057157821067,82.04813671665211,0,60,1.0,5,0.10701498156828493
6.645,0.2564721553719815,81.72596289047014,0,60,1.0,5,0.09943442095223866
6.65,0.23491109433464996,81.60468893918195,0,60,1.0,5,0.09658091621604599
6.655,0.21346717185309805,81.63799504646468,0,60,1.0,5,0.09736458932858073
6.66,0.19245222055656455,81.78709744087013,0,60,1.0,5,0.10087288096165005
6.665,0.17213889801761392,82.02073014370184,0,60,1.0,5,0.10637012102827859
6.67,0.15275638501270183,82.31440368405315,0,60,1.0,5,0.11328008668360345
6.675,0.13448814019607322,82.64929288117871,0,60,1.0,5,0.12115983249832257
6.68,0.11747159495449566,83.0110225176634,0,60,1.0,5,0.12967111806266837
6.685,0.10179958433370105,83.3885292368498,0,60,1.0,5,0.13855362910234836
6.69,0.08752324394101413,83.77309765368632,0,60,1.0,5,0.1476022977337958
6.695,0.07465606047174059,84.15760717412064,0,60,1.0,5,0.15664958056754452
6.7,0.0631787448609295,84.53598520779653,0,60,1.0,5,0.1655525931246242
6.705,0.05304460019959574,84.90283979370203,0,60,1.0,5,0.17418446573416538
6.71,0.044185078305849994,85.2532355842238,0,60,1.0,5,0.18242907256997182
6.715,0.03651525513023255,85.58257682747728,0,60,1.0,5,0.1901782782935831
6.72,0.0299390014708757,85.88656538177838,0,60,1.0,5,0.19733095015949134
6.725,0.024353677220580638,86.1612079739718,0,60,1.0,5,0.20379312879933642
6.73,0.01965423034339045,86.40285309350594,0,60,1.0,5,0.2094788963177868
6.735,0.015736632374757337,86.6082432150249,0,60,1.0,5,0.21431160505940938
6.74,0.012500627640593535,86.77457218739008,0,60,1.0,5,0.21822522793859006
6.745,0.009851811652115898,86.89954068208965,0,60,1.0,5,0.22116566310799177
6.75,0.007703084175428559,86.98140477366222,0,60,1.0,5,0.22309187702734634
6.755,0.005975544002062424,87.01901427304892,0,60,1.0,5,0.22397680642468057
6.76,0.004598905818663047,87.01183856381658,0,60,1.0,5,0.22380796620744897
6.765,0.0035115256454839104,86.95997855926363,0,60,1.0,5,0.22258773080620312
6.77,0.002660121266303676,86.86416411011633,0,60,1.0,5,0.22033327317920787
6.775,0.0019992692560877024,86.72573680860323,0,60,1.0,5,0.21707616020242895
6.78,0.0014907520044639367,86.54661868443019,0,60,1.0,5,0.21286161610423968
6.785,0.0011028178277539807,86.32926778050197,0,60,1.0,5,0.20774747718828154
6.79,0.0008094059938923333,86.0766220284689,0,60,1.0,5,0.20180287125809185
6.795,0.0005893771793717645,85.79203320823416,0,60,1.0,5,0.1951066637231567
6.8,0.0004257792353490551,85.47919306210486,0,60,1.0,5,0.18774571910834953
6.805,0.0003051686392901525,85.1420538353606,0,60,1.0,5,0.1798130314202494
6.81,0.00021699992642659966,84.78474562561813,0,60,1.0,5,0.1714057794263089
6.815,0.00015308884054097838,84.41149294219383,0,60,1.0,5,0.1626233633457372
6.82,0.00010714989329311098,84.02653280638995,0,60,1.0,5,0.15356547779741062
6.825,7.440535854020571e-05,83.63403657080012,0,60,1.0,5,0.14433027225412048
6.83,5.1260276743925106e-05,83.23803741033751,0,60,1.0,5,0.13501264494911794
6.835,3.503659887882241e-05,82.8423651525489,0,60,1.0,5,0.12570270947173867
6.84,2.375894748103639e-05,82.45058978476153,0,60,1.0,5,0.11648446552380078
6.845,1.5984413869232557e-05,82.06597461680163,0,60,1.0,5,0.1074346968659206
6.85,1.0669166579899869e-05,81.69143970684148,0,60,1.0,5,0.09862211074921126
6.855,7.06526633560511e-06,81.32953579030706,0,60,1.0,5,0.09010672447781323
6.86,4.641847214699205e-06,80.98242860237454,0,60,1.0,5,0.08193949652645977
6.865,3.025641074479182e-06,80.65189316618567,0,60,1.0,5,0.07416219214554524
6.87,1.9566278676921314e-06,80.33931734191135,0,60,1.0,5,0.06680746686850245
6.875,1.2553456560008793e-06,80.04571370388507,0,60,1.0,5,0.05989914597376636
6.88,7.990660428214668e-07,79.77173863904802,0,60,1.0,5,0.05345267385995351
6.885,5.046221251618276e-07,79.51771744188935,0,60,1.0,5,0.04747570451504343
6.89,3.1616527078858815e-07,79.28367411824715,0,60,1.0,5,0.04196880278228585
6.895,1.9652884407760343e-07,79.06936459968861,0,60,1.0,5,0.03692622587502616
6.9,1.2120002189836396e-07,78.87431210665059,0,60,1.0,5,0.03233675545060217
6.905,7.415549848886236e-08,78.69784347549275,0,60,1.0,5,0.028184552364535206
6.91,4.501406988770349e-08,78.53912537444172,0,60,1.0,5,0.024450008810393508
6.915,0.0,78.39719946787567,0,60,1.0,5,0.02111057571472155
6.92,0.0,78.27101573919998,0,60,1.0,5,0.018141546804705446
6.925,0.0,78.15946334170297,0,60,1.0,5,0.015516784510658212
6.93,0.0,78.06139850691407,0,60,1.0,5,0.013209376633272327
6.935,0.0,77.97566919470562,0,60,1.0,5,0.011192216346014514
6.94,0.0,77.9011363133772,0,60,1.0,5,0.009438501491228086
6.945,0.0,77.83669146714263,0,60,1.0,5,0.007922152168061851
6.95,0.0,77.78127129994012,0,60,1.0,5,0.006618148233885075
6.955,0.0,77.73386859662963,0,60,1.0,5,0.005502790508932562
6.96,0.0,77.69354037484015,0,60,1.0,5,0.004553891172709507
6.965,0.0,77.6594132533464,0,60,1.0,5,0.0037509000787388364
6.97,0.0,77.63068641703312,0,60,1.0,5,0.0030749745184263087
6.975,0.0,77.60663251599041,0,60,1.0,5,0.002509000376244999
6.98,0.0,77.58659683924148,0,60,1.0,5,0.002037572688034823
6.985,0.0,77.5699950944462,0,60,1.0,5,0.0016469433987340916
6.99,0.0,77.5563101061534,0,60,1.0,5,0.0013249436741977446
6.995,0.0,77.54508771925303,0,60,1.0,5,0.0010608875118360657
7.0,0.0,77.53593216351848,0,60,1.0,5,0.0008454626710230888
7.005,0.0,77.52850110161448,0,60,1.0,5,0.0006706141556348405
7.01,0.0,77.52250054847673,0,60,1.0,5,0.0005294246700406588
7.015,0.0,77.51767981603862,0,60,1.0,5,0.0004159956714970041
7.02,0.0,77.51382660505939,0,60,1.0,5,0.0003253318837504166
7.025,0.0,77.51076233615936,0,60,1.0,5,0.00025323143904375575
7.03,0.0,77.50833778567196,0,60,1.0,5,0.00019618319228129622
7.035,0.0,77.50642906890162,0,60,1.0,5,0.00015127220944999168
7.04,0.0,77.50493399394611,0,60,1.0,5,0.00011609397520260246
7.045,0.0,77.50376879333639,0,60,1.0,5,8.86774902680292e-05
7.05,0.0,77.502865228177,0,60,1.0,5,6.741713357648811e-05
7.055,0.0,77.50216804994355,0,60,1.0,5,5.101293984821228e-05
7.06,0.0,77.501632798266,0,60,1.0,5,3.841878272944942e-05
7.065,0.0,77.50122390851851,0,60,1.0,5,2.8797847494388407e-05
7.07,0.0,77.50091310046415,0,60,1.0,5,2.1484716803436587e-05
7.075,0.0,77.50067801819499,0,60,1.0,5,1.5953369293864692e-05
7.08,0.0,77.50050109181922,0,60,1.0,5,1.1790395746281908e-05
7.085,0.0,77.50036859246728,0,60,1.0,5,8.672763936053396e-06
7.09,0.0,77.5002698539488,0,60,1.0,5,6.349504677500055e-06
7.095,0.0,77.50019663656475,0,60,1.0,5,4.626742700044333e-06
7.1,0.0,77.50014261097807,0,60,1.0,5,3.3555524252653197e-06
7.105,0.0,77.5001029425252,0,60,1.0,5,2.422177063595775e-06
7.11,0.0,77.50007395879989,0,60,1.0,5,1.7402070561863238e-06
7.115,0.0,77.50005288567749,0,60,1.0,5,1.2443688821322747e-06
7.12,0.0,77.5000376391206,0,60,1.0,5,8.856263672013858e-07
7.125,0.0,77.50002666208097,0,60,1.0,5,6.273430816396714e-07
7.13,0.0,77.50001879757373,0,60,1.0,5,4.422958524815733e-07
7.135,0.0,77.50001319054469,0,60,1.0,5,3.1036575746036437e-07
7.14,0.0,77.50000921248602,0,60,1.0,5,2.167643769473002e-07
7.145,0.0,77.50000640389396,0,60,1.0,5,1.506798579451724e-07
7.15,0.001684486749771458,77.500004430621,0,60,1.0,5,1.0424990598360584e-07
7.155,0.003097557930867117,77.50000305097221,0,60,1.0,5,7.178758143227777e-08
7.16,0.005475106668887023,77.50000209105319,0,60,1.0,5,4.920125153309046e-08
7.165,0.00930222931468658,77.50000142641234,0,60,1.0,5,3.356264327896283e-08
7.17,0.01519157517868857,77.50000096845238,0,60,1.0,5,2.2787114898271874e-08
7.175,0.023847336626128316,77.50000065443217,0,60,1.0,5,1.5398404015928355e-08
7.18,0.0359830743700859,77.50000044015351,0,60,1.0,5,1.0356553262039704e-08
7.185,0.05218887796857759,77.50000029464353,0,60,1.0,5,6.9327888789249464e-09
7.19,0.0727577001223134,77.50000019631017,0,60,1.0,5,4.619062779324047e-09
7.195,0.0974992498694751,77.50000013017929,0,60,1.0,5,3.0630420657390083e-09
7.2,0.12558706050443358,77.50000008591998,0,60,1.0,5,2.021646557349253e-09
7.205,0.15549263588878245,77.50000005644164,0,60,1.0,5,1.3280384791869436e-09
7.21,0.1850529723539114,77.5000000369027,0,60,1.0,5,8.682989386322921e-10
7.215,0.21169159439317053,77.5000000240143,0,60,1.0,5,5.650423083673505e-10
7.22,0.23277292922115492,77.50000001555374,0,60,1.0,5,3.6597030242881054e-10
7.225,0.24602692519491282,77.50000001002658,0,60,1.0,5,2.3591958190937634e-10
7.23,0.24995056064839283,77.50000000643315,0,60,1.0,6,1.5136834008444567e-10
7.235,0.24408826520424054,77.50000000410817,0,60,1.0,6,9.666290251890827e-11
7.24,0.22911894216865275,77.50000000261112,0,60,1.0,6,6.143803897002191e-11
7.245,0.20672661788705934,77.5000000016518,0,60,1.0,6,3.8865851713447175e-11
7.25,0.17928878030241233,77.50000000104002,0,60,1.0,6,2.447109181957785e-11
7.255,0.14946211903866036,77.50000000065175,0,60,1.0,6,1.5335351289489637e-11
7.26,0.1197651512573837,77.5000000004065,0,60,1.0,6,9.564741155961254e-12
7.265,0.09224675744988023,77.50000000025236,0,60,1.0,6,5.9377966595895805e-12
7.27,0.06829565320281596,77.50000000015592,0,60,1.0,6,3.668741127886974e-12
7.275,0.04860224607515734,77.50000000009588,0,60,1.0,6,2.2560149826698334e-12
7.28,0.03324612389699793,77.50000000005869,0,60,1.0,6,1.3809607052655123e-12
7.285,0.021859876340472782,77.50000000003575,0,60,1.0,6,8.412825991399587e-13
7.29,0.01381595518554205,77.50000000002167,0,60,1.0,6,5.099189044866601e-13
7.295,0.008394095110402422,77.50000000001309,0,60,1.0,6,3.079575810047305e-13
7.3,0.0049052535271608,77.50000000000786,0,60,1.0,6,1.8490829782368725e-13
7.305,0.0027671663551903634,77.5000000000047,0,60,1.0,6,1.1067748025251443e-13
7.31,0.0015425553464444616,77.5000000000028,0,60,1.0,6,6.587149126811282e-14
7.315,0.0009638206637011801,77.50000000000165,0,60,1.0,6,3.878727404619841e-14
7.32,0.0009804935156568228,77.50000000000098,0,60,1.0,6,2.3071740596445606e-14
7.325,0.0018793744894085216,77.50000000000057,0,60,1.0,6,1.3374922084896003e-14
7.33,0.004535525206900863,77.50000000000033,0,60,1.0,6,7.690580198815202e-15
7.335,0.010832767979632273,77.5000000000002,0,60,1.0,6,4.681222729713601e-15
7.34,0.024208003392322392,77.50000000000011,0,60,1.0,6,2.6749844169792007e-15
7.345,0.0500971897335304,77.50000000000007,0,60,1.0,6,1.6718652606120004e-15
7.35,0.09582894921774403,77.50000000000004,0,60,1.0,6,1.0031191563672002e-15
7.355,0.16937896721820658,77.50000000000001,0,60,1.0,6,3.343730521224001e-16
7.36,0.27661303008991756,77.50000000000001,0,60,1.0,6,3.343730521224001e-16
7.365,0.4173782800009149,77.5,0,60,1.0,6,0.0
7.37,0.5818720934538056,77.5,0,60,1.0,6,0.0
7.375,0.7494718801585675,77.5,0,60,1.0,6,0.0
7.38,0.891813020752378,77.5,0,60,1.0,6,0.0
7.385,0.9800361632936612,77.5,0,60,1.0,6,0.0
7.39,0.993574479225126,77.50000248997046,1,60,1.0,6,5.8587540131745354e-08
7.395,0.9263438449375362,77.50000384762257,0,60,1.0,6,9.053229565752725e-08
7.4,0.7873015962290536,77.50000607642373,0,60,1.0,6,1.4297467600954406e-07
7.405,0.5959516244629897,77.5000099193542,0,60,1.0,6,2.3339656937584068e-07
7.41,0.376910120078773,77.50001691763335,0,60,1.0,6,3.9806196107693883e-07
7.415,0.15739335672107918,77.50003032958121,0,60,1.0,6,7.13637204880262e-07
7.42,-0.033361226269301235,77.50005706326723,0,60,1.0,6,1.3426651114112996e-06
7.425,-0.1680180840843834,77.50011163602987,0,60,1.0,6,2.6267301146109436e-06
7.43,-0.23069703190837854,77.50022405397121,0,60,1.0,6,5.271858146095516e-06
7.435,-0.22587267821131068,77.50045501243203,0,60,1.0,6,1.0706174871235335e-05
7.44,-0.17718181630665902,77.50092427728828,0,60,1.0,6,2.17477009006389e-05
7.445,-0.11494332516451301,77.50186190043328,0,60,1.0,6,4.3809421959608964e-05
7.45,-0.061810214049552864,77.5036974124983,0,60,1.0,6,8.699794113641367e-05
7.455,-0.026546104631500547,77.50720948330502,0,60,1.0,6,0.00016963490129455748
7.46,-0.00719600351942686,77.51376740494521,0,60,1.0,6,0.00032393893988736473
7.465,0.0022072757983807078,77.52570486126365,0,60,1.0,6,0.0006048202650270147
7.47,0.006917199873730717,77.54687310100944,0,60,1.0,6,0.0011028964943397355
7.475,0.01004859748264829,77.58342030040448,0,60,1.0,6,0.0019628305977525597
7.48,0.013037082251128167,77.64483019563318,0,60,1.0,6,0.0034077693090159085
7.485,0.01645163937690478,77.74521845683252,0,60,1.0,6,0.00576984604311807
7.49,0.020526639934696615,77.90482292278939,0,60,1.0,6,0.009525245242103358
7.495,0.02539629541761738,78.15153067952627,0,60,1.0,6,0.015330133635912341
7.5,0.031171612185577933,78.52216589770399,0,60,1.0,6,0.024050962298917296
7.505,0.03795853426638131,79.06313417566034,0,60,1.0,6,0.03677962766259618
7.51,0.0458588961882057,79.82991303787692,0,60,1.0,6,0.05482148324416284
7.515,0.054966995891435555,80.88483816617295,0,60,1.0,6,0.0796432509687754
7.52,0.06536491004445595,82.29271025083777,0,60,1.0,6,0.11276965296088874
7.525,0.07711726085088699,84.1139790420912,0,60,1.0,6,0.15562303628449886
7.53,0.09026570629555215,86.39566362124735,0,60,1.0,6,0.20930973226464356
7.535,0.10482339848670268,89.16071083043977,0,60,1.0,6,0.2743696665985828
7.54,0.12076968927580028,92.39709175659418,0,60,1.0,6,0.3505198060375101
7.545,0.13804539501007884,96.04845287733258,0,60,1.0,6,0.43643418534900186
7.55,0.15654895051787066,100.00841066564702,0,60,1.0,6,0.5296096627211063
7.555,0.17613378141900526,104.12045778604747,0,60,1.0,6,0.6263637126128816
7.56,0.19660720058055794,108.18485302700304,0,60,1.0,6,0.7219965418118364
7.565,0.21773108748496234,111.9728233716453,0,60,1.0,6,0.811125255803419
7.57,0.23922453870058807,115.2470723582789,0,60,1.0,6,0.8881664084300918
7.575,0.2607685857914563,117.78623296545425,0,60,1.0,6,0.9479113638930411
7.58,0.2820129681603682,119.40984825503094,0,60,1.0,6,0.9861140765889632
7.585,0.30258482867153996,120.0,0,60,1.0,6,1.0
7.59,0.3220990771751686,119.5160061135284,0,60,1.0,6,0.9886119085536096
7.595,0.3401700499968971,117.99966259133913,0,60,1.0,6,0.9529332374432736
7.6,0.3564239911198326,115.57011308967998,0,60,1.0,6,0.8957673668159994
7.605,0.3705118017738417,112.40924080138602,0,60,1.0,6,0.8213939012090828
7.61,0.3821214567925213,108.74008947923315,0,60,1.0,6,0.7350609289231329
7.615,0.39098947374066967,104.80188363205593,0,60,1.0,6,0.6423972619307279
7.62,0.3969108472035567,100.82552814904717,0,60,1.0,6,0.5488359564481687
7.625,0.3997469255491936,97.0130132410624,0,60,1.0,6,0.45912972331911517
7.63,0.3994308076379137,93.5231013335713,0,60,1.0,6,0.37701414902520713
7.635,0.3959699661768434,90.4643185404905,0,60,1.0,6,0.30504278918801164
7.64,0.38944595408114946,87.89493732644314,0,60,1.0,6,0.24458676062219156
7.645,0.38001120995358023,85.82858881956196,0,60,1.0,6,0.19596679575439901
7.65,0.3678831374098315,84.24354173369385,0,60,1.0,6,0.15867157020456107
7.655,0.35333577933796634,83.09355905991723,0,60,1.0,6,0.13161315435099355
7.66,0.33668953221163944,82.31851219968635,0,60,1.0,6,0.11337675763967889
7.665,0.3182994390982644,81.8534471763782,0,60,1.0,6,0.10243405120889874
7.67,0.29854265738230645,81.63539558810754,0,60,1.0,6,0.0973034256025304
7.675,0.2778057157821067,81.60776725230997,0,60,1.0,6,0.09665334711317575
7.68,0.2564721553719815,81.7225659161887,0,60,1.0,6,0.09935449214561645
7.685,0.23491109433464996,81.94090307100727,0,60,1.0,6,0.10449183696487693
7.69,0.21346717185309805,82.23236173414895,0,60,1.0,6,0.1113496878623283
7.695,0.19245222055656455,82.5737228448738,0,60,1.0,6,0.11938171399703057
7.7,0.17213889801761392,82.94746101237237,0,60,1.0,6,0.1281755532322911
7.705,0.15275638501270183,83.34028784104275,0,60,1.0,6,0.13741853743630003
7.71,0.13448814019607322,83.74190129408117,0,60,1.0,6,0.14686826574308645
7.715,0.11747159495449566,84.14400555542274,0,60,1.0,6,0.156329542480535
7.72,0.10179958433370105,84.53960260488017,0,60,1.0,6,0.1656377083501217
7.725,0.08752324394101413,84.9225212845037,0,60,1.0,6,0.17464755963538123
7.73,0.07465606047174059,85.28713521594845,0,60,1.0,6,0.18322671096349302
7.735,0.0631787448609295,85.62822001971128,0,60,1.0,6,0.19125223575791245
7.74,0.05304460019959574,85.94090650370732,0,60,1.0,6,0.19860956479311354
7.745,0.044185078305849994,86.22069530027292,0,60,1.0,6,0.20519283059465698
7.75,0.03651525513023255,86.46350713588414,0,60,1.0,6,0.2109060502560975
7.755,0.0299390014708757,86.66575024332924,0,60,1.0,6,0.21566471160774686
7.76,0.024353677220580638,86.82439202975053,0,60,1.0,6,0.2193974595235418
7.765,0.01965423034339045,86.93702615390892,0,60,1.0,6,0.22204767420962157
7.77,0.015736632374757337,87.00192899594394,0,60,1.0,6,0.22357479990456333
7.775,0.012500627640593535,87.0181014934289,0,60,1.0,6,0.22395532925715061
7.78,0.009851811652115898,86.98529377288109,0,60,1.0,6,0.22318338289131984
7.785,0.007703084175428559,86.90401114067697,0,60,1.0,6,0.2212708503688699
7.79,0.005975544002062424,86.77550094420542,0,60,1.0,6,0.2182470810401275
7.795,0.004598905818663047,86.60172064316458,0,60,1.0,6,0.21415813278034312
7.8,0.0035115256454839104,86.38528817010885,0,60,1.0,6,0.2090656040025612
7.805,0.002660121266303676,86.12941631144672,0,60,1.0,6,0.20304508968109924
7.81,0.0019992692560877024,85.8378333951069,0,60,1.0,6,0.19618431517898585
7.815,0.0014907520044639367,85.5146930147361,0,60,1.0,6,0.18858101211143755
7.82,0.0011028178277539807,85.16447583928647,0,60,1.0,6,0.180340607983211
7.825,0.0008094059938923333,84.79188674208152,0,60,1.0,6,0.17157380569603567
7.83,0.0005893771793717645,84.40175053163802,0,60,1.0,6,0.1623941301561886
7.835,0.0004257792353490551,83.99890948084484,0,60,1.0,6,0.15291551719634927
7.84,0.0003051686392901525,83.58812564108673,0,60,1.0,6,0.14325001508439372
7.845,0.00021699992642659966,83.17399060876907,0,60,1.0,6,0.13350566138280173
7.85,0.00015308884054097838,82.76084500333593,0,60,1.0,6,0.1237845883137866
7.855,0.00010714989329311098,82.35270944151372,0,60,1.0,6,0.11418139862385233
7.86,7.440535854020571e-05,81.95322827731624,0,60,1.0,6,0.1047818418192057
7.865,5.1260276743925106e-05,81.5656268469004,0,60,1.0,6,0.09566180816236236
7.87,3.503659887882241e-05,81.19268243627361,0,60,1.0,6,0.08688664555937915
7.875,2.375894748103639e-05,80.83670870048552,0,60,1.0,6,0.07851079295260038
7.88,1.5984413869232557e-05,80.49955282436576,0,60,1.0,6,0.07057771351448858
7.885,1.0669166579899869e-05,80.18260434212327,0,60,1.0,6,0.06312010216760634
7.89,7.06526633560511e-06,79.88681423671093,0,60,1.0,6,0.05616033498143371
7.895,4.641847214699205e-06,79.61272272561617,0,60,1.0,6,0.049711122955674494
7.9,3.025641074479182e-06,79.3604940089418,0,60,1.0,6,0.043776329622159986
7.905,1.9566278676921314e-06,79.12995620540356,0,60,1.0,6,0.03835191071537786
7.91,1.2553456560008793e-06,78.92064472570667,0,60,1.0,6,0.03342693472250978
7.915,7.990660428214668e-07,78.73184742133546,0,60,1.0,6,0.028984645207893154
7.92,5.046221251618276e-07,78.56264998870968,0,60,1.0,6,0.025003529146110114
7.925,3.1616527078858815e-07,78.41198029133812,0,60,1.0,6,0.021458359796191175
7.93,1.9652884407760343e-07,78.27865047304697,0,60,1.0,6,0.018321187601105078
7.935,1.2120002189836396e-07,78.16139596092438,0,60,1.0,6,0.015562257904103075
7.94,7.415549848886236e-08,78.05891068560801,0,60,1.0,6,0.013150839661364992
7.945,4.501406988770349e-08,77.96987806868721,0,60,1.0,6,0.011055954557346079
7.95,0.0,77.89299753381259,0,60,1.0,6,0.009247000795590352
7.955,0.0,77.8270064830745,0,60,1.0,6,0.007694270189988201
7.96,0.0,77.77069783881038,0,60,1.0,6,0.00636936091318536
7.965,0.0,77.72293338065182,0,60,1.0,6,0.005245491309454685
7.97,0.0,77.6826532075086,0,60,1.0,6,0.004297722529613967
7.975,0.0,77.64888172502401,0,60,1.0,6,0.0035030994123296886
7.98,0.0,77.62073060277085,0,60,1.0,6,0.0028407200651964317
7.985,0.0,77.59739916496626,0,60,1.0,6,0.002291745058029699
7.99,0.0,77.57817267726432,0,60,1.0,6,0.0018393571121016388
7.995,0.0,77.56241897406092,0,60,1.0,6,0.0014686817426098407
8.0,0.0,77.54958383962341,0,60,1.0,6,0.0011666785793743337
8.005,0.0,77.53918551600158,0,60,1.0,6,0.0009220121412136665
8.01,0.0,77.53080866455502,0,60,1.0,6,0.000724909754235876
8.015,0.0,77.52409805909379,0,60,1.0,6,0.0005670131551479538
8.02,0.0,77.51875223963577,0,60,1.0,6,0.0004412291679005541
8.025,0.0,77.51451730867906,0,60,1.0,6,0.0003415837336249564
8.03,0.0,77.51118100820227,0,60,1.0,6,0.00026308254593579797
8.035,0.0,77.50856717638953,0,60,1.0,6,0.000201580620930198
8.04,0.0,77.506530648948,0,60,1.0,6,0.0001536623281882545
8.045,0.0,77.50495264109921,0,60,1.0,6,0.00011653273174608651
8.05,0.0,77.50373662283334,0,60,1.0,6,8.792053725515228e-05
8.055,0.0,77.50280468154695,0,60,1.0,6,6.599250698701219e-05
8.06,0.0,77.50209435230339,0,60,1.0,6,4.927887772677262e-05
8.065,0.0,77.50155588612591,0,60,1.0,6,3.660908531561718e-05
8.07,0.0,77.50114992036497,0,60,1.0,6,2.705694976391308e-05
8.075,0.0,77.50084551167804,0,60,1.0,6,1.989439242439563e-05
8.08,0.0,77.50061849094135,0,60,1.0,6,1.4552728031744396e-05
8.085,0.0,77.50045009994905,0,60,1.0,6,1.0590587036444156e-05
8.09,0.0,77.5003258715694,0,60,1.0,6,7.667566338862825e-06
8.095,0.0,77.50023471771487,0,60,1.0,6,5.522769761763116e-06
8.1,0.0,77.50016819270388,0,60,1.0,6,3.95747538545145e-06
8.105,0.0,77.50011990307587,0,60,1.0,6,2.8212488439962992e-06
8.11,0.0,77.50008503845943,0,60,1.0,6,2.0009049278007082e-06
8.115,0.0,77.5000600015309,0,60,1.0,6,1.4118007270018793e-06
8.12,0.0,77.50004211833227,0,60,1.0,6,9.910195829246839e-07
8.125,0.0,77.50002941317382,0,60,1.0,6,6.920746781200732e-07
8.13,0.0,77.50002043499333,0,60,1.0,6,4.80823372500334e-07
8.135,0.0,77.50001412436717,0,60,1.0,6,3.3233805103972213e-07
8.14,0.001684486749771458,77.50000971237372,0,60,1.0,6,2.2852644058409221e-07
8.145,0.003097557930867117,77.50000664421472,0,60,1.0,6,1.5633446403572795e-07
8.15,0.005475106668887023,77.50000452192985,0,60,1.0,6,1.0639834947730432e-07
8.155,0.00930222931468658,77.50000306172282,0,60,1.0,6,7.204053698681973e-08
8.16,0.01519157517868857,77.50000206238532,0,60,1.0,6,4.8526713418836795e-08
8.165,0.023847336626128316,77.5000013820878,0,60,1.0,6,3.2519712998263834e-08
8.17,0.0359830743700859,77.50000092143212,0,60,1.0,6,2.1680755721450518e-08
8.175,0.05218887796857759,77.50000061115722,0,60,1.0,6,1.4380169860113015e-08
8.18,0.0727577001223134,77.50000040327791,0,60,1.0,6,9.48889197281781e-09
8.185,0.0974992498694751,77.50000026473893,0,60,1.0,6,6.229151281064225e-09
8.19,0.12558706050443358,77.50000017289923,0,60,1.0,6,4.068217282003709e-09
8.195,0.15549263588878245,77.50000011233891,0,60,1.0,6,2.643268464239287e-09
8.2,0.1850529723539114,77.50000007261549,0,60,1.0,6,1.7085998184912194e-09
8.205,0.21169159439317053,77.50000004669712,0,60,1.0,6,1.0987558679891449e-09
8.21,0.23277292922115492,77.50000002987535,0,60,1.0,6,7.029494581194526e-10
8.215,0.24602692519491282,77.50000001901506,0,60,1.0,6,4.474132123612114e-10
8.22,0.24995056064839283,77.50000001204049,0,60,1.0,6,2.833055933639544e-10
8.225,0.24408826520424054,77.50000000758494,0,60,1.0,6,1.7846927595896618e-10
8.23,0.22911894216865275,77.5000000047536,0,60,1.0,6,1.1184945780020345e-10
8.235,0.20672661788705934,77.50000000296384,0,60,1.0,6,6.9737512496752e-11
8.24,0.17928878030241233,77.50000000183844,0,60,1.0,6,4.325750738002278e-11
8.245,0.14946211903866036,77.5000000011345,0,60,1.0,6,2.6694003870087567e-11
8.25,0.1197651512573837,77.5000000006965,0,60,1.0,6,1.6388292030623073e-11
8.255,0.09224675744988023,77.5000000004254,0,60,1.0,6,1.0009457315284047e-11
8.26,0.06829565320281596,77.5000000002585,0,60,1.0,6,6.0822458181064576e-12
8.265,0.04860224607515734,77.50000000015626,0,60,1.0,6,3.676766081137912e-12
8.27,0.03324612389699793,77.50000000009398,0,60,1.0,6,2.2112089936854317e-12
8.275,0.021859876340472782,77.50000000005623,0,60,1.0,6,1.3231141672483372e-12
8.28,0.01381595518554205,77.50000000003347,0,60,1.0,6,7.874485377482522e-13
8.285,0.008394095110402422,77.50000000001982,0,60,1.0,6,4.664504077107481e-13
8.29,0.0049052535271608,77.50000000001168,0,60,1.0,6,2.7485464884461285e-13
8.295,0.0027671663551903634,77.50000000000685,0,60,1.0,6,1.6116781112299685e-13
8.3,0.0015425553464444616,77.500000000004,0,60,1.0,6,9.395882764639442e-14
8.305,0.0009638206637011801,77.50000000000232,0,60,1.0,6,5.4502807495951216e-14
8.31,0.0009804935156568228,77.50000000000134,0,60,1.0,6,3.143106689950561e-14
8.315,0.0018793744894085216,77.50000000000077,0,60,1.0,6,1.8056144814609604e-14
8.32,0.004535525206900863,77.50000000000044,0,60,1.0,6,1.0365564615794402e-14
8.325,0.010832767979632273,77.50000000000024,0,60,1.0,6,5.684341886080802e-15
8.33,0.024208003392322392,77.50000000000014,0,60,1.0,6,3.343730521224001e-15
8.335,0.0500971897335304,77.50000000000009,0,60,1.0,6,2.0062383127344005e-15
8.34,0.09582894921774403,77.50000000000004,0,60,1.0,6,1.0031191563672002e-15
8.345,0.16937896721820658,77.50000000000003,0,60,1.0,6,6.687461042448002e-16
8.35,0.27661303008991756,77.50000000000001,0,60,1.0,6,3.343730521224001e-16
8.355,0.4173782800009149,77.5,0,60,1.0,6,0.0
8.36,0.5818720934538056,77.5,0,60,1.0,6,0.0
8.365,0.7494718801585675,77.5,0,60,1.0,6,0.0
8.37,0.891813020752378,77.5,0,60,1.0,6,0.0
8.375,0.9800361632936612,77.5,0,60,1.0,6,0.0
8.38,0.993574479225126,77.50000249070214,1,60,1.0,6,5.8604756331453034e-08
8.385,0.9263438449375362,77.5000037748439,0,60,1.0,6,8.881985656765156e-08
8.39,0.7873015962290536,77.500005833579,0,60,1.0,6,1.372606822555741e-07
8.395,0.5959516244629897,77.50000928366461,0,60,1.0,6,2.1843916730337214e-07
8.4,0.376910120078773,77.500015361103,0,60,1.0,6,3.6143771754883777e-07
8.405,0.15739335672107918,77.50002659138995,0,60,1.0,6,6.256797636230177e-07
8.41,-0.033361226269301235,77.50004815927716,0,60,1.0,6,1.133159462503553e-06
8.415,-0.1680180840843834,77.5000906430617,0,60,1.0,6,2.1327779222701793e-06
8.42,-0.23069703190837854,77.50017533177136,0,60,1.0,6,4.1254534437484836e-06
8.425,-0.22587267821131068,77.50034427932519,0,60,1.0,6,8.100690004486001e-06
8.43,-0.17718181630665902,77.50067876339347,0,60,1.0,6,1.5970903375679934e-05
8.435,-0.11494332516451301,77.50133214821588,0,60,1.0,7,3.1344663903061755e-05
8.44,-0.061810214049552864,77.5025865477528,0,60,1.0,7,6.085994712467415e-05
8.445,-0.026546104631500547,77.50494731977106,0,60,1.0,7,0.00011640752402500125
8.45,-0.00719600351942686,77.50929523851232,0,60,1.0,7,0.00021871149440759086
8.455,0.0022072757983807078,77.5171226889302,0,60,1.0,7,0.0004028867983576594
8.46,0.006917199873730717,77.53088616090623,0,60,1.0,7,0.0007267331977937588
8.465,0.01004859748264829,77.55451044219848,0,60,1.0,7,0.0012825986399641752
8.47,0.013037082251128167,77.59407677734065,0,60,1.0,7,0.00221357123154462
8.475,0.01645163937690478,77.65871339087008,0,60,1.0,7,0.003734432726354739
8.48,0.020526639934696615,77.76167727564739,0,60,1.0,7,0.006157112368173798
8.485,0.02539629541761738,77.92156705033047,0,60,1.0,7,0.009919224713658035
8.49,0.031171612185577933,78.16353698380597,0,60,1.0,7,0.01561263491308162
8.495,0.03795853426638131,78.5202964150463,0,60,1.0,7,0.02400697447167772
8.5,0.0458588961882057,79.03258899051217,0,60,1.0,7,0.036060917423815696
8.505,0.054966995891435555,79.74877354393652,0,60,1.0,7,0.05291231868085935
8.51,0.06536491004445595,80.7231018809971,0,60,1.0,7,0.07583769131757896
8.515,0.07711726085088699,82.01234009388017,0,60,1.0,7,0.1061727080912981
8.52,0.09026570629555215,83.67053603700003,0,60,1.0,7,0.1451890832235302
8.525,0.10482339848670268,85.74200698045453,0,60,1.0,7,0.1939295760106949
8.53,0.12076968927580028,88.25299216597037,0,60,1.0,7,0.25301158037577337
8.535,0.13804539501007884,91.20283520772053,0,60,1.0,7,0.3224196519463653
8.54,0.15654895051787066,94.55594843457419,0,60,1.0,7,0.40131643375468684
8.545,0.17613378141900526,98.2360618659798,0,60,1.0,7,0.48790733802305425
8.55,0.19660720058055794,102.12427180024235,0,60,1.0,7,0.5793946305939377
8.555,0.21773108748496234,106.06210749842371,0,60,1.0,7,0.672049588198205
8.56,0.23922453870058807,109.86021864616963,0,60,1.0,7,0.7614169093216383
8.565,0.2607685857914563,113.31241870434148,0,60,1.0,7,0.8426451459845055
8.57,0.2820129681603682,116.21384448755202,0,60,1.0,7,0.9109139879424005
8.575,0.30258482867153996,118.38110783857866,0,60,1.0,7,0.9619084197312625
8.58,0.3220990771751686,119.6717274950356,0,60,1.0,7,0.9922759410596611
8.585,0.3401700499968971,120.0,0,60,1.0,7,1.0
8.59,0.3564239911198326,119.34686742618811,0,60,1.0,7,0.9846321747338379
8.595,0.3705118017738417,117.76221775269957,0,60,1.0,7,0.9473463000635193
8.6,0.3821214567925213,115.35924796725743,0,60,1.0,7,0.8908058345237043
8.605,0.39098947374066967,112.30178985500262,0,60,1.0,7,0.8188656436471206
8.61,0.3969108472035567,108.78658469160068,0,60,1.0,7,0.736154933920016
8.615,0.3997469255491936,105.02318183622177,0,60,1.0,7,0.6476042784993357
8.62,0.3994308076379137,101.21431013746422,0,60,1.0,7,0.5579837679403347
8.625,0.3959699661768434,97.53923277955604,0,60,1.0,7,0.4715113595189658
8.63,0.38944595408114946,94.14185919721706,0,60,1.0,7,0.39157315758157785
8.635,0.38001120995358023,91.12443922669075,0,60,1.0,7,0.3205750406280177
8.64,0.3678831374098315,88.54671365581692,0,60,1.0,7,0.25992267425451565
8.645,0.35333577933796634,86.42962122580431,0,60,1.0,7,0.21010873472480732
8.65,0.33668953221163944,84.76217841349774,0,60,1.0,7,0.17087478619994673
8.655,0.3182994390982644,83.50998827510688,0,60,1.0,7,0.14141148882604418
8.66,0.29854265738230645,82.6239592616714,0,60,1.0,7,0.12056374733344476
8.665,0.2778057157821067,82.04813671665211,0,60,1.0,7,0.10701498156828493
8.67,0.2564721553719815,81.72596289047014,0,60,1.0,7,0.09943442095223866
8.675,0.23491109433464996,81.60468893918195,0,60,1.0,7,0.09658091621604599
8.68,0.21346717185309805,81.63799504646468,0,60,1.0,7,0.09736458932858073
8.685,0.19245222055656455,81.78709744087013,0,60,1.0,7,0.10087288096165005
8.69,0.17213889801761392,82.02073014370184,0,60,1.0,7,0.10637012102827859
8.695,0.15275638501270183,82.31440368405315,0,60,1.0,7,0.11328008668360345
8.7,0.13448814019607322,82.64929288117871,0,60,1.0,7,0.12115983249832257
8.705,0.11747159495449566,83.0110225176634,0,60,1.0,7,0.12967111806266837
8.71,0.10179958433370105,83.3885292368498,0,60,1.0,7,0.13855362910234836
8.715,0.08752324394101413,83.77309765368632,0,60,1.0,7,0.1476022977337958
8.72,0.07465606047174059,84.15760717412064,0,60,1.0,7,0.15664958056754452
8.725,0.0631787448609295,84.53598520779653,0,60,1.0,7,0.1655525931246242
8.73,0.05304460019959574,84.90283979370203,0,60,1.0,7,0.17418446573416538
8.735,0.044185078305849994,85.2532355842238,0,60,1.0,7,0.18242907256997182
8.74,0.03651525513023255,85.58257682747728,0,60,1.0,7,0.1901782782935831
8.745,0.0299390014708757,85.88656538177838,0,60,1.0,7,0.19733095015949134
8.75,0.024353677220580638,86.1612079739718,0,60,1.0,7,0.20379312879933642
8.755,0.01965423034339045,86.40285309350594,0,60,1.0,7,0.2094788963177868
8.76,0.015736632374757337,86.6082432150249,0,60,1.0,7,0.21431160505940938
8.765,0.012500627640593535,86.77457218739008,0,60,1.0,7,0.21822522793859006
8.77,0.009851811652115898,86.89954068208965,0,60,1.0,7,0.22116566310799177
8.775,0.007703084175428559,86.98140477366222,0,60,1.0,7,0.22309187702734634
8.78,0.005975544002062424,87.01901427304892,0,60,1.0,7,0.22397680642468057
8.785,0.004598905818663047,87.01183856381658,0,60,1.0,7,0.22380796620744897
8.79,0.0035115256454839104,86.95997855926363,0,60,1.0,7,0.22258773080620312
8.795,0.002660121266303676,86.86416411011633,0,60,1.0,7,0.22033327317920787
8.8,0.0019992692560877024,86.72573680860323,0,60,1.0,7,0.21707616020242895
8.805,0.0014907520044639367,86.54661868443019,0,60,1.0,7,0.21286161610423968
8.81,0.0011028178277539807,86.32926778050197,0,60,1.0,7,0.20774747718828154
8.815,0.0008094059938923333,86.0766220284689,0,60,1.0,7,0.20180287125809185
8.82,0.0005893771793717645,85.79203320823416,0,60,1.0,7,0.1951066637231567
8.825,0.0004257792353490551,85.47919306210486,0,60,1.0,7,0.18774571910834953
8.83,0.0003051686392901525,85.1420538353606,0,60,1.0,7,0.1798130314202494
8.835,0.00021699992642659966,84.78474562561813,0,60,1.0,7,0.1714057794263089
8.84,0.00015308884054097838,84.41149294219383,0,60,1.0,7,0.1626233633457372
8.845,0.00010714989329311098,84.02653280638995,0,60,1.0,7,0.15356547779741062
8.85,7.440535854020571e-05,83.63403657080012,0,60,1.0,7,0.14433027225412048
8.855,5.1260276743925106e-05,83.23803741033751,0,60,1.0,7,0.13501264494911794
8.86,3.503659887882241e-05,82.8423651525489,0,60,1.0,7,0.12570270947173867
