Time,ECG,Pressure,R_Peaks,mean_hr,hrv_scale,Phase_Bin,Normalized_Pressure
0.0,0.001684486749771458,77.5,0,60,1.0,0,0.0
0.005,0.003097557930867117,77.5,0,60,1.0,0,0.0
0.01,0.005475106668887023,77.5,0,60,1.0,0,0.0
0.015,0.00930222931468658,77.5,0,60,1.0,0,0.0
0.02,0.01519157517868857,77.5,0,60,1.0,0,0.0
0.025,0.023847336626128316,77.5,0,60,1.0,0,0.0
0.03,0.0359830743700859,77.5,0,60,1.0,0,0.0
0.035,0.05218887796857759,77.5,0,60,1.0,0,0.0
0.04,0.0727577001223134,77.5,0,60,1.0,0,0.0
0.045,0.0974992498694751,77.5,0,60,1.0,0,0.0
0.05,0.12558706050443358,77.5,0,60,1.0,0,0.0
0.055,0.15549263588878245,77.5,0,60,1.0,0,0.0
0.06,0.1850529723539114,77.5,0,60,1.0,0,0.0
0.065,0.21169159439317053,77.5,0,60,1.0,0,0.0
0.07,0.23277292922115492,77.5,0,60,1.0,0,0.0
0.075,0.24602692519491282,77.5,0,60,1.0,0,0.0
0.08,0.24995056064839283,77.5,0,60,1.0,0,0.0
0.085,0.24408826520424054,77.5,0,60,1.0,0,0.0
0.09,0.22911894216865275,77.5,0,60,1.0,0,0.0
0.095,0.20672661788705934,77.5,0,60,1.0,0,0.0
0.1,0.17928878030241233,77.5,0,60,1.0,0,0.0
0.105,0.14946211903866036,77.5,0,60,1.0,0,0.0
0.11,0.1197651512573837,77.5,0,60,1.0,0,0.0
0.115,0.09224675744988023,77.5,0,60,1.0,0,0.0
0.12,0.06829565320281596,77.5,0,60,1.0,0,0.0
0.125,0.04860224607515734,77.5,0,60,1.0,0,0.0
0.13,0.03324612389699793,77.5,0,60,1.0,0,0.0
0.135,0.021859876340472782,77.5,0,60,1.0,0,0.0
0.14,0.01381595518554205,77.5,0,60,1.0,0,0.0
0.145,0.008394095110402422,77.5,0,60,1.0,0,0.0
0.15,0.0049052535271608,77.5,0,60,1.0,0,0.0
0.155,0.0027671663551903634,77.5,0,60,1.0,0,0.0
0.16,0.0015425553464444616,77.5,0,60,1.0,0,0.0
0.165,0.0009638206637011801,77.5,0,60,1.0,0,0.0
0.17,0.0009804935156568228,77.5,0,60,1.0,0,0.0
0.175,0.0018793744894085216,77.5,0,60,1.0,0,0.0
0.18,0.004535525206900863,77.5,0,60,1.0,0,0.0
0.185,0.010832767979632273,77.5,0,60,1.0,0,0.0
0.19,0.024208003392322392,77.5,0,60,1.0,0,0.0
0.195,0.0500971897335304,77.5,0,60,1.0,0,0.0
0.2,0.09582894921774403,77.5,0,60,1.0,0,0.0
0.205,0.16937896721820658,77.5,0,60,1.0,0,0.0
0.21,0.27661303008991756,77.5,0,60,1.0,0,0.0
0.215,0.4173782800009149,77.5,0,60,1.0,0,0.0
0.22,0.5818720934538056,77.5,0,60,1.0,0,0.0
0.225,0.7494718801585675,77.5,0,60,1.0,0,0.0
0.23,0.891813020752378,77.5,0,60,1.0,0,0.0
0.235,0.9800361632936612,77.5,0,60,1.0,0,0.0
0.24,0.993574479225126,77.5,0,60,1.0,0,0.0
0.245,0.9263438449375362,77.5,0,60,1.0,0,0.0
0.25,0.7873015962290536,77.5,0,60,1.0,0,0.0
0.255,0.5959516244629897,77.5,0,60,1.0,0,0.0
0.26,0.376910120078773,77.5,0,60,1.0,0,0.0
0.265,0.15739335672107918,77.5,0,60,1.0,0,0.0
0.27,-0.033361226269301235,77.5,0,60,1.0,0,0.0
0.275,-0.1680180840843834,77.5,0,60,1.0,0,0.0
0.28,-0.23069703190837854,77.5,0,60,1.0,0,0.0
0.285,-0.22587267821131068,77.5,0,60,1.0,0,0.0
0.29,-0.17718181630665902,77.5,0,60,1.0,0,0.0
0.295,-0.11494332516451301,77.5,0,60,1.0,0,0.0
0.3,-0.061810214049552864,77.5,0,60,1.0,0,0.0
0.305,-0.026546104631500547,77.5,0,60,1.0,0,0.0
0.31,-0.00719600351942686,77.5,0,60,1.0,0,0.0
0.315,0.0022072757983807078,77.5,0,60,1.0,0,0.0
0.32,0.006917199873730717,77.5,0,60,1.0,0,0.0
0.325,0.01004859748264829,77.5,0,60,1.0,0,0.0
0.33,0.013037082251128167,77.5,0,60,1.0,0,0.0
0.335,0.01645163937690478,77.5,0,60,1.0,0,0.0
0.34,0.020526639934696615,77.5,0,60,1.0,0,0.0
0.345,0.02539629541761738,77.5,0,60,1.0,0,0.0
0.35,0.031171612185577933,77.5,0,60,1.0,0,0.0
0.355,0.03795853426638131,77.5,0,60,1.0,0,0.0
0.36,0.0458588961882057,77.5,0,60,1.0,0,0.0
0.365,0.054966995891435555,77.5,0,60,1.0,0,0.0
0.37,0.06536491004445595,77.5,0,60,1.0,0,0.0
0.375,0.07711726085088699,77.5,0,60,1.0,0,0.0
0.38,0.09026570629555215,77.5,0,60,1.0,0,0.0
0.385,0.10482339848670268,77.5,0,60,1.0,0,0.0
0.39,0.12076968927580028,77.5,0,60,1.0,0,0.0
0.395,0.13804539501007884,77.5,0,60,1.0,0,0.0
0.4,0.15654895051787066,77.5,0,60,1.0,0,0.0
0.405,0.17613378141900526,77.5,0,60,1.0,0,0.0
0.41,0.19660720058055794,77.5,0,60,1.0,0,0.0
0.415,0.21773108748496234,77.5,0,60,1.0,0,0.0
0.42,0.23922453870058807,77.5,0,60,1.0,0,0.0
0.425,0.2607685857914563,77.5,0,60,1.0,0,0.0
0.43,0.2820129681603682,77.5,0,60,1.0,0,0.0
0.435,0.30258482867153996,77.5,0,60,1.0,0,0.0
0.44,0.3220990771751686,77.5,0,60,1.0,0,0.0
0.445,0.3401700499968971,77.5,0,60,1.0,0,0.0
0.45,0.3564239911198326,77.5,0,60,1.0,0,0.0
0.455,0.3705118017738417,77.5,0,60,1.0,0,0.0
0.46,0.3821214567925213,77.5,0,60,1.0,0,0.0
0.465,0.39098947374066967,77.5,0,60,1.0,0,0.0
0.47,0.3969108472035567,77.5,0,60,1.0,0,0.0
0.475,0.3997469255491936,77.5,0,60,1.0,0,0.0
0.48,0.3994308076379137,77.5,0,60,1.0,0,0.0
0.485,0.3959699661768434,77.5,0,60,1.0,0,0.0
0.49,0.38944595408114946,77.5,0,60,1.0,0,0.0
0.495,0.38001120995358023,77.5,0,60,1.0,0,0.0
0.5,0.3678831374098315,77.5,0,60,1.0,0,0.0
0.505,0.35333577933796634,77.5,0,60,1.0,0,0.0
0.51,0.33668953221163944,77.5,0,60,1.0,0,0.0
0.515,0.3182994390982644,77.5,0,60,1.0,0,0.0
0.52,0.29854265738230645,77.5,0,60,1.0,0,0.0
0.525,0.2778057157821067,77.5,0,60,1.0,0,0.0
0.53,0.2564721553719815,77.5,0,60,1.0,0,0.0
0.535,0.23491109433464996,77.5,0,60,1.0,0,0.0
0.54,0.21346717185309805,77.5,0,60,1.0,0,0.0
0.545,0.19245222055656455,77.5,0,60,1.0,0,0.0
0.55,0.17213889801761392,77.5,0,60,1.0,0,0.0
0.555,0.15275638501270183,77.5,0,60,1.0,0,0.0
0.56,0.13448814019607322,77.5,0,60,1.0,0,0.0
0.565,0.11747159495449566,77.5,0,60,1.0,0,0.0
0.57,0.10179958433370105,77.5,0,60,1.0,0,0.0
0.575,0.08752324394101413,77.5,0,60,1.0,0,0.0
0.58,0.07465606047174059,77.5,0,60,1.0,0,0.0
0.585,0.0631787448609295,77.5,0,60,1.0,0,0.0
0.59,0.05304460019959574,77.5,0,60,1.0,0,0.0
0.595,0.044185078305849994,77.5,0,60,1.0,0,0.0
0.6,0.03651525513023255,77.5,0,60,1.0,0,0.0
0.605,0.0299390014708757,77.5,0,60,1.0,0,0.0
0.61,0.024353677220580638,77.5,0,60,1.0,0,0.0
0.615,0.01965423034339045,77.5,0,60,1.0,0,0.0
0.62,0.015736632374757337,77.5,0,60,1.0,0,0.0
0.625,0.012500627640593535,77.5,0,60,1.0,0,0.0
0.63,0.009851811652115898,77.5,0,60,1.0,0,0.0
0.635,0.007703084175428559,77.5,0,60,1.0,0,0.0
0.64,0.005975544002062424,77.5,0,60,1.0,0,0.0
0.645,0.004598905818663047,77.5,0,60,1.0,0,0.0
0.65,0.0035115256454839104,77.5,0,60,1.0,0,0.0
0.655,0.002660121266303676,77.5,0,60,1.0,0,0.0
0.66,0.0019992692560877024,77.5,0,60,1.0,0,0.0
0.665,0.0014907520044639367,77.5,0,60,1.0,0,0.0
0.67,0.0011028178277539807,77.5,0,60,1.0,0,0.0
0.675,0.0008094059938923333,77.5,0,60,1.0,0,0.0
0.68,0.0005893771793717645,77.5,0,60,1.0,0,0.0
0.685,0.0004257792353490551,77.5,0,60,1.0,0,0.0
0.69,0.0003051686392901525,77.5,0,60,1.0,0,0.0
0.695,0.00021699992642659966,77.5,0,60,1.0,0,0.0
0.7,0.00015308884054097838,77.5,0,60,1.0,0,0.0
0.705,0.00010714989329311098,77.5,0,60,1.0,0,0.0
0.71,7.440535854020571e-05,77.5,0,60,1.0,0,0.0
0.715,5.1260276743925106e-05,77.5,0,60,1.0,0,0.0
0.72,3.503659887882241e-05,77.5,0,60,1.0,0,0.0
0.725,2.375894748103639e-05,77.5,0,60,1.0,0,0.0
0.73,1.5984413869232557e-05,77.5,0,60,1.0,0,0.0
0.735,1.0669166579899869e-05,77.5,0,60,1.0,0,0.0
0.74,7.06526633560511e-06,77.5,0,60,1.0,0,0.0
0.745,4.641847214699205e-06,77.5,0,60,1.0,0,0.0
0.75,3.025641074479182e-06,77.5,0,60,1.0,0,0.0
0.755,1.9566278676921314e-06,77.5,0,60,1.0,0,0.0
0.76,1.2553456560008793e-06,77.5,0,60,1.0,0,0.0
0.765,7.990660428214668e-07,77.5,0,60,1.0,0,0.0
0.77,5.046221251618276e-07,77.5,0,60,1.0,0,0.0
0.775,3.1616527078858815e-07,77.5,0,60,1.0,0,0.0
0.78,1.9652884407760343e-07,77.5,0,60,1.0,0,0.0
0.785,1.2120002189836396e-07,77.5,0,60,1.0,0,0.0
0.79,7.415549848886236e-08,77.5,0,60,1.0,0,0.0
0.795,4.501406988770349e-08,77.5,0,60,1.0,0,0.0
0.8,0.0,77.5,0,60,1.0,0,0.0
0.805,0.0,77.5,0,60,1.0,0,0.0
0.81,0.0,77.5,0,60,1.0,0,0.0
0.815,0.0,77.5,0,60,1.0,0,0.0
0.82,0.0,77.5,0,60,1.0,0,0.0
0.825,0.0,77.5,0,60,1.0,0,0.0
0.83,0.0,77.5,0,60,1.0,0,0.0
0.835,0.0,77.5,0,60,1.0,0,0.0
0.84,0.0,77.5,0,60,1.0,0,0.0
0.845,0.0,77.5,0,60,1.0,0,0.0
0.85,0.0,77.5,0,60,1.0,0,0.0
0.855,0.0,77.5,0,60,1.0,0,0.0
0.86,0.0,77.5,0,60,1.0,0,0.0
0.865,0.0,77.5,0,60,1.0,0,0.0
0.87,0.0,77.5,0,60,1.0,0,0.0
0.875,0.0,77.5,0,60,1.0,0,0.0
0.88,0.0,77.5,0,60,1.0,0,0.0
0.885,0.0,77.5,0,60,1.0,0,0.0
0.89,0.0,77.5,0,60,1.0,0,0.0
0.895,0.0,77.5,0,60,1.0,0,0.0
0.9,0.0,77.5,0,60,1.0,0,0.0
0.905,0.0,77.5,0,60,1.0,0,0.0
0.91,0.0,77.5,0,60,1.0,0,0.0
0.915,0.0,77.5,0,60,1.0,0,0.0
0.92,0.0,77.5,0,60,1.0,0,0.0
0.925,0.0,77.5,0,60,1.0,0,0.0
0.93,0.0,77.5,0,60,1.0,0,0.0
0.935,0.0,77.5,0,60,1.0,0,0.0
0.94,0.0,77.5,0,60,1.0,0,0.0
0.945,0.0,77.5,0,60,1.0,0,0.0
0.95,0.0,77.5,0,60,1.0,0,0.0
0.955,0.0,77.5,0,60,1.0,0,0.0
0.96,0.0,77.5,0,60,1.0,0,0.0
0.965,0.0,77.5,0,60,1.0,0,0.0
0.97,0.0,77.5,0,60,1.0,0,0.0
0.975,0.0,77.5,0,60,1.0,0,0.0
0.98,0.0,77.5,0,60,1.0,0,0.0
0.985,0.0,77.5,0,60,1.0,0,0.0
0.99,0.0,77.5,0,60,1.0,0,0.0
0.995,0.0,77.5,0,60,1.0,0,0.0
1.0,0.001684486749771458,77.5,0,60,1.0,0,0.0
1.005,0.003097557930867117,77.5,0,60,1.0,0,0.0
1.01,0.005475106668887023,77.5,0,60,1.0,0,0.0
1.015,0.00930222931468658,77.5,0,60,1.0,0,0.0
1.02,0.01519157517868857,77.5,0,60,1.0,0,0.0
1.025,0.023847336626128316,77.5,0,60,1.0,0,0.0
1.03,0.0359830743700859,77.5,0,60,1.0,0,0.0
1.035,0.05218887796857759,77.5,0,60,1.0,0,0.0
1.04,0.0727577001223134,77.5,0,60,1.0,0,0.0
1.045,0.0974992498694751,77.5,0,60,1.0,0,0.0
1.05,0.12558706050443358,77.5,0,60,1.0,0,0.0
1.055,0.15549263588878245,77.5,0,60,1.0,0,0.0
1.06,0.1850529723539114,77.5,0,60,1.0,0,0.0
1.065,0.21169159439317053,77.5,0,60,1.0,0,0.0
1.07,0.23277292922115492,77.5,0,60,1.0,0,0.0
1.075,0.24602692519491282,77.5,0,60,1.0,0,0.0
1.08,0.24995056064839283,77.5,0,60,1.0,0,0.0
1.085,0.24408826520424054,77.5,0,60,1.0,0,0.0
1.09,0.22911894216865275,77.5,0,60,1.0,0,0.0
1.095,0.20672661788705934,77.5,0,60,1.0,0,0.0
1.1,0.17928878030241233,77.5,0,60,1.0,0,0.0
1.105,0.14946211903866036,77.5,0,60,1.0,0,0.0
1.11,0.1197651512573837,77.5,0,60,1.0,0,0.0
1.115,0.09224675744988023,77.5,0,60,1.0,0,0.0
1.12,0.06829565320281596,77.5,0,60,1.0,0,0.0
1.125,0.04860224607515734,77.5,0,60,1.0,0,0.0
1.13,0.03324612389699793,77.5,0,60,1.0,0,0.0
1.135,0.021859876340472782,77.5,0,60,1.0,0,0.0
1.14,0.01381595518554205,77.5,0,60,1.0,0,0.0
1.145,0.008394095110402422,77.5,0,60,1.0,0,0.0
1.15,0.0049052535271608,77.5,0,60,1.0,0,0.0
1.155,0.0027671663551903634,77.5,0,60,1.0,0,0.0
1.16,0.0015425553464444616,77.5,0,60,1.0,0,0.0
1.165,0.0009638206637011801,77.5,0,60,1.0,0,0.0
1.17,0.0009804935156568228,77.5,0,60,1.0,0,0.0
1.175,0.0018793744894085216,77.5,0,60,1.0,0,0.0
1.18,0.004535525206900863,77.5,0,60,1.0,0,0.0
1.185,0.010832767979632273,77.5,0,60,1.0,0,0.0
1.19,0.024208003392322392,77.5,0,60,1.0,0,0.0
1.195,0.0500971897335304,77.5,0,60,1.0,0,0.0
1.2,0.09582894921774403,77.5,0,60,1.0,0,0.0
1.205,0.16937896721820658,77.5,0,60,1.0,1,0.0
1.21,0.27661303008991756,77.5,0,60,1.0,1,0.0
1.215,0.4173782800009149,77.5,0,60,1.0,1,0.0
1.22,0.5818720934538056,77.5,0,60,1.0,1,0.0
1.225,0.7494718801585675,77.5,0,60,1.0,1,0.0
1.23,0.891813020752378,77.5,0,60,1.0,1,0.0
1.235,0.9800361632936612,77.5,0,60,1.0,1,0.0
1.24,0.993574479225126,77.50000249379623,1,60,1.0,1,5.8677558372972485e-08
1.245,0.9263438449375362,77.50000382794776,0,60,1.0,1,9.006935917622125e-08
1.25,0.7873015962290536,77.50000600036053,0,60,1.0,1,1.4118495361050436e-07
1.255,0.5959516244629897,77.50000970943701,0,60,1.0,1,2.2845734138975198e-07
1.26,0.376910120078773,77.5000163868594,0,60,1.0,1,3.8557316235496463e-07
1.265,0.15739335672107918,77.50002902423199,0,60,1.0,1,6.829231056947131e-07
1.27,-0.033361226269301235,77.50005389476512,0,60,1.0,1,1.268112120388811e-06
1.275,-0.1680180840843834,77.50010404947875,0,60,1.0,1,2.4482230294191086e-06
1.28,-0.23069703190837854,77.50020622040319,0,60,1.0,1,4.852244780843595e-06
1.285,-0.22587267821131068,77.50041404783398,0,60,1.0,1,9.742301976115521e-06
1.29,-0.17718181630665902,77.50083263801669,0,60,1.0,1,1.959148274562829e-05
1.295,-0.11494332516451301,77.50166268015035,0,60,1.0,1,3.912188589050161e-05
1.3,-0.061810214049552864,77.5032770278292,0,60,1.0,1,7.710653715762687e-05
1.305,-0.026546104631500547,77.50634895429774,0,60,1.0,1,0.0001493871599467077
1.31,-0.00719600351942686,77.5120590120072,0,60,1.0,1,0.0002837414589929294
1.315,0.0022072757983807078,77.52241562190353,0,60,1.0,1,0.0005274263977302032
1.32,0.006917199873730717,77.54073109806174,0,60,1.0,1,0.0009583787779233182
1.325,0.01004859748264829,77.57229617891642,0,60,1.0,1,0.0017010865627392323
1.33,0.013037082251128167,77.62528706971409,0,60,1.0,1,0.0029479310520962505
1.335,0.01645163937690478,77.7119131132812,0,60,1.0,1,0.004986190900734086
1.34,0.020526639934696615,77.84976424958334,0,60,1.0,1,0.008229747049019874
1.345,0.02539629541761738,78.06324165455797,0,60,1.0,1,0.013252744813128709
1.35,0.031171612185577933,78.38485440731901,0,60,1.0,1,0.020820103701623793
1.355,0.03795853426638131,78.85605110071748,0,60,1.0,1,0.031907084722764226
1.36,0.0458588961882057,79.52715125776614,0,60,1.0,1,0.047697676653320836
1.365,0.054966995891435555,80.45588226229052,0,60,1.0,1,0.06955017087742389
1.37,0.06536491004445595,81.70405544530206,0,60,1.0,1,0.09891895165416613
1.375,0.07711726085088699,83.33206946519013,0,60,1.0,1,0.1372251638868266
1.38,0.09026570629555215,85.39123254573106,0,60,1.0,1,0.1856760598995543
1.385,0.10482339848670268,87.9143369512103,0,60,1.0,1,0.24504322238141887
1.39,0.12076968927580028,90.90544393360824,0,60,1.0,1,0.3154222102025468
1.395,0.13804539501007884,94.33034336266256,0,60,1.0,1,0.396008079121472
1.4,0.15654895051787066,98.10950421064753,0,60,1.0,1,0.4849295108387654
1.405,0.17613378141900526,102.11539119616134,0,60,1.0,1,0.5791856752037963
1.41,0.19660720058055794,106.17568759500095,0,60,1.0,1,0.6747220610588459
1.415,0.21773108748496234,110.08321153763839,0,60,1.0,1,0.7666638008856091
1.42,0.23922453870058807,113.61222628224048,0,60,1.0,1,0.8496994419350702
1.425,0.2607685857914563,116.53961398056285,0,60,1.0,1,0.9185791524838317
1.43,0.2820129681603682,118.66827111065578,0,60,1.0,1,0.9686652026036654
1.435,0.30258482867153996,119.84936740314373,0,60,1.0,1,0.9964557036033819
1.44,0.3220990771751686,120.0,0,60,1.0,1,1.0
1.445,0.3401700499968971,119.11335164043977,0,60,1.0,1,0.9791376856574064
1.45,0.3564239911198326,117.2596422087817,0,60,1.0,1,0.9355209931478047
1.455,0.3705118017738417,114.57771066593102,0,60,1.0,1,0.8724167215513182
1.46,0.3821214567925213,111.25864733544083,0,60,1.0,1,0.7943211137750783
1.465,0.39098947374066967,107.52417358062645,0,60,1.0,1,0.7064511430735636
1.47,0.3969108472035567,103.60317581973628,0,60,1.0,1,0.614192372229089
1.475,0.3997469255491936,99.70982687224779,0,60,1.0,1,0.5225841616999479
1.48,0.3994308076379137,96.02611916232044,0,60,1.0,1,0.43590868617224565
1.485,0.3959699661768434,92.69058107724302,0,60,1.0,1,0.3574254371116006
1.49,0.38944595408114946,89.79371843965717,0,60,1.0,1,0.28926396328605103
1.495,0.38001120995358023,87.37958938048318,0,60,1.0,1,0.2324609265996043
1.5,0.3678831374098315,85.45209135214775,0,60,1.0,1,0.1871080318152411
1.505,0.35333577933796634,83.98411918621723,0,60,1.0,1,0.15256751026393478
1.51,0.33668953221163944,82.92773974008752,0,60,1.0,1,0.12771152329617688
1.515,0.3182994390982644,82.22383282330381,0,60,1.0,1,0.11114900760714845
1.52,0.29854265738230645,81.81013488536829,0,60,1.0,1,0.10141493847925377
1.525,0.2778057157821067,81.62715266498432,0,60,1.0,1,0.09710947447021935
1.53,0.2564721553719815,81.62187846806819,0,60,1.0,1,0.09698537571925152
1.535,0.23491109433464996,81.74957199839405,0,60,1.0,1,0.09998992937397755
1.54,0.21346717185309805,81.9740569196691,0,60,1.0,1,0.10527192752162577
1.545,0.19245222055656455,82.2670305887381,0,60,1.0,1,0.11216542561736693
1.55,0.17213889801761392,82.6068399772209,0,60,1.0,1,0.12016094064049178
1.555,0.15275638501270183,82.97707830332679,0,60,1.0,1,0.12887243066651274
1.56,0.13448814019607322,83.36524231629802,0,60,1.0,1,0.13800570155995348
1.565,0.11747159495449566,83.76158527846451,0,60,1.0,1,0.14733141831681196
1.57,0.10179958433370105,84.15821910240557,0,60,1.0,1,0.156663978880131
1.575,0.08752324394101413,84.54846447631488,0,60,1.0,1,0.16584622297211474
1.58,0.07465606047174059,84.92641729835339,0,60,1.0,1,0.17473923054949142
1.585,0.0631787448609295,85.2866873918496,0,60,1.0,1,0.18321617392587286
1.59,0.05304460019959574,85.6242648120442,0,60,1.0,1,0.19115917204809887
1.595,0.044185078305849994,85.93447459191242,0,60,1.0,1,0.19845822569205693
1.6,0.03651525513023255,86.21298860076058,0,60,1.0,1,0.20501149648848427
1.605,0.0299390014708757,86.45587095455626,0,60,1.0,1,0.21072637540132377
1.61,0.024353677220580638,86.65963999461131,0,60,1.0,1,0.2155209410496779
1.615,0.01965423034339045,86.82133492105665,0,60,1.0,1,0.21932552755427404
1.62,0.015736632374757337,86.93857885017128,0,60,1.0,1,0.2220842082393243
1.625,0.012500627640593535,87.00963266008729,0,60,1.0,1,0.2237560625902892
1.63,0.009851811652115898,87.03343582049601,0,60,1.0,1,0.2243161369528473
1.635,0.007703084175428559,87.00963173891398,0,60,1.0,1,0.2237560409156231
1.64,0.005975544002062424,86.938576193165,0,60,1.0,1,0.22208414572152954
1.645,0.004598905818663047,86.82132827999462,0,60,1.0,1,0.219325371293991
1.65,0.0035115256454839104,86.65962406044066,0,60,1.0,1,0.2155205661280156
1.655,0.002660121266303676,86.45583375264079,0,60,1.0,1,0.21072550006213614
1.66,0.0019992692560877024,86.21290391749133,0,60,1.0,1,0.2050095039409725
1.665,0.0014907520044639367,85.93428659481444,0,60,1.0,1,0.19845380223092796
1.67,0.0011028178277539807,85.62385776540609,0,60,1.0,1,0.1911495944801432
1.675,0.0008094059938923333,85.28582782555713,0,60,1.0,1,0.18319594883663848
1.68,0.0005893771793717645,84.92464695644118,0,60,1.0,1,0.17469757544567482
1.685,0.0004257792353490551,84.54490834692771,0,60,1.0,1,0.1657625493394756
1.69,0.0003051686392901525,84.1512521860989,0,60,1.0,1,0.1565000514376212
1.695,0.00021699992642659966,83.74827318768754,0,60,1.0,1,0.14701819265147165
1.7,0.00015308884054097838,83.34043415451329,0,60,1.0,1,0.13742198010619505
1.705,0.00010714989329311098,82.93198775273756,0,60,1.0,1,0.1278114765350013
1.71,7.440535854020571e-05,82.52690826257488,0,60,1.0,1,0.11828019441352654
1.715,5.1260276743925106e-05,82.12883462523583,0,60,1.0,1,0.10891375588790177
1.72,3.503659887882241e-05,81.74102563739208,0,60,1.0,1,0.09978883852687258
1.725,2.375894748103639e-05,81.36632767600855,0,60,1.0,1,0.09097241590608358
1.73,1.5984413869232557e-05,81.00715488812935,0,60,1.0,1,0.08252129148539646
1.735,1.0669166579899869e-05,80.66548136982472,0,60,1.0,1,0.07448191458411102
1.74,7.06526633560511e-06,80.34284450049499,0,60,1.0,1,0.06689045883517625
1.745,4.641847214699205e-06,80.04035830388436,0,60,1.0,1,0.059773136561984956
1.75,3.025641074479182e-06,79.75873548233507,0,60,1.0,1,0.0531467172314134
1.755,1.9566278676921314e-06,79.4983166189272,0,60,1.0,1,0.04701921456299307
1.76,1.2553456560008793e-06,79.25910496239372,0,60,1.0,1,0.04139070499749932
1.765,7.990660428214668e-07,79.04080519796145,0,60,1.0,1,0.03625423995203405
1.77,5.046221251618276e-07,78.84286465667756,0,60,1.0,1,0.03159681545123677
1.775,3.1616527078858815e-07,78.66451551736972,0,60,1.0,1,0.02740036511458169
1.78,1.9652884407760343e-07,78.50481669878073,0,60,1.0,1,0.023642745853664215
1.785,1.2120002189836396e-07,78.36269431353409,0,60,1.0,1,0.020298689730213936
1.79,7.415549848886236e-08,78.23697974928406,0,60,1.0,1,0.01734069998315436
1.795,4.501406988770349e-08,78.12644464506172,0,60,1.0,1,0.014739874001452335
1.8,0.0,78.02983223281902,0,60,1.0,1,0.012466640772212191
1.805,0.0,77.94588470720849,0,60,1.0,1,0.010491404875493934
1.81,0.0,77.87336646401664,0,60,1.0,1,0.008785093270979788
1.815,0.0,77.81108320437647,0,60,1.0,1,0.00731960480885819
1.82,0.0,77.75789703460497,0,60,1.0,1,0.006068165520116843
1.825,0.0,77.7127377985272,0,60,1.0,1,0.0050055952594635425
1.83,0.0,77.67461096019198,0,60,1.0,1,0.0041084931809878605
1.835,0.0,77.64260241090227,0,60,1.0,1,0.003355350844759307
1.84,0.0,77.61588060740796,0,60,1.0,1,0.0027266025272461
1.845,0.0,77.5936964605813,0,60,1.0,1,0.0022046226019129147
1.85,0.0,77.57538138902093,0,60,1.0,1,0.0017736797416690105
1.855,0.0,77.56034393314094,0,60,1.0,1,0.001419857250375103
1.86,0.0,77.5480652957481,0,60,1.0,1,0.0011309481352494754
1.865,0.0,77.53809413809743,0,60,1.0,1,0.0008963326611161151
1.87,0.0,77.53004091886824,0,60,1.0,1,0.0007068451498408944
1.875,0.0,77.52357201997987,0,60,1.0,1,0.0005546357642321495
1.88,0.0,77.51840385980424,0,60,1.0,1,0.0004330319953938295
1.885,0.0,77.51429715282914,0,60,1.0,1,0.0003364035959798591
1.89,0.0,77.51105143644553,0,60,1.0,1,0.00026003379871828174
1.895,0.0,77.5084999511344,0,60,1.0,1,0.0001999988502210967
1.9,0.0,77.50650493041393,0,60,1.0,1,0.0001530571862100019
1.905,0.0,77.50495333166883,0,60,1.0,1,0.00011654898044305221
1.91,0.0,77.50375301836885,0,60,1.0,1,8.830631456128364e-05
1.915,0.0,77.50282938794548,0,60,1.0,1,6.65738340113448e-05
1.92,0.0,77.5021224273595,0,60,1.0,1,4.9939467282242466e-05
1.925,0.0,77.50158416968905,0,60,1.0,1,3.7274580918900775e-05
1.93,0.0,77.50117651939523,0,60,1.0,1,2.7682809299529468e-05
1.935,0.0,77.5008694107589,0,60,1.0,1,2.0456723738708902e-05
1.94,0.0,77.50063926283588,0,60,1.0,1,1.5041478491184535e-05
1.945,0.0,77.50046769468173,0,60,1.0,1,1.1004580746617542e-05
1.95,0.0,77.50034046614508,0,60,1.0,1,8.010968119432458e-06
1.955,0.0,77.50024661186245,0,60,1.0,1,5.80263205767337e-06
1.96,0.0,77.50017773891317,0,60,1.0,1,4.182092074496027e-06
1.965,0.0,77.5001274616702,0,60,1.0,1,2.9990981224326627e-06
1.97,0.0,77.50009095052647,0,60,1.0,1,2.1400123875323246e-06
1.975,0.0,77.500064574248,0,60,1.0,1,1.5193940705959155e-06
1.98,0.0,77.50004561860754,0,60,1.0,1,1.0733790010336259e-06
1.985,0.0,77.50003206662257,0,60,1.0,1,7.545087662626483e-07
1.99,0.0,77.5000224281237,0,60,1.0,1,5.277205576369263e-07
1.995,0.0,77.50001560850087,0,60,1.0,1,3.6725884409433465e-07
2.0,0.0,77.50001080831444,0,60,1.0,1,2.5431328100132624e-07
2.005,0.001684486749771458,77.50000744703297,0,60,1.0,1,1.7522430519367096e-07
2.01,0.003097557930867117,77.50000510548624,0,60,1.0,1,1.2012908795815533e-07
2.015,0.005475106668887023,77.5000034827273,0,60,1.0,1,8.194652456736282e-08
2.02,0.00930222931468658,77.50000236390684,0,60,1.0,1,5.5621337517496775e-08
2.025,0.01519157517868857,77.50000159650313,0,60,1.0,1,3.7564779417794744e-08
2.03,0.023847336626128316,77.50000107284681,0,60,1.0,1,2.5243454448333496e-08
2.035,0.0359830743700859,77.50000071735509,0,60,1.0,1,1.6878943356727284e-08
2.04,0.05218887796857759,77.50000047726456,0,60,1.0,1,1.1229754443989162e-08
2.045,0.0727577001223134,77.5000003159459,0,60,1.0,1,7.4340211058905185e-09
2.05,0.0974992498694751,77.50000020811088,0,60,1.0,1,4.89672649617954e-09
2.055,0.12558706050443358,77.50000013639716,0,60,1.0,1,3.209344988456852e-09
2.06,0.15549263588878245,77.50000008894969,0,60,1.0,1,2.092933888942592e-09
2.065,0.1850529723539114,77.50000005771811,0,60,1.0,1,1.358073204220786e-09
2.07,0.21169159439317053,77.50000003726561,0,60,1.0,1,8.768378232643419e-10
2.075,0.23277292922115492,77.50000002394049,0,60,1.0,1,5.633055747346267e-10
2.08,0.24602692519491282,77.50000001530334,0,60,1.0,1,3.6007864925041384e-10
2.085,0.24995056064839283,77.50000000973347,0,60,1.0,1,2.2902280333629974e-10
2.09,0.24408826520424054,77.50000000615996,0,60,1.0,1,1.4494035253044465e-10
2.095,0.22911894216865275,77.50000000387898,0,60,1.0,1,9.127013393427821e-11
2.1,0.20672661788705934,77.50000000243044,0,60,1.0,1,5.718681998533772e-11
2.105,0.17928878030241233,77.50000000151523,0,60,1.0,1,3.565252668255091e-11
2.11,0.14946211903866036,77.50000000093995,0,60,1.0,1,2.2116436786531908e-11
2.115,0.1197651512573837,77.50000000058017,0,60,1.0,1,1.3651114225949106e-11
2.12,0.09224675744988023,77.50000000035632,0,60,1.0,1,8.38406990891706e-12
2.125,0.06829565320281596,77.50000000021774,0,60,1.0,1,5.123263904619414e-12
2.13,0.04860224607515734,77.5000000001324,0,60,1.0,1,3.1153537266244016e-12
2.135,0.03324612389699793,77.5000000000801,0,60,1.0,1,1.884860894813969e-12
2.14,0.021859876340472782,77.50000000004822,0,60,1.0,1,1.1345277658513034e-12
2.145,0.01381595518554205,77.50000000002889,0,60,1.0,1,6.797804149648394e-13
2.15,0.008394095110402422,77.50000000001721,0,60,1.0,1,4.049257661202265e-13
2.155,0.0049052535271608,77.5000000000102,0,60,1.0,1,2.4007985142388327e-13
2.16,0.0027671663551903634,77.50000000000603,0,60,1.0,1,1.4177417409989764e-13
2.165,0.0015425553464444616,77.50000000000354,0,60,1.0,1,8.325888997847762e-14
2.17,0.0009638206637011801,77.50000000000206,0,60,1.0,1,4.848409255774801e-14
2.175,0.0009804935156568228,77.5000000000012,0,60,1.0,1,2.808733637828161e-14
2.18,0.0018793744894085216,77.5000000000007,0,60,1.0,1,1.6384279553997603e-14
2.185,0.004535525206900863,77.5000000000004,0,60,1.0,1,9.362445459427202e-15
2.19,0.010832767979632273,77.50000000000023,0,60,1.0,1,5.349968833958401e-15
2.195,0.024208003392322392,77.50000000000013,0,60,1.0,1,3.0093574691016007e-15
2.2,0.0500971897335304,77.50000000000007,0,60,1.0,1,1.6718652606120004e-15
2.205,0.09582894921774403,77.50000000000004,0,60,1.0,1,1.0031191563672002e-15
2.21,0.16937896721820658,77.50000000000003,0,60,1.0,1,6.687461042448002e-16
2.215,0.27661303008991756,77.50000000000001,0,60,1.0,1,3.343730521224001e-16
2.22,0.4173782800009149,77.5,0,60,1.0,1,0.0
2.225,0.5818720934538056,77.5,0,60,1.0,1,0.0
2.23,0.7494718801585675,77.5,0,60,1.0,1,0.0
2.235,0.891813020752378,77.5,0,60,1.0,1,0.0
2.24,0.9800361632936612,77.5,0,60,1.0,1,0.0
2.245,0.993574479225126,77.50000249553136,1,60,1.0,1,5.871838498826358e-08
2.25,0.9263438449375362,77.5000037979206,0,60,1.0,1,8.936283761078598e-08
2.255,0.7873015962290536,77.50000589651982,0,60,1.0,1,1.387416429064187e-07
2.26,0.5959516244629897,77.5000094348155,0,60,1.0,1,2.2199565872891553e-07
2.265,0.376910120078773,77.50001571195249,0,60,1.0,1,3.6969299966425324e-07
2.27,0.15739335672107918,77.50002740197677,0,60,1.0,1,6.447523944911261e-07
2.275,-0.033361226269301235,77.5000500328844,0,60,1.0,1,1.177244338885644e-06
2.28,-0.1680180840843834,77.50009495573708,0,60,1.0,1,2.234252637248681e-06
2.285,-0.23069703190837854,77.50018514752661,0,60,1.0,1,4.356412390774601e-06
2.29,-0.22587267821131068,77.50036623180388,0,60,1.0,1,8.617218914838198e-06
2.295,-0.17718181630665902,77.50072678709442,0,60,1.0,1,1.710087280992625e-05
2.3,-0.11494332516451301,77.50143461155861,0,60,1.0,1,3.3755566084892054e-05
2.305,-0.061810214049552864,77.5027993939534,0,60,1.0,1,6.58680930210748e-05
2.31,-0.026546104631500547,77.50537738125638,0,60,1.0,1,0.0001265266177971866
2.315,-0.00719600351942686,77.5101400375162,0,60,1.0,1,0.0002385891180281038
2.32,0.0022072757983807078,77.51873573170647,0,60,1.0,1,0.00044084074603460975
2.325,0.006917199873730717,77.53387969714991,0,60,1.0,1,0.0007971693447038486
2.33,0.01004859748264829,77.55991023047092,0,60,1.0,1,0.0014096524816686858
2.335,0.013037082251128167,77.60354438392822,0,60,1.0,1,0.00243633844536997
2.34,0.01645163937690478,77.67484918417814,0,60,1.0,1,0.004114098451250423
2.345,0.020526639934696615,77.7884093308522,0,60,1.0,1,0.0067861019024047994
2.35,0.02539629541761738,77.96461536956245,0,60,1.0,1,0.01093212634264593
2.355,0.031171612185577933,78.23091721059663,0,60,1.0,1,0.017198052014038345
2.36,0.03795853426638131,78.6227928599652,0,60,1.0,1,0.02641865552859298
2.365,0.0458588961882057,79.18408665755831,0,60,1.0,1,0.03962556841313672
2.37,0.054966995891435555,79.96630039667855,0,60,1.0,1,0.058030597568907015
2.375,0.06536491004445595,81.02640747170874,0,60,1.0,1,0.08297429345197027
2.38,0.07711726085088699,82.42283947403011,0,60,1.0,1,0.11583151703600265
2.385,0.09026570629555215,84.20949296015137,0,60,1.0,1,0.15787042259179684
2.39,0.10482339848670268,86.42792724167438,0,60,1.0,1,0.21006887627469134
2.395,0.12076968927580028,89.09834551335945,0,60,1.0,1,0.2729022473731635
2.4,0.13804539501007884,92.21040668051529,0,60,1.0,1,0.3461272160121245
2.405,0.15654895051787066,95.71530488045332,0,60,1.0,1,0.4285954089518428
2.41,0.17613378141900526,99.52076142138833,0,60,1.0,2,0.518135562856196
2.415,0.19660720058055794,103.49049392863455,0,60,1.0,2,0.6115410336149306
2.42,0.21773108748496234,107.44929879905975,0,60,1.0,2,0.7046893835072882
2.425,0.23922453870058807,111.1941190293451,0,60,1.0,2,0.792802800690473
2.43,0.2607685857914563,114.51047262775617,0,60,1.0,2,0.8708346500648512
2.435,0.2820129681603682,117.1925695932531,0,60,1.0,2,0.9339428139588964
2.44,0.30258482867153996,119.06457506308963,0,60,1.0,2,0.977990001484462
2.445,0.3220990771751686,120.0,0,60,1.0,2,1.0
2.45,0.3401700499968971,119.93626626357627,0,60,1.0,2,0.9985003826723828
2.455,0.3564239911198326,118.88213103465766,0,60,1.0,2,0.9736972008154744
2.46,0.3705118017738417,116.91676286621725,0,60,1.0,2,0.9274532439109943
2.465,0.3821214567925213,114.18061934032266,0,60,1.0,2,0.8630733962428863
2.47,0.39098947374066967,110.85960266710498,0,60,1.0,2,0.7849318274612936
2.475,0.3969108472035567,107.16499075378253,0,60,1.0,2,0.6979997824419419
2.48,0.3997469255491936,103.31215997547778,0,60,1.0,2,0.6073449405994773
2.485,0.3994308076379137,99.50105733238124,0,60,1.0,2,0.5176719372324997
2.49,0.3959699661768434,95.90080270694628,0,60,1.0,2,0.43296006369285367
2.495,0.38944595408114946,92.63987384862794,0,60,1.0,2,0.35623232585006925
2.5,0.38001120995358023,89.80227211535595,0,60,1.0,2,0.2894652262436693
2.505,0.3678831374098315,87.429107562273,0,60,1.0,2,0.23362606028877655
2.51,0.35333577933796634,85.52434499291017,0,60,1.0,2,0.18880811748023937
2.515,0.33668953221163944,84.06310121889615,0,60,1.0,2,0.1544259110328506
2.52,0.3182994390982644,83.00087339718817,0,60,1.0,2,0.129432315227957
2.525,0.29854265738230645,82.28233533973716,0,60,1.0,2,0.11252553740558022
2.53,0.2778057157821067,81.84875222780497,0,60,1.0,2,0.10232358183070507
2.535,0.2564721553719815,81.64351943719842,0,60,1.0,2,0.09749457499290402
2.54,0.23491109433464996,81.61573561778272,0,60,1.0,2,0.09684083806547572
2.545,0.21346717185309805,81.7220173312601,0,60,1.0,2,0.09934158426494365
2.55,0.19245222055656455,81.92693369355118,0,60,1.0,2,0.10416314573061594
2.555,0.17213889801761392,82.20249593298601,0,60,1.0,2,0.1106469631290826
2.56,0.15275638501270183,82.52710789170109,0,60,1.0,2,0.11828489156943747
2.565,0.13448814019607322,82.88430441935833,0,60,1.0,2,0.12668951574960777
2.57,0.11747159495449566,83.26150706007847,0,60,1.0,2,0.1355648720018464
2.575,0.10179958433370105,83.64893355810317,0,60,1.0,2,0.14468078960242745
2.58,0.08752324394101413,84.03872273042094,0,60,1.0,2,0.1538522995393163
2.585,0.07465606047174059,84.42428381662813,0,60,1.0,2,0.16292432509713253
2.59,0.0631787448609295,84.79984820751459,0,60,1.0,2,0.17176113429446085
2.595,0.05304460019959574,85.16018700493531,0,60,1.0,2,0.18023969423377198
2.6,0.044185078305849994,85.50045479613394,0,60,1.0,2,0.18824599520315147
2.605,0.03651525513023255,85.81612348054294,0,60,1.0,2,0.1956734936598339
2.61,0.0299390014708757,86.10297630590426,0,60,1.0,2,0.20242297190362973
2.615,0.024353677220580638,86.35713909920837,0,60,1.0,2,0.20840327292254984
2.62,0.01965423034339045,86.5751317625649,0,60,1.0,2,0.21353251206035045
2.625,0.015736632374757337,86.75392796721998,0,60,1.0,2,0.21773948158164658
2.63,0.012500627640593535,86.89101460585793,0,60,1.0,2,0.22096504954959842
2.635,0.009851811652115898,86.98444515996042,0,60,1.0,2,0.22316341552848037
2.64,0.007703084175428559,87.0328829744056,0,60,1.0,2,0.22430312880954342
2.645,0.005975544002062424,87.03563175280645,0,60,1.0,2,0.22436780594838712
2.65,0.004598905818663047,86.99265158497569,0,60,1.0,2,0.22335650788178094
2.655,0.0035115256454839104,86.90455962174919,0,60,1.0,2,0.2212837558058632
2.66,0.002660121266303676,86.7726151996039,0,60,1.0,2,0.2181791811671507
2.665,0.0019992692560877024,86.5986898271919,0,60,1.0,2,0.21408681946333893
2.67,0.0014907520044639367,86.38522299196607,0,60,1.0,2,0.20906407039920175
2.675,0.0011028178277539807,86.13516522658897,0,60,1.0,2,0.20318035827268158
2.68,0.0008094059938923333,85.85191028364954,0,60,1.0,2,0.19651553608587163
2.685,0.0005893771793717645,85.53921859307545,0,60,1.0,2,0.1891580845429517
2.69,0.0004257792353490551,85.20113441032936,0,60,1.0,2,0.18120316259598493
2.695,0.0003051686392901525,84.84189919885794,0,60,1.0,2,0.17275056938489283
2.7,0.00021699992642659966,84.4658638252098,0,60,1.0,2,0.16390267824023047
2.705,0.00015308884054097838,84.07740208207215,0,60,1.0,2,0.15476240193110952
2.71,0.00010714989329311098,83.68082789985633,0,60,1.0,2,0.14543124470250177
2.715,7.440535854020571e-05,83.28031837196917,0,60,1.0,2,0.136007491105157
2.72,5.1260276743925106e-05,82.87984441636587,0,60,1.0,2,0.12658457450272637
2.725,3.503659887882241e-05,82.48311054260569,0,60,1.0,2,0.11724965982601615
2.73,2.375894748103639e-05,82.09350480709807,0,60,1.0,2,0.10808246604936639
2.735,1.5984413869232557e-05,81.71405963766578,0,60,1.0,2,0.09915434441566551
2.74,1.0669166579899869e-05,81.34742380962653,0,60,1.0,2,0.09052761905003609
2.745,7.06526633560511e-06,80.99584547562104,0,60,1.0,2,0.0822551876616715
2.75,4.641847214699205e-06,80.66116580464649,0,60,1.0,2,0.07438037187403498
2.755,3.025641074479182e-06,80.34482248380725,0,60,1.0,2,0.0669369996189941
2.76,1.9566278676921314e-06,80.04786208778954,0,60,1.0,2,0.05994969618328328
2.765,1.2553456560008793e-06,79.77096013143739,0,60,1.0,2,0.05343435603382097
2.77,7.990660428214668e-07,79.51444749231865,0,60,1.0,2,0.04739876452514476
2.775,5.046221251618276e-07,79.278341822098,0,60,1.0,2,0.041843336990541165
2.78,3.1616527078858815e-07,79.06238255449453,0,60,1.0,2,0.0367619424586949
2.785,1.9652884407760343e-07,78.86606815798669,0,60,1.0,2,0.03214278018792209
2.79,1.2120002189836396e-07,78.68869436592169,0,60,1.0,2,0.027969279198157438
2.795,7.415549848886236e-08,78.52939223681737,0,60,1.0,2,0.02422099380746759
2.8,4.501406988770349e-08,78.38716504432811,0,60,1.0,2,0.020874471631249742
2.805,0.0,78.26092316041584,0,60,1.0,2,0.017904074362725703
2.81,0.0,78.14951626792161,0,60,1.0,2,0.01528273571580264
2.815,0.0,78.05176241193382,0,60,1.0,2,0.012982644986678171
2.82,0.0,77.96647356610181,0,60,1.0,2,0.010975848614160268
2.825,0.0,77.89247754460511,0,60,1.0,2,0.009234765755414454
2.83,0.0,77.8286362284681,0,60,1.0,2,0.00773261714042586
2.835,0.0,77.77386019328746,0,60,1.0,2,0.0064437692538226255
2.84,0.0,77.72711992251153,0,60,1.0,2,0.005343998176741974
2.845,0.0,77.68745386566955,0,60,1.0,2,0.004410679192224787
2.85,0.0,77.65397365492345,0,60,1.0,2,0.003622909527610532
2.855,0.0,77.62586682737643,0,60,1.0,2,0.00296157240885711
2.86,0.0,77.60239741673563,0,60,1.0,2,0.0024093509820147575
2.865,0.0,77.58290477863605,0,60,1.0,2,0.0019507006737893896
2.87,0.0,77.56680100188535,0,60,1.0,2,0.0015717882796553462
2.875,0.0,77.55356723584703,0,60,1.0,2,0.0012604055493418
2.88,0.0,77.54274923483845,0,60,1.0,2,0.001005864349140077
2.885,0.0,77.5339523862881,0,60,1.0,2,0.000798879677367214
2.89,0.0,77.52683645271036,0,60,1.0,2,0.0006314459461260172
2.895,0.0,77.52111022023206,0,60,1.0,2,0.0004967110642837725
2.9,0.0,77.51652621000613,0,60,1.0,2,0.0003888520001443313
2.905,0.0,77.51287557458264,0,60,1.0,2,0.0003029546960620417
2.91,0.0,77.50998327004963,0,60,1.0,2,0.00023490047175601724
2.915,0.0,77.50770356706387,0,60,1.0,2,0.0001812604015028415
2.92,0.0,77.50591594005692,0,60,1.0,2,0.0001391985895746556
2.925,0.0,77.5045213539901,0,60,1.0,2,0.00010638479976705639
2.93,0.0,77.50343895192604,0,60,1.0,2,8.091651590689253e-05
2.935,0.0,77.50260313413699,0,60,1.0,2,6.125021498800218e-05
2.94,0.0,77.50196101013708,0,60,1.0,2,4.614141499012155e-05
2.945,0.0,77.50147019851048,0,60,1.0,2,3.459290612882422e-05
2.95,0.0,77.50109694528726,0,60,1.0,2,2.581047734726299e-05
2.955,0.0,77.50081452947285,0,60,1.0,2,1.9165399361126593e-05
2.96,0.0,77.50060192376263,0,60,1.0,2,1.4162912061893247e-05
2.965,0.0,77.50044267910418,0,60,1.0,2,1.041597892193589e-05
2.97,0.0,77.50032400327848,0,60,1.0,2,7.623606552442652e-06
2.975,0.0,77.5002360057779,0,60,1.0,2,5.553077126893079e-06
2.98,0.0,77.50017108373179,0,60,1.0,2,4.025499571432246e-06
2.985,0.0,77.50012342628081,0,60,1.0,2,2.9041477837247786e-06
2.99,0.0,77.50008861748469,0,60,1.0,2,2.0851172868841626e-06
2.995,0.0,77.50006332045746,0,60,1.0,2,1.4898931166338597e-06
3.0,0.0,77.50004502788177,0,60,1.0,2,1.0594795710136062e-06
3.005,0.0,77.50003186631457,0,60,1.0,2,7.49795636987555e-07
3.01,0.0,77.50002244372865,0,60,1.0,2,5.28087733019835e-07
3.015,0.0,77.50001573153237,0,60,1.0,2,3.701537028679441e-07
3.02,0.0,77.50001097387214,0,60,1.0,2,2.5820875614900773e-07
3.025,0.0,77.50000761836212,0,60,1.0,2,1.7925557926901092e-07
3.03,0.001684486749771458,77.50000526351877,0,60,1.0,2,1.2384750053730815e-07
3.035,0.003097557930867117,77.50000361912504,0,60,1.0,2,8.51558832651148e-08
3.04,0.005475106668887023,77.50000247653146,0,60,1.0,2,5.827132855194898e-08
3.045,0.00930222931468658,77.50000168654122,0,60,1.0,2,3.9683322938799394e-08
3.05,0.01519157517868857,77.50000114304392,0,60,1.0,2,2.6895150995187578e-08
3.055,0.023847336626128316,77.50000077097754,0,60,1.0,2,1.814064790671503e-08
3.06,0.0359830743700859,77.50000051752744,0,60,1.0,2,1.2177116225168849e-08
3.065,0.05218887796857759,77.50000034573065,0,60,1.0,2,8.134838935802691e-09
3.07,0.0727577001223134,77.50000022985567,0,60,1.0,2,5.408368759376839e-09
3.075,0.0974992498694751,77.50000015208467,0,60,1.0,2,3.5784627444252904e-09
3.08,0.12558706050443358,77.50000010014482,0,60,1.0,2,2.3563486325549412e-09
3.085,0.15549263588878245,77.50000006562728,0,60,1.0,2,1.544171201363925e-09
3.09,0.1850529723539114,77.50000004280092,0,60,1.0,2,1.0070804739156944e-09
3.095,0.21169159439317053,77.50000002778016,0,60,1.0,2,6.536508328067344e-10
3.1,0.23277292922115492,77.50000001794442,0,60,1.0,2,4.222215466143098e-10
3.105,0.24602692519491282,77.5000000115355,0,60,1.0,2,2.714236469567849e-10
3.11,0.24995056064839283,77.50000000738001,0,60,1.0,2,1.7364728217430907e-10
3.115,0.24408826520424054,77.50000000469883,0,60,1.0,2,1.1056078405732371e-10
3.12,0.22911894216865275,77.50000000297739,0,60,1.0,2,7.005617001542466e-11
3.125,0.20672661788705934,77.50000000187757,0,60,1.0,2,4.417803639251575e-11
3.13,0.17928878030241233,77.50000000117832,0,60,1.0,2,2.7725210362833048e-11
3.135,0.14946211903866036,77.50000000073595,0,60,1.0,2,1.7316511623314855e-11
3.14,0.1197651512573837,77.50000000045745,0,60,1.0,2,1.0763468547820058e-11
3.145,0.09224675744988023,77.50000000028298,0,60,1.0,2,6.658370586913353e-12
3.15,0.06829565320281596,77.50000000017421,0,60,1.0,2,4.0990792459685025e-12
3.155,0.04860224607515734,77.50000000010674,0,60,1.0,2,2.511475994491347e-12
3.16,0.03324612389699793,77.50000000006509,0,60,1.0,2,1.5314285787205924e-12
3.165,0.021859876340472782,77.50000000003949,0,60,1.0,2,9.292227118481499e-13
3.17,0.01381595518554205,77.50000000002385,0,60,1.0,2,5.610779814613874e-13
3.175,0.008394095110402422,77.50000000001434,0,60,1.0,2,3.373824095915017e-13
3.18,0.0049052535271608,77.50000000000857,0,60,1.0,2,2.0162695042980724e-13
3.185,0.0027671663551903634,77.5000000000051,0,60,1.0,2,1.2003992571194163e-13
3.19,0.0015425553464444616,77.50000000000303,0,60,1.0,2,7.122146010207122e-14
3.195,0.0009638206637011801,77.50000000000178,0,60,1.0,2,4.1796631515300014e-14
3.2,0.0009804935156568228,77.50000000000105,0,60,1.0,2,2.4743605857057607e-14
3.205,0.0018793744894085216,77.50000000000061,0,60,1.0,2,1.4378041241263203e-14
3.21,0.004535525206900863,77.50000000000036,0,60,1.0,2,8.359326303060002e-15
3.215,0.010832767979632273,77.5000000000002,0,60,1.0,2,4.681222729713601e-15
3.22,0.024208003392322392,77.50000000000011,0,60,1.0,2,2.6749844169792007e-15
3.225,0.0500971897335304,77.50000000000007,0,60,1.0,2,1.6718652606120004e-15
3.23,0.09582894921774403,77.50000000000004,0,60,1.0,2,1.0031191563672002e-15
3.235,0.16937896721820658,77.50000000000001,0,60,1.0,2,3.343730521224001e-16
3.24,0.27661303008991756,77.50000000000001,0,60,1.0,2,3.343730521224001e-16
3.245,0.4173782800009149,77.5,0,60,1.0,2,0.0
3.25,0.5818720934538056,77.5,0,60,1.0,2,0.0
3.255,0.7494718801585675,77.5,0,60,1.0,2,0.0
3.26,0.891813020752378,77.5,0,60,1.0,2,0.0
3.265,0.9800361632936612,77.5,0,60,1.0,2,0.0
3.27,0.993574479225126,77.50000248994282,1,60,1.0,2,5.8586889776158976e-08
3.275,0.9263438449375362,77.50000380552395,0,60,1.0,2,8.954173989984744e-08
3.28,0.7873015962290536,77.50000593638781,0,60,1.0,2,1.39679713129226e-07
3.285,0.5959516244629897,77.50000955146527,0,60,1.0,2,2.2474035925851614e-07
3.29,0.376910120078773,77.50001601150335,0,60,1.0,2,3.7674125524865623e-07
3.295,0.15739335672107918,77.50002813833666,0,60,1.0,2,6.62078509642871e-07
3.3,-0.033361226269301235,77.50005180683414,0,60,1.0,2,1.2189843326215102e-06
3.305,-0.1680180840843834,77.50009915896051,0,60,1.0,2,2.3331520119828543e-06
3.31,-0.23069703190837854,77.5001949173451,0,60,1.0,2,4.586290472897257e-06
3.315,-0.22587267821131068,77.50038842890842,0,60,1.0,2,9.13950372759085e-06
3.32,-0.17718181630665902,77.50077594134726,0,60,1.0,2,1.8257443464870662e-05
3.325,-0.11494332516451301,77.50154050202146,0,60,1.0,2,3.6247106387196145e-05
3.33,-0.061810214049552864,77.50302106429805,0,60,1.0,2,7.108386583655267e-05
3.335,-0.026546104631500547,77.50582806699363,0,60,1.0,2,0.00013713098808539945
3.34,-0.00719600351942686,77.5110297722934,0,60,1.0,2,0.00025952405396230247
3.345,0.0022072757983807078,77.52044123887686,0,60,1.0,2,0.00048097032651425893
3.35,0.006917199873730717,77.53705421595274,0,60,1.0,2,0.0008718639047702602
3.355,0.01004859748264829,77.5656483921687,0,60,1.0,2,0.0015446680510281647
3.36,0.013037082251128167,77.61361778133262,0,60,1.0,2,0.002673359560767561
3.365,0.01645163937690478,77.69202488768812,0,60,1.0,2,0.004518232651485184
3.37,0.020526639934696615,77.81685387265462,0,60,1.0,2,0.007455385238932208
3.375,0.02539629541761738,78.01036829501618,0,60,1.0,2,0.012008665765086548
3.38,0.031171612185577933,78.30238982620193,0,60,1.0,2,0.018879760616516035
3.385,0.03795853426638131,78.73121019613063,0,60,1.0,2,0.02896965167366194
3.39,0.0458588961882057,79.34374842619829,0,60,1.0,2,0.043382315910547975
3.395,0.054966995891435555,80.19449891225777,0,60,1.0,2,0.0633999744060652
3.4,0.06536491004445595,81.34282055819683,0,60,1.0,2,0.09041930725169021
3.405,0.07711726085088699,82.84823024479076,0,60,1.0,2,0.12584071164213542
3.41,0.09026570629555215,84.76361058293982,0,60,1.0,2,0.17090848430446634
3.415,0.10482339848670268,87.12662098861364,0,60,1.0,2,0.2265087291438503
3.42,0.12076968927580028,89.95007326204762,0,60,1.0,2,0.29294290028347353
3.425,0.13804539501007884,93.21251614850307,0,60,1.0,2,0.3697062623177193
3.43,0.15654895051787066,96.85065144980784,0,60,1.0,2,0.45530944587783156
3.435,0.17613378141900526,100.75534889717845,0,60,1.0,2,0.5471846799336106
3.44,0.19660720058055794,104.77283232444243,0,60,1.0,2,0.6417137017515867
3.445,0.21773108748496234,108.71203014349793,0,60,1.0,2,0.7344007092587748
3.45,0.23922453870058807,112.35816304783853,0,60,1.0,2,0.8201920717138478
3.455,0.2607685857914563,115.49152435431921,0,60,1.0,2,0.8939182201016285
3.46,0.2820129681603682,117.90931557476307,0,60,1.0,2,0.9508074252885428
3.465,0.30258482867153996,119.44758504432397,0,60,1.0,2,0.987002001042917
3.47,0.3220990771751686,120.0,0,60,1.0,2,1.0
3.475,0.3401700499968971,119.53048331157143,0,60,1.0,2,0.9889525485075631
3.48,0.3564239911198326,118.07764512178605,0,60,1.0,2,0.954768120512613
3.485,0.3705118017738417,115.75027089627324,0,60,1.0,2,0.9000063740299585
3.49,0.3821214567925213,112.71461532107598,0,60,1.0,2,0.8285791840253173
3.495,0.39098947374066967,109.17558029645926,0,60,1.0,2,0.7453077716813943
3.5,0.3969108472035567,105.35475009686118,0,60,1.0,2,0.6554058846320278
3.505,0.3997469255491936,101.46855261644002,0,60,1.0,2,0.5639659439162358
3.51,0.3994308076379137,97.70949370222844,0,60,1.0,2,0.47551749887596334
3.515,0.3959699661768434,94.23259379733645,0,60,1.0,2,0.3937080893490929
3.52,0.38944595408114946,91.14806229054459,0,60,1.0,2,0.3211308774245785
3.525,0.38001120995358023,88.5201284436027,0,60,1.0,2,0.25929713984947533
3.53,0.3678831374098315,86.37103019757335,0,60,1.0,2,0.20873012229584345
3.535,0.35333577933796634,84.68858588314299,0,60,1.0,2,0.16914319725042332
3.54,0.33668953221163944,83.43558240598455,0,60,1.0,2,0.13966076249375406
3.545,0.3182994390982644,82.5593606642362,0,60,1.0,2,0.11904378033496929
3.55,0.29854265738230645,82.00035857665452,0,60,1.0,2,0.10589079003892989
3.555,0.2778057157821067,81.69885586979706,0,60,1.0,2,0.09879660870110724
3.56,0.2564721553719815,81.59963653358932,0,60,1.0,2,0.09646203608445456
3.565,0.23491109433464996,81.65466301792299,0,60,1.0,2,0.09775677689230552
3.57,0.21346717185309805,81.82410177142309,0,60,1.0,2,0.10174357109230794
3.575,0.19245222055656455,82.07615171988677,0,60,1.0,2,0.10767415811498274
3.58,0.17213889801761392,82.3861310312197,0,60,1.0,2,0.1149677889698754
3.585,0.15275638501270183,82.73521037592705,0,60,1.0,2,0.12318142061004832
3.59,0.13448814019607322,83.10908026135901,0,60,1.0,2,0.13197835909080027
3.595,0.11747159495449566,83.4967355800674,0,60,1.0,2,0.1410996607074681
3.6,0.10179958433370105,83.8894711137067,0,60,1.0,2,0.15034049679309894
3.605,0.08752324394101413,84.28011585858825,0,60,1.0,2,0.1595321378491352
3.61,0.07465606047174059,84.66249236323388,0,60,1.0,2,0.1685292320760913
3.615,0.0631787448609295,85.03106583868113,0,60,1.0,3,0.17720154914543834
3.62,0.05304460019959574,85.38074083876755,0,60,1.0,3,0.1854291962062953
3.625,0.044185078305849994,85.70676514941869,0,60,1.0,3,0.19310035645691026
3.63,0.03651525513023255,86.00470666351954,0,60,1.0,3,0.20011074502398923
3.635,0.0299390014708757,86.27047640104377,0,60,1.0,3,0.20636415061279448
3.64,0.024353677220580638,86.50037773141064,0,60,1.0,3,0.21177359368025028
3.645,0.01965423034339045,86.69116751454428,0,60,1.0,3,0.2162627650481006
3.65,0.015736632374757337,86.84011916090118,0,60,1.0,3,0.2197675096682631
3.655,0.012500627640593535,86.94508069587606,0,60,1.0,3,0.22223719284414253
3.66,0.009851811652115898,87.00452308891684,0,60,1.0,3,0.2236358373862786
3.665,0.007703084175428559,87.01757565612239,0,60,1.0,3,0.22394295661464445
3.67,0.005975544002062424,86.98404649438511,0,60,1.0,3,0.22315403516200263
3.675,0.004598905818663047,86.9044268139302,0,60,1.0,3,0.22128063091600472
3.68,0.0035115256454839104,86.77987880203669,0,60,1.0,3,0.21835008945968687
3.685,0.002660121266303676,86.61220732526297,0,60,1.0,3,0.2144048782414817
3.69,0.0019992692560877024,86.40381638099026,0,60,1.0,3,0.20950156190565328
3.695,0.0014907520044639367,86.15765174322021,0,60,1.0,3,0.2037094527816521
3.7,0.0011028178277539807,85.87713170445551,0,60,1.0,3,0.19710898128130605
3.705,0.0008094059938923333,85.56606818397677,0,60,1.0,3,0.18978983962298276
3.71,0.0005893771793717645,85.22858074240006,0,60,1.0,3,0.18184895864470718
3.715,0.0004257792353490551,84.86900620562017,0,60,1.0,3,0.17338838130870982
3.72,0.0003051686392901525,84.49180665504765,0,60,1.0,3,0.16451309776582715
3.725,0.00021699992642659966,84.10147848725309,0,60,1.0,3,0.15532890558242562
3.73,0.00015308884054097838,83.70246509143067,0,60,1.0,3,0.1459403550924863
3.735,0.00010714989329311098,83.29907544860849,0,60,1.0,3,0.13644883408490566
3.74,7.440535854020571e-05,82.89541063710034,0,60,1.0,3,0.12695083852000802
3.745,5.1260276743925106e-05,82.49529985192366,0,60,1.0,3,0.11753646710408615
3.75,3.503659887882241e-05,82.10224713113755,0,60,1.0,3,0.10828816779147166
3.755,2.375894748103639e-05,81.71938954924038,0,60,1.0,3,0.09927975409977353
3.76,1.5984413869232557e-05,81.34946720642466,0,60,1.0,3,0.09057569897469794
3.765,1.0669166579899869e-05,80.99480493070575,0,60,1.0,3,0.0822307042519001
3.77,7.06526633560511e-06,80.65730523356406,0,60,1.0,3,0.07428953490738964
3.775,4.641847214699205e-06,80.33845173171007,0,60,1.0,3,0.06678709956964861
3.78,3.025641074479182e-06,80.03932197752341,0,60,1.0,3,0.059748752412315635
3.785,1.9566278676921314e-06,79.7606084347192,0,60,1.0,3,0.05319078669927535
3.79,1.2553456560008793e-06,79.50264619642017,0,60,1.0,3,0.0471210869745923
3.795,7.990660428214668e-07,79.26544596930036,0,60,1.0,3,0.04153990516000844
3.8,5.046221251618276e-07,79.04873083608925,0,60,1.0,3,0.03644072555504114
3.805,3.1616527078858815e-07,78.85197535329688,0,60,1.0,3,0.03181118478345598
3.81,1.9652884407760343e-07,78.67444563345711,0,60,1.0,3,0.027634014904873203
3.815,1.2120002189836396e-07,78.51523919213612,0,60,1.0,3,0.023887980991438153
3.82,7.415549848886236e-08,78.37332349940569,0,60,1.0,3,0.020548788221310253
3.825,4.501406988770349e-08,78.24757235335397,0,60,1.0,3,0.01758993772597585
3.83,0.0,78.13679937985393,0,60,1.0,3,0.014983514820092376
3.835,0.0,78.03978814945174,0,60,1.0,3,0.012700897634158537
3.84,0.0,77.95531858127889,0,60,1.0,3,0.010713378383032665
3.845,0.0,77.88218946913811,0,60,1.0,3,0.008992693391484983
3.85,0.0,77.81923711168028,0,60,1.0,3,0.007511461451300714
3.855,0.0,77.7653501537141,0,60,1.0,3,0.006243533028566952
3.86,0.0,77.71948084745911,0,60,1.0,3,0.005164255234331998
3.865,0.0,77.68065302056385,0,60,1.0,3,0.004250659307384761
3.87,0.0,77.647967092686,0,60,1.0,3,0.0034815786514353505
3.875,0.0,77.62060251599861,0,60,1.0,3,0.0028377062587908847
3.88,0.0,77.59781802945105,0,60,1.0,3,0.0023016006929658353
3.885,0.0,77.57895011472735,0,60,1.0,3,0.0018576497582905498
3.89,0.0,77.56341002660088,0,60,1.0,3,0.001492000625902994
3.895,0.0,77.55067974482027,0,60,1.0,3,0.0011924645840063958
3.9,0.0,77.54030716171373,0,60,1.0,3,0.0009484038050288745
3.905,0.0,77.53190078207007,0,60,1.0,3,0.0007506066369427679
3.91,0.0,77.52512417193833,0,60,1.0,3,0.0005911569867842392
3.915,0.0,77.51969035280118,0,60,1.0,3,0.0004633024188512322
3.92,0.0,77.515356298754,0,60,1.0,3,0.00036132467656470373
3.925,0.0,77.5119176580947,0,60,1.0,3,0.0002804154845812397
3.93,0.0,77.50920378796964,0,60,1.0,3,0.00021655971693268624
3.935,0.0,77.50707316196097,0,60,1.0,3,0.0001664273402582239
3.94,0.0,77.5054091859877,0,60,1.0,3,0.00012727496441651537
3.945,0.0,77.50411643763564,0,60,1.0,3,9.685735613281983e-05
3.95,0.0,77.50311732785518,0,60,1.0,3,7.334889071009511e-05
3.955,0.0,77.50234917155994,0,60,1.0,3,5.527462493981094e-05
3.96,0.0,77.50176164462405,0,60,1.0,3,4.1450461742442714e-05
3.965,0.0,77.50131459866044,0,60,1.0,3,3.0931733186889686e-05
3.97,0.0,77.50097620130107,0,60,1.0,3,2.296944237815189e-05
3.975,0.0,77.50072136803325,0,60,1.0,3,1.6973365488330967e-05
3.98,0.0,77.50053045154435,0,60,1.0,3,1.2481212808231303e-05
3.985,0.0,77.50038815560109,0,60,1.0,3,9.133072966746756e-06
3.99,0.0,77.50028264239916,0,60,1.0,3,6.650409391915994e-06
3.995,0.0,77.50020480477525,0,60,1.0,3,4.818935888258292e-06
4.0,0.0,77.50014767744172,0,60,1.0,3,3.4747633345191655e-06
4.005,0.0,77.50010596429578,0,60,1.0,3,2.4932775478619614e-06
4.01,0.0,77.50007566172987,0,60,1.0,3,1.7802759968537216e-06
4.015,0.0,77.50005376062273,0,60,1.0,3,1.2649558290350423e-06
4.02,0.0,77.50003801225458,0,60,1.0,3,8.94405990065399e-07
4.025,0.0,77.50002674571927,0,60,1.0,3,6.293110415941449e-07
4.03,0.0,77.50001872648421,0,60,1.0,3,4.4062315797579207e-07
4.035,0.0,77.50001304756682,0,60,1.0,3,3.070015723364229e-07
4.04,0.0,77.50000904636538,0,60,1.0,3,2.128556559455319e-07
4.045,0.001684486749771458,77.50000624151522,0,60,1.0,3,1.4685918171487762e-07
4.05,0.003097557930867117,77.5000042852608,0,60,1.0,3,1.0082966589246045e-07
4.055,0.005475106668887023,77.50000292776217,0,60,1.0,3,6.888852159564147e-08
4.06,0.00930222931468658,77.50000199051588,0,60,1.0,3,4.683566785120895e-08
4.065,0.01519157517868857,77.50000134668745,0,60,1.0,3,3.168676364432887e-08
4.07,0.023847336626128316,77.50000090664922,0,60,1.0,3,2.133292281648798e-08
4.075,0.0359830743700859,77.50000060741161,0,60,1.0,3,1.4292037817272906e-08
4.08,0.05218887796857759,77.50000040494702,0,60,1.0,3,9.528165090908741e-09
4.085,0.0727577001223134,77.50000026864862,0,60,1.0,3,6.32114399516414e-09
4.09,0.0974992498694751,77.50000017735456,0,60,1.0,3,4.173048583812916e-09
4.095,0.12558706050443358,77.5000001165122,0,60,1.0,3,2.74146346408302e-09
4.1,0.15549263588878245,77.50000007616786,0,60,1.0,3,1.7921850565685685e-09
4.105,0.1850529723539114,77.50000004954998,0,60,1.0,3,1.1658819269488209e-09
4.11,0.21169159439317053,77.50000003207646,0,60,1.0,3,7.547401657896391e-10
4.115,0.23277292922115492,77.50000002066335,0,60,1.0,3,4.861964739307843e-10
4.12,0.24602692519491282,77.50000001324605,0,60,1.0,3,3.116717968677061e-10
4.125,0.24995056064839283,77.50000000844973,0,60,1.0,3,1.9881721367282272e-10
4.13,0.24408826520424054,77.50000000536379,0,60,1.0,3,1.2620676791223507e-10
4.135,0.22911894216865275,77.50000000338821,0,60,1.0,3,7.972256057923112e-11
4.14,0.20672661788705934,77.50000000212981,0,60,1.0,3,5.011315806768835e-11
4.145,0.17928878030241233,77.50000000133224,0,60,1.0,3,3.1346804890370766e-11
4.15,0.14946211903866036,77.50000000082927,0,60,1.0,3,1.9512339456602656e-11
4.155,0.1197651512573837,77.50000000051367,0,60,1.0,3,1.2086248342016274e-11
4.16,0.09224675744988023,77.50000000031662,0,60,1.0,3,7.449831601287074e-12
4.165,0.06829565320281596,77.5000000001942,0,60,1.0,3,4.56954213030472e-12
4.17,0.04860224607515734,77.50000000011853,0,60,1.0,3,2.789005627752939e-12
4.175,0.03324612389699793,77.500000000072,0,60,1.0,3,1.6942682551042012e-12
4.18,0.021859876340472782,77.50000000004351,0,60,1.0,3,1.023850285598789e-12
4.185,0.01381595518554205,77.50000000002618,0,60,1.0,3,6.15915162009461e-13
4.19,0.008394095110402422,77.50000000001566,0,60,1.0,3,3.684791034388849e-13
4.195,0.0049052535271608,77.50000000000934,0,60,1.0,3,2.1968309524441686e-13
4.2,0.0027671663551903634,77.50000000000553,0,60,1.0,3,1.3007111727561363e-13
4.205,0.0015425553464444616,77.50000000000325,0,60,1.0,3,7.657142893602963e-14
4.21,0.0009638206637011801,77.50000000000192,0,60,1.0,3,4.514036203652401e-14
4.215,0.0009804935156568228,77.50000000000112,0,60,1.0,3,2.6415471117669608e-14
4.22,0.0018793744894085216,77.50000000000065,0,60,1.0,3,1.5381160397630403e-14
4.225,0.004535525206900863,77.50000000000037,0,60,1.0,3,8.693699355182403e-15
4.23,0.010832767979632273,77.50000000000021,0,60,1.0,3,5.015595781836002e-15
4.235,0.024208003392322392,77.50000000000013,0,60,1.0,3,3.0093574691016007e-15
4.24,0.0500971897335304,77.50000000000007,0,60,1.0,3,1.6718652606120004e-15
4.245,0.09582894921774403,77.50000000000004,0,60,1.0,3,1.0031191563672002e-15
4.25,0.16937896721820658,77.50000000000003,0,60,1.0,3,6.687461042448002e-16
4.255,0.27661303008991756,77.50000000000001,0,60,1.0,3,3.343730521224001e-16
4.26,0.4173782800009149,77.5,0,60,1.0,3,0.0
4.265,0.5818720934538056,77.5,0,60,1.0,3,0.0
4.27,0.7494718801585675,77.5,0,60,1.0,3,0.0
4.275,0.891813020752378,77.5,0,60,1.0,3,0.0
4.28,0.9800361632936612,77.5,0,60,1.0,3,0.0
4.285,0.993574479225126,77.50000249060646,1,60,1.0,3,5.860250499769309e-08
4.29,0.9263438449375362,77.50000385734029,0,60,1.0,3,9.076094797552179e-08
4.295,0.7873015962290536,77.50000610730334,0,60,1.0,3,1.437012549425109e-07
4.3,0.5959516244629897,77.50000999976028,0,60,1.0,3,2.3528847718272813e-07
4.305,0.376910120078773,77.50001711607312,0,60,1.0,3,4.027311323331078e-07
4.31,0.15739335672107918,77.5000308127143,0,60,1.0,3,7.250050423542288e-07
4.315,-0.033361226269301235,77.50005823243188,0,60,1.0,3,1.3701748678292514e-06
4.32,-0.1680180840843834,77.50011443699209,0,60,1.0,3,2.6926351080526407e-06
4.325,-0.23069703190837854,77.50023065316174,0,60,1.0,3,5.427133217327697e-06
4.33,-0.22587267821131068,77.50047021644501,0,60,1.0,3,1.106391635316333e-05
4.335,-0.17718181630665902,77.5009583966,0,60,1.0,3,2.255050823524631e-05
4.34,-0.11494332516451301,77.50193629964134,0,60,1.0,3,4.5559991561022426e-05
4.345,-0.061810214049552864,77.50385483894526,0,60,1.0,3,9.07020928296146e-05
4.35,-0.026546104631500547,77.50753250751332,0,60,1.0,3,0.0001772354709015979
4.355,-0.00719600351942686,77.51440996954433,0,60,1.0,3,0.00033905810692544944
4.36,0.0022072757983807078,77.52694391670826,0,60,1.0,3,0.0006339745107826435
4.365,0.006917199873730717,77.54918926053296,0,60,1.0,3,0.0011573943654813025
4.37,0.01004859748264829,77.5876176648087,0,60,1.0,3,0.0020615921131459745
4.375,0.013037082251128167,77.65220482613245,0,60,1.0,3,0.003581290026645815
4.38,0.01645163937690478,77.7577808422973,0,60,1.0,3,0.006065431583465732
4.385,0.020526639934696615,77.92557045679185,0,60,1.0,3,0.010013422512749311
4.39,0.02539629541761738,78.1847502601857,0,60,1.0,3,0.016111770827898695
4.395,0.031171612185577933,78.57372412531626,0,60,1.0,3,0.02526409706626496
4.4,0.03795853426638131,79.14068530680169,0,60,1.0,3,0.038604360160039666
4.405,0.0458588961882057,79.94292800606925,0,60,1.0,3,0.05748065896633534
4.41,0.054966995891435555,81.0443400664048,0,60,1.0,3,0.08339623685658352
4.415,0.06536491004445595,82.51060356247285,0,60,1.0,3,0.11789655441112593
4.42,0.07711726085088699,84.4018923138275,0,60,1.0,3,0.16239746620770595
4.425,0.09026570629555215,86.76329520888174,0,60,1.0,3,0.2179598872678057
4.43,0.10482339848670268,89.61377301640115,0,60,1.0,3,0.28502995332708597
4.435,0.12076968927580028,92.93507670582724,0,60,1.0,3,0.3631782754312292
4.44,0.13804539501007884,96.66256820647882,0,60,1.0,3,0.45088395779950174
4.445,0.15654895051787066,100.68011755916041,0,60,1.0,3,0.5454145308037743
4.45,0.17613378141900526,104.82105425803283,0,60,1.0,3,0.6428483354831255
4.455,0.19660720058055794,108.8764532668383,0,60,1.0,3,0.7382694886314893
4.46,0.21773108748496234,112.61088723201624,0,60,1.0,3,0.8261385231062645
4.465,0.23922453870058807,115.78436216317712,0,60,1.0,3,0.9008085214865205
4.47,0.2607685857914563,118.1777713622895,0,60,1.0,3,0.9571240320538708
4.475,0.2820129681603682,119.61819191512663,0,60,1.0,3,0.9910162803559207
4.48,0.30258482867153996,120.0,0,60,1.0,3,1.0
4.485,0.3220990771751686,119.29824545748835,0,60,1.0,3,0.9834881284114906
4.49,0.3401700499968971,117.5719546188641,0,60,1.0,3,0.9428695204438611
4.495,0.3564239911198326,114.95677661133668,0,60,1.0,3,0.8813359202667453
4.5,0.3705118017738417,111.64826619736436,0,60,1.0,3,0.8034886164085733
4.505,0.3821214567925213,107.87868369700878,0,60,1.0,3,0.7147925575766773
4.51,0.39098947374066967,103.89114672130673,0,60,1.0,3,0.6209681581483936
4.515,0.3969108472035567,99.91511507625712,0,60,1.0,3,0.5274144723825206
4.52,0.3997469255491936,96.14656082953842,0,60,1.0,3,0.4387426077538451
4.525,0.3994308076379137,92.73498319976926,0,60,1.0,3,0.3584701929357473
4.53,0.3959699661768434,89.77799372275705,0,60,1.0,3,0.2888939699472246
4.535,0.38944595408114946,87.32285486110474,0,60,1.0,3,0.23112599673187634
4.54,0.38001120995358023,85.37336529966561,0,60,1.0,3,0.185255654109779
4.545,0.3678831374098315,83.89998207819981,0,60,1.0,3,0.15058781360470147
4.55,0.35333577933796634,82.8510525309259,0,60,1.0,3,0.125907118374727
4.555,0.33668953221163944,82.16338984647568,0,60,1.0,3,0.10972681991707485
4.56,0.3182994390982644,81.7710004035094,0,60,1.0,3,0.10049412714139776
4.565,0.29854265738230645,81.61139076399436,0,60,1.0,3,0.0967386062116321
4.57,0.2778057157821067,81.62941598109197,0,60,1.0,3,0.0971627289668698
4.575,0.2564721553719815,81.7790040818856,0,60,1.0,3,0.1006824489855436
4.58,0.23491109433464996,82.02328621441396,0,60,1.0,3,0.1064302638685637
4.585,0.21346717185309805,82.33370255304422,0,60,1.0,3,0.1137341777186875
4.59,0.19245222055656455,82.68858789463043,0,60,1.0,3,0.12208442105012778
4.595,0.17213889801761392,83.07161944197627,0,60,1.0,3,0.13109692804650042
4.6,0.15275638501270183,83.47037548139828,0,60,1.0,3,0.1404794230917242
4.605,0.13448814019607322,83.87513591955003,0,60,1.0,3,0.1500031981070596
4.61,0.11747159495449566,84.27796761085855,0,60,1.0,3,0.15948159084373068
4.615,0.10179958433370105,84.67208126420148,0,60,1.0,3,0.16875485327532896
4.62,0.08752324394101413,85.05141767098016,0,60,1.0,3,0.17768041578776841
4.625,0.07465606047174059,85.41041137477472,0,60,1.0,3,0.18612732646528765
4.63,0.0631787448609295,85.74388204533,0,60,1.0,3,0.1939736951842352
4.635,0.05304460019959574,86.0470116192692,0,60,1.0,3,0.20110615574751056
4.64,0.044185078305849994,86.31537463568876,0,60,1.0,3,0.20742057966326483
4.645,0.03651525513023255,86.54499785256412,0,60,1.0,3,0.21282347888386172
4.65,0.0299390014708757,86.73243223546459,0,60,1.0,3,0.21723369965799025
4.655,0.024353677220580638,86.87482563242001,0,60,1.0,3,0.2205841325275297
4.66,0.01965423034339045,86.96998815607745,0,60,1.0,3,0.22282325073123407
4.665,0.015736632374757337,87.01644488029292,0,60,1.0,3,0.22391635012453937
4.67,0.012500627640593535,87.01347229325384,0,60,1.0,3,0.22384640690009036
4.675,0.009851811652115898,86.96111631870204,0,60,1.0,3,0.22261450161651858
4.68,0.007703084175428559,86.86019081224607,0,60,1.0,3,0.22023978381755469
4.685,0.005975544002062424,86.7122563730027,0,60,1.0,3,0.21675897348241652
4.69,0.004598905818663047,86.51958013614413,0,60,1.0,3,0.21222541496809713
4.695,0.0035115256454839104,86.28507794654647,0,60,1.0,3,0.2067077163893286
4.7,0.002660121266303676,86.01224095394758,0,60,1.0,3,0.20028802244582547
4.705,0.0019992692560877024,85.7050492026738,0,60,1.0,3,0.19305998123938367
4.71,0.0014907520044639367,85.36787519896696,0,60,1.0,3,0.18512647526981074
4.715,0.0011028178277539807,85.00538071378118,0,60,1.0,3,0.1765971932654395
4.72,0.0008094059938923333,84.6224102114667,0,60,1.0,3,0.1675861226227459
4.725,0.0005893771793717645,84.22388428441178,0,60,1.0,3,0.15820904198615957
4.73,0.0004257792353490551,83.81469632673434,0,60,1.0,3,0.14858109004080788
4.735,0.0003051686392901525,83.39961540923211,0,60,1.0,3,0.13881448021722617
4.74,0.00021699992642659966,82.98319794133803,0,60,1.0,3,0.1290164221491302
4.745,0.00015308884054097838,82.5697102464525,0,60,1.0,3,0.11928729991652945
4.75,0.00010714989329311098,82.16306366028918,0,60,1.0,3,0.10971914494798077
4.755,7.440535854020571e-05,81.76676321464303,0,60,1.0,3,0.10039442857983612
4.76,5.1260276743925106e-05,81.3838704178972,0,60,1.0,3,0.09138518630346351
4.765,3.503659887882241e-05,81.01698011357695,0,60,1.0,3,0.08275247326063409
4.77,2.375894748103639e-05,80.66821091136433,0,60,1.0,3,0.07454613909092533
4.775,1.5984413869232557e-05,80.33920825933811,0,60,1.0,3,0.06680490021972017
4.78,1.0669166579899869e-05,80.03115887537963,0,60,1.0,3,0.059556679420697214
4.785,7.06526633560511e-06,79.74481498835964,0,60,1.0,3,0.052819176196697314
4.79,4.641847214699205e-06,79.48052665965687,0,60,1.0,3,0.0466006272860441
4.795,3.025641074479182e-06,79.23828036186586,0,60,1.0,3,0.0409007143968438
4.8,1.9566278676921314e-06,79.01774197921334,0,60,1.0,3,0.03571157598149037
4.805,1.2553456560008793e-06,78.8183024547782,0,60,1.0,3,0.03101888128889895
4.81,7.990660428214668e-07,78.6391244320625,0,60,1.0,3,0.02680292781323534
4.815,5.046221251618276e-07,78.47918841005006,0,60,1.0,3,0.023039727295295454
4.82,3.1616527078858815e-07,78.3373371380437,0,60,1.0,4,0.019702050306910437
4.825,1.9652884407760343e-07,78.21231720572483,0,60,1.0,4,0.016760404840584227
4.83,1.2120002189836396e-07,78.10281702217611,0,60,1.0,4,0.014183929933555566
4.835,7.415549848886236e-08,78.00750061349781,0,60,1.0,4,0.011941190905830849
4.84,4.501406988770349e-08,77.92503689230902,0,60,1.0,4,0.010000868054329965
4.845,0.0,77.85412425603842,0,60,1.0,4,0.008332335436198064
4.85,0.0,77.79351054877074,0,60,1.0,4,0.006906130559311537
4.855,0.0,77.74200856992353,0,60,1.0,4,0.005694319292318288
4.86,0.0,77.69850743053568,0,60,1.0,4,0.004670763071427874
4.865,0.0,77.66198014454383,0,60,1.0,4,0.003811297518678416
4.87,0.0,77.63148789963498,0,60,1.0,4,0.0030938329325876754
4.875,0.0,77.60618148274689,0,60,1.0,4,0.0024983878293386064
4.88,0.0,77.58530034248456,0,60,1.0,4,0.0020070668819896047
4.885,0.0,77.56816975854922,0,60,1.0,4,0.0016039943188051143
4.89,0.0,77.55419656084052,0,60,1.0,4,0.0012752131962476116
4.895,0.0,77.542863802236,0,60,1.0,4,0.0010085600526117426
4.9,0.0,77.53372474296843,0,60,1.0,4,0.0007935233639630844
4.905,0.0,77.52639645440267,0,60,1.0,4,0.0006210930447687535
4.91,0.0,77.52055329875957,0,60,1.0,4,0.0004836070296368475
4.915,0.0,77.51592049130771,0,60,1.0,4,0.00037459979547553997
4.92,0.0,77.5122679045549,0,60,1.0,4,0.0002886565777624342
4.925,0.0,77.50940423131003,0,60,1.0,4,0.00022127603082420887
4.93,0.0,77.50717158596277,0,60,1.0,4,0.0001687431991239036
4.935,0.0,77.50544059134097,0,60,1.0,4,0.00012801391390519925
4.94,0.0,77.50410597211048,0,60,1.0,4,9.661110848188561e-05
4.945,0.0,77.50308265466796,0,60,1.0,4,7.253305101090411e-05
4.95,0.0,77.50230235743923,0,60,1.0,4,5.4173116217270946e-05
4.955,0.0,77.50171064389794,0,60,1.0,4,4.025044465733759e-05
4.96,0.0,77.50126440285658,0,60,1.0,4,2.9750655448879117e-05
4.965,0.0,77.50092971602302,0,60,1.0,4,2.1875671129959407e-05
4.97,0.0,77.50068007084202,0,60,1.0,4,1.6001666871127728e-05
4.975,0.0,77.5004948766761,0,60,1.0,4,1.1644157084714715e-05
4.98,0.0,77.50035824390325,0,60,1.0,4,8.429268311762345e-06
4.985,0.0,77.50025798806918,0,60,1.0,4,6.070307510111995e-06
4.99,0.0,77.50018482445232,0,60,1.0,4,4.348810642795798e-06
4.995,0.0,77.50013172197245,0,60,1.0,4,3.0993405282649347e-06
5.0,0.0,77.50009338906223,0,60,1.0,4,2.1973896995110835e-06
5.005,0.0,77.50006586774495,0,60,1.0,4,1.5498292929591758e-06
5.01,0.0,77.50004621559701,0,60,1.0,4,1.0874258119950836e-06
5.015,0.0,77.5000322584378,0,60,1.0,4,7.590220658424669e-07
5.02,0.0,77.5000223994362,0,60,1.0,4,5.270455577534877e-07
5.025,0.0,77.50001547283287,0,60,1.0,4,3.6406665578718223e-07
5.03,0.001684486749771458,77.50001063265135,0,60,1.0,4,2.5018003183878834e-07
5.035,0.003097557930867117,77.50000726862568,0,60,1.0,4,1.7102648658852988e-07
5.04,0.005475106668887023,77.50000494312994,0,60,1.0,4,1.1630893970290987e-07
5.045,0.00930222931468658,77.50000334418844,0,60,1.0,4,7.86867868849667e-08
5.05,0.01519157517868857,77.50000225070433,0,60,1.0,4,5.2957748868506956e-08
5.055,0.023847336626128316,77.50000150690246,0,60,1.0,4,3.545652856808053e-08
5.06,0.0359830743700859,77.50000100366974,0,60,1.0,4,2.3615758530414656e-08
5.065,0.05218887796857759,77.50000066502123,0,60,1.0,4,1.564755841761379e-08
5.07,0.0727577001223134,77.50000043834815,0,60,1.0,4,1.0314074175125022e-08
5.075,0.0974992498694751,77.50000028743645,0,60,1.0,4,6.763210582421915e-09
5.08,0.12558706050443358,77.50000018750096,0,60,1.0,4,4.411787264924736e-09
5.085,0.15549263588878245,77.50000012167578,0,60,1.0,4,2.8629595844369546e-09
5.09,0.1850529723539114,77.50000007854956,0,60,1.0,4,1.8482249769851263e-09
5.095,0.21169159439317053,77.5000000504455,0,60,1.0,4,1.1869527792013661e-09
5.1,0.23277292922115492,77.5000000322285,0,60,1.0,4,7.583176230742965e-10
5.105,0.24602692519491282,77.50000002048314,0,60,1.0,4,4.819562892568202e-10
5.11,0.24995056064839283,77.50000001295066,0,60,1.0,4,3.047215186062899e-10
5.115,0.24408826520424054,77.50000000814568,0,60,1.0,4,1.9166296784961186e-10
5.12,0.22911894216865275,77.50000000509684,0,60,1.0,4,1.1992557012811578e-10
5.125,0.20672661788705934,77.50000000317259,0,60,1.0,4,7.464911825937794e-11
5.13,0.17928878030241233,77.50000000196455,0,60,1.0,4,4.622473384455696e-11
5.135,0.14946211903866036,77.5000000012102,0,60,1.0,4,2.847520911874359e-11
5.14,0.1197651512573837,77.50000000074162,0,60,1.0,4,1.7449926471111694e-11
5.145,0.09224675744988023,77.50000000045212,0,60,1.0,4,1.063807865327416e-11
5.15,0.06829565320281596,77.5000000002742,0,60,1.0,4,6.45172804070171e-12
5.155,0.04860224607515734,77.50000000016543,0,60,1.0,4,3.892436699756859e-12
5.16,0.03324612389699793,77.50000000009929,0,60,1.0,4,2.3362645151792095e-12
5.165,0.021859876340472782,77.50000000005929,0,60,1.0,4,1.3950043734546533e-12
5.17,0.01381595518554205,77.50000000003521,0,60,1.0,4,8.285764231593074e-13
5.175,0.008394095110402422,77.5000000000208,0,60,1.0,4,4.895221483071937e-13
5.18,0.0049052535271608,77.50000000001224,0,60,1.0,4,2.8789519787738646e-13
5.185,0.0027671663551903634,77.50000000000715,0,60,1.0,4,1.6818964521756725e-13
5.19,0.0015425553464444616,77.50000000000416,0,60,1.0,4,9.797130427186323e-14
5.195,0.0009638206637011801,77.5000000000024,0,60,1.0,4,5.6509045808685616e-14
5.2,0.0009804935156568228,77.50000000000138,0,60,1.0,4,3.243418605587281e-14
5.205,0.0018793744894085216,77.5000000000008,0,60,1.0,4,1.8724890918854405e-14
5.21,0.004535525206900863,77.50000000000045,0,60,1.0,4,1.0699937667916803e-14
5.215,0.010832767979632273,77.50000000000026,0,60,1.0,4,6.0187149382032015e-15
5.22,0.024208003392322392,77.50000000000014,0,60,1.0,4,3.343730521224001e-15
5.225,0.0500971897335304,77.50000000000009,0,60,1.0,4,2.0062383127344005e-15
5.23,0.09582894921774403,77.50000000000004,0,60,1.0,4,1.0031191563672002e-15
5.235,0.16937896721820658,77.50000000000003,0,60,1.0,4,6.687461042448002e-16
5.24,0.27661303008991756,77.50000000000001,0,60,1.0,4,3.343730521224001e-16
5.245,0.4173782800009149,77.5,0,60,1.0,4,0.0
5.25,0.5818720934538056,77.5,0,60,1.0,4,0.0
5.255,0.7494718801585675,77.5,0,60,1.0,4,0.0
5.26,0.891813020752378,77.5,0,60,1.0,4,0.0
5.265,0.9800361632936612,77.5,0,60,1.0,4,0.0
5.27,0.993574479225126,77.50000249553136,1,60,1.0,4,5.871838498826358e-08
5.275,0.9263438449375362,77.5000037979206,0,60,1.0,4,8.936283761078598e-08
5.28,0.7873015962290536,77.50000589651982,0,60,1.0,4,1.387416429064187e-07
5.285,0.5959516244629897,77.5000094348155,0,60,1.0,4,2.2199565872891553e-07
5.29,0.376910120078773,77.50001571195249,0,60,1.0,4,3.6969299966425324e-07
5.295,0.15739335672107918,77.50002740197677,0,60,1.0,4,6.447523944911261e-07
5.3,-0.033361226269301235,77.5000500328844,0,60,1.0,4,1.177244338885644e-06
5.305,-0.1680180840843834,77.50009495573708,0,60,1.0,4,2.234252637248681e-06
5.31,-0.23069703190837854,77.50018514752661,0,60,1.0,4,4.356412390774601e-06
5.315,-0.22587267821131068,77.50036623180388,0,60,1.0,4,8.617218914838198e-06
5.32,-0.17718181630665902,77.50072678709442,0,60,1.0,4,1.710087280992625e-05
5.325,-0.11494332516451301,77.50143461155861,0,60,1.0,4,3.3755566084892054e-05
5.33,-0.061810214049552864,77.5027993939534,0,60,1.0,4,6.58680930210748e-05
5.335,-0.026546104631500547,77.50537738125638,0,60,1.0,4,0.0001265266177971866
5.34,-0.00719600351942686,77.5101400375162,0,60,1.0,4,0.0002385891180281038
5.345,0.0022072757983807078,77.51873573170647,0,60,1.0,4,0.00044084074603460975
5.35,0.006917199873730717,77.53387969714991,0,60,1.0,4,0.0007971693447038486
5.355,0.01004859748264829,77.55991023047092,0,60,1.0,4,0.0014096524816686858
5.36,0.013037082251128167,77.60354438392822,0,60,1.0,4,0.00243633844536997
5.365,0.01645163937690478,77.67484918417814,0,60,1.0,4,0.004114098451250423
5.37,0.020526639934696615,77.7884093308522,0,60,1.0,4,0.0067861019024047994
5.375,0.02539629541761738,77.96461536956245,0,60,1.0,4,0.01093212634264593
5.38,0.031171612185577933,78.23091721059663,0,60,1.0,4,0.017198052014038345
5.385,0.03795853426638131,78.6227928599652,0,60,1.0,4,0.02641865552859298
5.39,0.0458588961882057,79.18408665755831,0,60,1.0,4,0.03962556841313672
5.395,0.054966995891435555,79.96630039667855,0,60,1.0,4,0.058030597568907015
5.4,0.06536491004445595,81.02640747170874,0,60,1.0,4,0.08297429345197027
5.405,0.07711726085088699,82.42283947403011,0,60,1.0,4,0.11583151703600265
5.41,0.09026570629555215,84.20949296015137,0,60,1.0,4,0.15787042259179684
5.415,0.10482339848670268,86.42792724167438,0,60,1.0,4,0.21006887627469134
5.42,0.12076968927580028,89.09834551335945,0,60,1.0,4,0.2729022473731635
5.425,0.13804539501007884,92.21040668051529,0,60,1.0,4,0.3461272160121245
5.43,0.15654895051787066,95.71530488045332,0,60,1.0,4,0.4285954089518428
5.435,0.17613378141900526,99.52076142138833,0,60,1.0,4,0.518135562856196
5.44,0.19660720058055794,103.49049392863455,0,60,1.0,4,0.6115410336149306
5.445,0.21773108748496234,107.44929879905975,0,60,1.0,4,0.7046893835072882
5.45,0.23922453870058807,111.1941190293451,0,60,1.0,4,0.792802800690473
5.455,0.2607685857914563,114.51047262775617,0,60,1.0,4,0.8708346500648512
5.46,0.2820129681603682,117.1925695932531,0,60,1.0,4,0.9339428139588964
5.465,0.30258482867153996,119.06457506308963,0,60,1.0,4,0.977990001484462
5.47,0.3220990771751686,120.0,0,60,1.0,4,1.0
5.475,0.3401700499968971,119.93626626357627,0,60,1.0,4,0.9985003826723828
5.48,0.3564239911198326,118.88213103465766,0,60,1.0,4,0.9736972008154744
5.485,0.3705118017738417,116.91676286621725,0,60,1.0,4,0.9274532439109943
5.49,0.3821214567925213,114.18061934032266,0,60,1.0,4,0.8630733962428863
5.495,0.39098947374066967,110.85960266710498,0,60,1.0,4,0.7849318274612936
5.5,0.3969108472035567,107.16499075378253,0,60,1.0,4,0.6979997824419419
5.505,0.3997469255491936,103.31215997547778,0,60,1.0,4,0.6073449405994773
5.51,0.3994308076379137,99.50105733238124,0,60,1.0,4,0.5176719372324997
5.515,0.3959699661768434,95.90080270694628,0,60,1.0,4,0.43296006369285367
5.52,0.38944595408114946,92.63987384862794,0,60,1.0,4,0.35623232585006925
5.525,0.38001120995358023,89.80227211535595,0,60,1.0,4,0.2894652262436693
5.53,0.3678831374098315,87.429107562273,0,60,1.0,4,0.23362606028877655
5.535,0.35333577933796634,85.52434499291017,0,60,1.0,4,0.18880811748023937
5.54,0.33668953221163944,84.06310121889615,0,60,1.0,4,0.1544259110328506
5.545,0.3182994390982644,83.00087339718817,0,60,1.0,4,0.129432315227957
5.55,0.29854265738230645,82.28233533973716,0,60,1.0,4,0.11252553740558022
5.555,0.2778057157821067,81.84875222780497,0,60,1.0,4,0.10232358183070507
5.56,0.2564721553719815,81.64351943719842,0,60,1.0,4,0.09749457499290402
5.565,0.23491109433464996,81.61573561778272,0,60,1.0,4,0.09684083806547572
5.57,0.21346717185309805,81.7220173312601,0,60,1.0,4,0.09934158426494365
5.575,0.19245222055656455,81.92693369355118,0,60,1.0,4,0.10416314573061594
5.58,0.17213889801761392,82.20249593298601,0,60,1.0,4,0.1106469631290826
5.585,0.15275638501270183,82.52710789170109,0,60,1.0,4,0.11828489156943747
5.59,0.13448814019607322,82.88430441935833,0,60,1.0,4,0.12668951574960777
5.595,0.11747159495449566,83.26150706007847,0,60,1.0,4,0.1355648720018464
5.6,0.10179958433370105,83.64893355810317,0,60,1.0,4,0.14468078960242745
5.605,0.08752324394101413,84.03872273042094,0,60,1.0,4,0.1538522995393163
5.61,0.07465606047174059,84.42428381662813,0,60,1.0,4,0.16292432509713253
5.615,0.0631787448609295,84.79984820751459,0,60,1.0,4,0.17176113429446085
5.62,0.05304460019959574,85.16018700493531,0,60,1.0,4,0.18023969423377198
5.625,0.044185078305849994,85.50045479613394,0,60,1.0,4,0.18824599520315147
5.63,0.03651525513023255,85.81612348054294,0,60,1.0,4,0.1956734936598339
5.635,0.0299390014708757,86.10297630590426,0,60,1.0,4,0.20242297190362973
5.64,0.024353677220580638,86.35713909920837,0,60,1.0,4,0.20840327292254984
5.645,0.01965423034339045,86.5751317625649,0,60,1.0,4,0.21353251206035045
5.65,0.015736632374757337,86.75392796721998,0,60,1.0,4,0.21773948158164658
5.655,0.012500627640593535,86.89101460585793,0,60,1.0,4,0.22096504954959842
5.66,0.009851811652115898,86.98444515996042,0,60,1.0,4,0.22316341552848037
5.665,0.007703084175428559,87.0328829744056,0,60,1.0,4,0.22430312880954342
5.67,0.005975544002062424,87.03563175280645,0,60,1.0,4,0.22436780594838712
5.675,0.004598905818663047,86.99265158497569,0,60,1.0,4,0.22335650788178094
5.68,0.0035115256454839104,86.90455962174919,0,60,1.0,4,0.2212837558058632
5.685,0.002660121266303676,86.7726151996039,0,60,1.0,4,0.2181791811671507
5.69,0.0019992692560877024,86.5986898271919,0,60,1.0,4,0.21408681946333893
5.695,0.0014907520044639367,86.38522299196607,0,60,1.0,4,0.20906407039920175
5.7,0.0011028178277539807,86.13516522658897,0,60,1.0,4,0.20318035827268158
5.705,0.0008094059938923333,85.85191028364954,0,60,1.0,4,0.19651553608587163
5.71,0.0005893771793717645,85.53921859307545,0,60,1.0,4,0.1891580845429517
5.715,0.0004257792353490551,85.20113441032936,0,60,1.0,4,0.18120316259598493
5.72,0.0003051686392901525,84.84189919885794,0,60,1.0,4,0.17275056938489283
5.725,0.00021699992642659966,84.4658638252098,0,60,1.0,4,0.16390267824023047
5.73,0.00015308884054097838,84.07740208207215,0,60,1.0,4,0.15476240193110952
5.735,0.00010714989329311098,83.68082789985633,0,60,1.0,4,0.14543124470250177
5.74,7.440535854020571e-05,83.28031837196917,0,60,1.0,4,0.136007491105157
5.745,5.1260276743925106e-05,82.87984441636587,0,60,1.0,4,0.12658457450272637
5.75,3.503659887882241e-05,82.48311054260569,0,60,1.0,4,0.11724965982601615
5.755,2.375894748103639e-05,82.09350480709807,0,60,1.0,4,0.10808246604936639
5.76,1.5984413869232557e-05,81.71405963766578,0,60,1.0,4,0.09915434441566551
5.765,1.0669166579899869e-05,81.34742380962653,0,60,1.0,4,0.09052761905003609
5.77,7.06526633560511e-06,80.99584547562104,0,60,1.0,4,0.0822551876616715
5.775,4.641847214699205e-06,80.66116580464649,0,60,1.0,4,0.07438037187403498
5.78,3.025641074479182e-06,80.34482248380725,0,60,1.0,4,0.0669369996189941
5.785,1.9566278676921314e-06,80.04786208778954,0,60,1.0,4,0.05994969618328328
5.79,1.2553456560008793e-06,79.77096013143739,0,60,1.0,4,0.05343435603382097
5.795,7.990660428214668e-07,79.51444749231865,0,60,1.0,4,0.04739876452514476
5.8,5.046221251618276e-07,79.278341822098,0,60,1.0,4,0.041843336990541165
5.805,3.1616527078858815e-07,79.06238255449453,0,60,1.0,4,0.0367619424586949
5.81,1.9652884407760343e-07,78.86606815798669,0,60,1.0,4,0.03214278018792209
5.815,1.2120002189836396e-07,78.68869436592169,0,60,1.0,4,0.027969279198157438
5.82,7.415549848886236e-08,78.52939223681737,0,60,1.0,4,0.02422099380746759
5.825,4.501406988770349e-08,78.38716504432811,0,60,1.0,4,0.020874471631249742
5.83,0.0,78.26092316041584,0,60,1.0,4,0.017904074362725703
5.835,0.0,78.14951626792161,0,60,1.0,4,0.01528273571580264
5.84,0.0,78.05176241193382,0,60,1.0,4,0.012982644986678171
5.845,0.0,77.96647356610181,0,60,1.0,4,0.010975848614160268
5.85,0.0,77.89247754460511,0,60,1.0,4,0.009234765755414454
5.855,0.0,77.8286362284681,0,60,1.0,4,0.00773261714042586
5.86,0.0,77.77386019328746,0,60,1.0,4,0.0064437692538226255
5.865,0.0,77.72711992251153,0,60,1.0,4,0.005343998176741974
5.87,0.0,77.68745386566955,0,60,1.0,4,0.004410679192224787
5.875,0.0,77.65397365492345,0,60,1.0,4,0.003622909527610532
5.88,0.0,77.62586682737643,0,60,1.0,4,0.00296157240885711
5.885,0.0,77.60239741673563,0,60,1.0,4,0.0024093509820147575
5.89,0.0,77.58290477863605,0,60,1.0,4,0.0019507006737893896
5.895,0.0,77.56680100188535,0,60,1.0,4,0.0015717882796553462
5.9,0.0,77.55356723584703,0,60,1.0,4,0.0012604055493418
5.905,0.0,77.54274923483845,0,60,1.0,4,0.001005864349140077
5.91,0.0,77.5339523862881,0,60,1.0,4,0.000798879677367214
5.915,0.0,77.52683645271036,0,60,1.0,4,0.0006314459461260172
5.92,0.0,77.52111022023206,0,60,1.0,4,0.0004967110642837725
5.925,0.0,77.51652621000613,0,60,1.0,4,0.0003888520001443313
5.93,0.0,77.51287557458264,0,60,1.0,4,0.0003029546960620417
5.935,0.0,77.50998327004963,0,60,1.0,4,0.00023490047175601724
5.94,0.0,77.50770356706387,0,60,1.0,4,0.0001812604015028415
5.945,0.0,77.50591594005692,0,60,1.0,4,0.0001391985895746556
5.95,0.0,77.5045213539901,0,60,1.0,4,0.00010638479976705639
5.955,0.0,77.50343895192604,0,60,1.0,4,8.091651590689253e-05
5.96,0.0,77.50260313413699,0,60,1.0,4,6.125021498800218e-05
5.965,0.0,77.50196101013708,0,60,1.0,4,4.614141499012155e-05
5.97,0.0,77.50147019851048,0,60,1.0,4,3.459290612882422e-05
5.975,0.0,77.50109694528726,0,60,1.0,4,2.581047734726299e-05
5.98,0.0,77.50081452947285,0,60,1.0,4,1.9165399361126593e-05
5.985,0.0,77.50060192376263,0,60,1.0,4,1.4162912061893247e-05
5.99,0.0,77.50044267910418,0,60,1.0,4,1.041597892193589e-05
5.995,0.0,77.50032400327848,0,60,1.0,4,7.623606552442652e-06
6.0,0.0,77.5002360057779,0,60,1.0,4,5.553077126893079e-06
6.005,0.0,77.50017108373179,0,60,1.0,4,4.025499571432246e-06
6.01,0.0,77.50012342628081,0,60,1.0,4,2.9041477837247786e-06
6.015,0.0,77.50008861748469,0,60,1.0,4,2.0851172868841626e-06
6.02,0.0,77.50006332045746,0,60,1.0,4,1.4898931166338597e-06
6.025,0.0,77.50004502788177,0,60,1.0,5,1.0594795710136062e-06
6.03,0.0,77.50003186631457,0,60,1.0,5,7.49795636987555e-07
6.035,0.0,77.50002244372865,0,60,1.0,5,5.28087733019835e-07
6.04,0.0,77.50001573153237,0,60,1.0,5,3.701537028679441e-07
6.045,0.0,77.50001097387214,0,60,1.0,5,2.5820875614900773e-07
6.05,0.0,77.50000761836212,0,60,1.0,5,1.7925557926901092e-07
6.055,0.0,77.50000526351877,0,60,1.0,5,1.2384750053730815e-07
6.06,0.0,77.50000361912504,0,60,1.0,5,8.51558832651148e-08
6.065,0.0,77.50000247653146,0,60,1.0,5,5.827132855194898e-08
6.07,0.0,77.50000168654122,0,60,1.0,5,3.9683322938799394e-08
6.075,0.0,77.50000114304392,0,60,1.0,5,2.6895150995187578e-08
6.08,0.0,77.50000077097754,0,60,1.0,5,1.814064790671503e-08
6.085,0.0,77.50000051752744,0,60,1.0,5,1.2177116225168849e-08
6.09,0.001684486749771458,77.50000034573065,0,60,1.0,5,8.134838935802691e-09
6.095,0.003097557930867117,77.50000022985567,0,60,1.0,5,5.408368759376839e-09
6.1,0.005475106668887023,77.50000015208467,0,60,1.0,5,3.5784627444252904e-09
6.105,0.00930222931468658,77.50000010014482,0,60,1.0,5,2.3563486325549412e-09
6.11,0.01519157517868857,77.50000006562728,0,60,1.0,5,1.544171201363925e-09
6.115,0.023847336626128316,77.50000004280092,0,60,1.0,5,1.0070804739156944e-09
6.12,0.0359830743700859,77.50000002778016,0,60,1.0,5,6.536508328067344e-10
6.125,0.05218887796857759,77.50000001794442,0,60,1.0,5,4.222215466143098e-10
6.13,0.0727577001223134,77.5000000115355,0,60,1.0,5,2.714236469567849e-10
6.135,0.0974992498694751,77.50000000738001,0,60,1.0,5,1.7364728217430907e-10
6.14,0.12558706050443358,77.50000000469883,0,60,1.0,5,1.1056078405732371e-10
6.145,0.15549263588878245,77.50000000297739,0,60,1.0,5,7.005617001542466e-11
6.15,0.1850529723539114,77.50000000187757,0,60,1.0,5,4.417803639251575e-11
6.155,0.21169159439317053,77.50000000117832,0,60,1.0,5,2.7725210362833048e-11
6.16,0.23277292922115492,77.50000000073595,0,60,1.0,5,1.7316511623314855e-11
6.165,0.24602692519491282,77.50000000045745,0,60,1.0,5,1.0763468547820058e-11
6.17,0.24995056064839283,77.50000000028298,0,60,1.0,5,6.658370586913353e-12
6.175,0.24408826520424054,77.50000000017421,0,60,1.0,5,4.0990792459685025e-12
6.18,0.22911894216865275,77.50000000010674,0,60,1.0,5,2.511475994491347e-12
6.185,0.20672661788705934,77.50000000006509,0,60,1.0,5,1.5314285787205924e-12
6.19,0.17928878030241233,77.50000000003949,0,60,1.0,5,9.292227118481499e-13
6.195,0.14946211903866036,77.50000000002385,0,60,1.0,5,5.610779814613874e-13
6.2,0.1197651512573837,77.50000000001434,0,60,1.0,5,3.373824095915017e-13
6.205,0.09224675744988023,77.50000000000857,0,60,1.0,5,2.0162695042980724e-13
6.21,0.06829565320281596,77.5000000000051,0,60,1.0,5,1.2003992571194163e-13
6.215,0.04860224607515734,77.50000000000303,0,60,1.0,5,7.122146010207122e-14
6.22,0.03324612389699793,77.50000000000178,0,60,1.0,5,4.1796631515300014e-14
6.225,0.021859876340472782,77.50000000000105,0,60,1.0,5,2.4743605857057607e-14
6.23,0.01381595518554205,77.50000000000061,0,60,1.0,5,1.4378041241263203e-14
6.235,0.008394095110402422,77.50000000000036,0,60,1.0,5,8.359326303060002e-15
6.24,0.0049052535271608,77.5000000000002,0,60,1.0,5,4.681222729713601e-15
6.245,0.0027671663551903634,77.50000000000011,0,60,1.0,5,2.6749844169792007e-15
6.25,0.0015425553464444616,77.50000000000007,0,60,1.0,5,1.6718652606120004e-15
6.255,0.0009638206637011801,77.50000000000004,0,60,1.0,5,1.0031191563672002e-15
6.26,0.0009804935156568228,77.50000000000001,0,60,1.0,5,3.343730521224001e-16
6.265,0.0018793744894085216,77.50000000000001,0,60,1.0,5,3.343730521224001e-16
6.27,0.004535525206900863,77.5,0,60,1.0,5,0.0
6.275,0.010832767979632273,77.5,0,60,1.0,5,0.0
6.28,0.024208003392322392,77.5,0,60,1.0,5,0.0
6.285,0.0500971897335304,77.5,0,60,1.0,5,0.0
6.29,0.09582894921774403,77.5,0,60,1.0,5,0.0
6.295,0.16937896721820658,77.5000024899223,1,60,1.0,5,5.858640694147171e-08
6.3,0.27661303008991756,77.50000376594136,0,60,1.0,5,8.86103848910459e-08
6.305,0.4173782800009149,77.50000580655897,0,60,1.0,5,1.366249170373254e-07
6.31,0.5818720934538056,77.50000921610113,0,60,1.0,5,2.1684943844240265e-07
6.315,0.7494718801585675,77.50001520125163,0,60,1.0,5,3.5767650889711684e-07
6.32,0.891813020752378,77.50002621870189,0,60,1.0,5,6.169106327166339e-07
6.325,0.9800361632936612,77.5000472946736,0,60,1.0,5,1.1128158495707526e-06
6.33,0.993574479225126,77.50008865159667,0,60,1.0,5,2.085919921642819e-06
6.335,0.9263438449375362,77.50017080335597,0,60,1.0,5,4.018902493432024e-06
6.34,0.7873015962290536,77.50033416889595,0,60,1.0,5,7.862797551685136e-06
6.345,0.5959516244629897,77.50065668969144,0,60,1.0,5,1.5451522151512537e-05
6.35,0.376910120078773,77.50128514742521,0,60,1.0,5,3.023876294605543e-05
6.355,0.15739335672107918,77.50248910111931,0,60,1.0,5,5.8567085160214394e-05
6.36,-0.033361226269301235,77.50475076687931,0,60,1.0,5,0.00011178275010145038
6.365,-0.1680180840843834,77.50890971075603,0,60,1.0,5,0.00020964025308303996
6.37,-0.23069703190837854,77.51638746319077,0,60,1.0,5,0.0003855873691945282
6.375,-0.22587267821131068,77.52952295821818,0,60,1.0,5,0.0006946578404277742
6.38,-0.17718181630665902,77.55205296713095,0,60,1.0,5,0.0012247756971987655
6.385,-0.11494332516451301,77.58976923193298,0,60,1.0,5,0.0021122172219523853
6.39,-0.061810214049552864,77.65137158913011,0,60,1.0,5,0.0035616844501201767
6.395,-0.026546104631500547,77.74950933960535,0,60,1.0,5,0.005870807990714197
6.4,-0.00719600351942686,77.90195754734947,0,60,1.0,5,0.009457824643516901
6.405,0.0022072757983807078,78.13280954845649,0,60,1.0,5,0.014889636434270414
6.41,0.006917199873730717,78.47348539969117,0,60,1.0,5,0.022905538816262845
6.415,0.01004859748264829,78.96326918151414,0,60,1.0,5,0.03442986309445025
6.42,0.013037082251128167,79.64901532307513,0,60,1.0,5,0.050565066425297255
6.425,0.01645163937690478,80.58363230643764,0,60,1.0,5,0.07255605426912085
6.43,0.020526639934696615,81.82299164268099,0,60,1.0,5,0.10171745041602327
6.435,0.02539629541761738,83.42104740979093,0,60,1.0,5,0.139318762583316
6.44,0.031171612185577933,85.42319949161549,0,60,1.0,5,0.18642822333212922
6.445,0.03795853426638131,87.85828024175694,0,60,1.0,5,0.24372424098251633
6.45,0.0458588961882057,90.72994635140763,0,60,1.0,5,0.31129285532723844
6.455,0.054966995891435555,94.00864020707704,0,60,1.0,5,0.38843859310769496
6.46,0.06536491004445595,97.62555096793857,0,60,1.0,5,0.47354237571620156
6.465,0.07711726085088699,101.4700561076917,0,60,1.0,5,0.5640013201809813
6.47,0.09026570629555215,105.39188588857056,0,60,1.0,5,0.656279667966366
6.475,0.10482339848670268,109.20870606171526,0,60,1.0,5,0.7460872014521238
6.48,0.12076968927580028,112.7190103692385,0,60,1.0,5,0.828682596923259
6.485,0.13804539501007884,115.71928120045192,0,60,1.0,5,0.8992772047165157
6.49,0.15654895051787066,118.02349647615935,0,60,1.0,5,0.9534940347331612
6.495,0.17613378141900526,119.48243235510543,0,60,1.0,5,0.9878219377671866
6.5,0.19660720058055794,120.0,0,60,1.0,5,1.0
6.505,0.21773108748496234,119.54414514623332,0,60,1.0,5,0.989274003440784
6.51,0.23922453870058807,118.15060626577718,0,60,1.0,5,0.9564848533124044
6.515,0.2607685857914563,115.9189340023266,0,60,1.0,5,0.9039749177018022
6.52,0.2820129681603682,113.0014023537604,0,60,1.0,5,0.835327114206127
6.525,0.30258482867153996,109.58654217728734,0,60,1.0,5,0.7549774629949962
6.53,0.3220990771751686,105.87978274020551,0,60,1.0,5,0.6677595938871885
6.535,0.3401700499968971,102.08396338043309,0,60,1.0,5,0.5784461971866609
6.54,0.3564239911198326,98.38225280045256,0,60,1.0,5,0.49134712471653086
6.545,0.3705118017738417,94.92537560220612,0,60,1.0,5,0.41000883769896745
6.55,0.3821214567925213,91.82416132737285,0,60,1.0,5,0.3370390900558317
6.555,0.39098947374066967,89.14749954500232,0,60,1.0,5,0.27405881282358396
6.56,0.3969108472035567,86.92498677093954,0,60,1.0,5,0.2217643946103421
6.565,0.3997469255491936,85.15301231421464,0,60,1.0,5,0.18007087798152083
6.57,0.3994308076379137,83.802800714477,0,60,1.0,5,0.1483011932818118
6.575,0.3959699661768434,82.82898633651617,0,60,1.0,5,0.1253879138003804
6.58,0.38944595408114946,82.17756644157681,0,60,1.0,5,0.11006038686063094
6.585,0.38001120995358023,81.79246348760998,0,60,1.0,5,0.10099914088494068
6.59,0.3678831374098315,81.6203288855974,0,60,1.0,5,0.096948914955233
6.595,0.35333577933796634,81.61356473758555,0,60,1.0,5,0.09678975853142467
6.6,0.33668953221163944,81.73178486073043,0,60,1.0,5,0.09957140848777479
6.605,0.3182994390982644,81.9420707420853,0,60,1.0,5,0.1045193115784778
6.61,0.29854265738230645,82.21841509548847,0,60,1.0,5,0.11102153165855216
6.615,0.2778057157821067,82.54071215799348,0,60,1.0,5,0.11860499195278781
6.62,0.2564721553719815,82.89358016634176,0,60,1.0,5,0.1269077686198062
6.625,0.23491109433464996,83.26521429635454,0,60,1.0,5,0.13565210109069512
6.63,0.21346717185309805,83.64638683025535,0,60,1.0,5,0.14462086659424359
6.635,0.19245222055656455,84.02964611158836,0,60,1.0,5,0.15363873203737324
6.64,0.17213889801761392,84.40872047275327,0,60,1.0,5,0.16255812877066525
6.645,0.15275638501270183,84.77810639599608,0,60,1.0,5,0.1712495622587312
6.65,0.13448814019607322,85.13280774851903,0,60,1.0,5,0.17959547643574184
6.655,0.11747159495449566,85.46819036181611,0,60,1.0,5,0.18748683204273206
6.66,0.10179958433370105,85.77991932370172,0,60,1.0,5,0.1948216311459228
6.665,0.08752324394101413,86.06395196190566,0,60,1.0,5,0.20150475204483903
6.67,0.07465606047174059,86.31656557761202,0,60,1.0,5,0.20744860182616529
6.675,0.0631787448609295,86.53440443454016,0,60,1.0,5,0.21257422198918033
6.68,0.05304460019959574,86.71453489258448,0,60,1.0,5,0.21681258570787015
6.685,0.044185078305849994,86.85450086784542,0,60,1.0,5,0.22010590277283335
6.69,0.03651525513023255,86.95237417392687,0,60,1.0,5,0.22240880409239694
6.695,0.0299390014708757,87.0067959844984,0,60,1.0,5,0.2236893172823152
6.7,0.024353677220580638,87.01700687163441,0,60,1.0,5,0.22392957345022135
6.705,0.01965423034339045,86.98286378900848,0,60,1.0,5,0.22312620680019946
6.71,0.015736632374757337,86.90484310169278,0,60,1.0,5,0.22129042592218298
6.715,0.012500627640593535,86.78402938747664,0,60,1.0,5,0.21844775029356792
6.72,0.009851811652115898,86.62209028632776,0,60,1.0,5,0.21463741850182969
6.725,0.007703084175428559,86.42123816980182,0,60,1.0,5,0.20991148634827822
6.73,0.005975544002062424,86.18417984182693,0,60,1.0,5,0.20433364333710427
6.735,0.004598905818663047,85.91405586012334,0,60,1.0,5,0.1979777849440786
6.74,0.0035115256454839104,85.61437137477117,0,60,1.0,5,0.19092638528873335
6.745,0.002660121266303676,85.28892060876314,0,60,1.0,5,0.18326872020619142
6.75,0.0019992692560877024,84.94170724870098,0,60,1.0,5,0.17509899408708185
6.755,0.0014907520044639367,84.57686306932412,0,60,1.0,5,0.16651442516056753
6.76,0.0011028178277539807,84.19856708424052,0,60,1.0,5,0.15761334315860054
6.765,0.0008094059938923333,83.81096740174658,0,60,1.0,5,0.1484933506293313
6.77,0.0005893771793717645,83.41810777713161,0,60,1.0,5,0.13924959475603788
6.775,0.0004257792353490551,83.02386060247123,0,60,1.0,5,0.1299731906463819
6.78,0.0003051686392901525,82.63186777501524,0,60,1.0,5,0.12074983000035854
6.785,0.00021699992642659966,82.24549055077581,0,60,1.0,5,0.11165860119472501
6.79,0.00015308884054097838,81.86776913642002,0,60,1.0,5,0.10277103850400053
6.795,0.00010714989329311098,81.50139241554777,0,60,1.0,5,0.09415040977759458
6.8,7.440535854020571e-05,81.14867785950845,0,60,1.0,5,0.08585124375314007
6.805,5.1260276743925106e-05,80.81156135115772,0,60,1.0,5,0.07791909061547579
6.81,3.503659887882241e-05,80.49159636340788,0,60,1.0,5,0.07039050266842069
6.815,2.375894748103639e-05,80.18996169166836,0,60,1.0,5,0.0632932162745496
6.82,1.5984413869232557e-05,79.90747674623394,0,60,1.0,5,0.05664651167609269
6.825,1.0669166579899869e-05,79.64462327056756,0,60,1.0,5,0.05046172401335445
6.83,7.06526633560511e-06,79.40157226481837,0,60,1.0,5,0.04474287681925576
6.835,4.641847214699205e-06,79.17821485897923,0,60,1.0,5,0.03948740844657015
6.84,3.025641074479182e-06,78.97419589290332,0,60,1.0,5,0.034686962185960575
6.845,1.9566278676921314e-06,78.78894901536232,0,60,1.0,5,0.030328212126172236
6.85,1.2553456560008793e-06,78.62173220460336,0,60,1.0,5,0.0263936989318438
6.855,7.990660428214668e-07,78.4716627308444,0,60,1.0,5,0.022862652490456478
6.86,5.046221251618276e-07,78.33775071891439,0,60,1.0,5,0.019711781621515122
6.865,3.1616527078858815e-07,78.21893061897777,0,60,1.0,5,0.016916014564182714
6.87,1.9652884407760343e-07,78.11409004761917,0,60,1.0,5,0.014449177591039334
6.875,1.2120002189836396e-07,78.02209561389758,0,60,1.0,5,0.012284602679942977
6.88,7.415549848886236e-08,77.94181548966863,0,60,1.0,5,0.010395658580438293
6.885,4.501406988770349e-08,77.87213861598158,0,60,1.0,5,0.008756202728978438
6.89,0.0,77.81199055431146,0,60,1.0,5,0.0073409542190932715
6.895,0.0,77.76034609057041,0,60,1.0,5,0.006125790366362547
6.9,0.0,77.7162387801301,0,60,1.0,5,0.0050879712971787765
6.905,0.0,77.67876768333062,0,60,1.0,5,0.00420629843130869
6.91,0.0,77.64710158383804,0,60,1.0,5,0.00346121373736557
6.915,0.0,77.62048100809753,0,60,1.0,5,0.0028348472493535956
6.92,0.0,77.59821837486274,0,60,1.0,5,0.0023110205850056286
6.925,0.0,77.57969660154583,0,60,1.0,5,0.001875214154019619
6.93,0.0,77.56436648127566,0,60,1.0,5,0.0015145054417801287
6.935,0.0,77.55174312345649,0,60,1.0,5,0.0012174852577997546
6.94,0.0,77.54140172358554,0,60,1.0,5,0.0009741582020126316
6.945,0.0,77.53297289723739,0,60,1.0,5,0.0007758328761737817
6.95,0.0,77.52613778034294,0,60,1.0,5,0.0006150065963043637
6.955,0.0,77.52062306478282,0,60,1.0,5,0.0004852485831252927
6.96,0.0,77.51619610618371,0,60,1.0,5,0.0003810848513814883
6.965,0.0,77.51266021065541,0,60,1.0,5,0.0002978873095390982
6.97,0.0,77.50985017975476,0,60,1.0,5,0.00023176893540621408
6.975,0.0,77.50762816866609,0,60,1.0,5,0.00017948632155500544
6.98,0.0,77.50587989168099,0,60,1.0,5,0.0001383503924938957
6.985,0.0,77.50451119158359,0,60,1.0,5,0.0001061456843197394
6.99,0.0,77.50344497539443,0,60,1.0,5,8.105824457482627e-05
6.995,0.0,77.50261850787646,0,60,1.0,5,6.161195003441582e-05
7.0,0.0,77.50198104596413,0,60,1.0,5,4.6612846214804236e-05
7.005,0.0,77.5014917914954,0,60,1.0,5,3.510097636228024e-05
7.01,0.0,77.50111813594486,0,60,1.0,5,2.63090810556284e-05
7.015,0.0,77.50083416890804,0,60,1.0,5,1.962750371864572e-05
7.02,0.0,77.5006194215277,0,60,1.0,5,1.4574624181223578e-05
7.025,0.0,77.50045781656114,0,60,1.0,5,1.0772154379711698e-05
7.03,0.0,77.50033679808233,0,60,1.0,5,7.924660760703345e-06
7.035,0.0,77.50024661564738,0,60,1.0,5,5.802721114926445e-06
7.04,0.0,77.50017973992418,0,60,1.0,5,4.229174686543047e-06
7.045,0.0,77.50013038912986,0,60,1.0,5,3.0679795262291437e-06
7.05,0.0,77.50009414800623,0,60,1.0,5,2.2152472053328573e-06
7.055,0.0,77.50006766339348,0,60,1.0,5,1.5920798465926697e-06
7.06,0.0,77.5000484026712,0,60,1.0,5,1.1388863811134798e-06
7.065,0.0,77.5000344633739,0,60,1.0,5,8.109029151375366e-07
7.07,0.0,77.50002442413327,0,60,1.0,5,5.74685488760117e-07
7.075,0.0,77.50001722873685,0,60,1.0,5,4.053820435621995e-07
7.08,0.0,77.50001209652484,0,60,1.0,5,2.8462411391421267e-07
7.085,0.001684486749771458,77.50000845358089,0,60,1.0,5,1.9890778563582418e-07
7.09,0.003097557930867117,77.50000588022185,0,60,1.0,5,1.383581611528772e-07
7.095,0.005475106668887023,77.50000407117355,0,60,1.0,5,9.579231880921083e-08
7.1,0.00930222931468658,77.5000028055527,0,60,1.0,5,6.601300463123206e-08
7.105,0.01519157517868857,77.50000192437696,0,60,1.0,5,4.527945788247641e-08
7.11,0.023847336626128316,77.5000013138167,0,60,1.0,5,3.09133340311639e-08
7.115,0.0359830743700859,77.50000089279615,0,60,1.0,5,2.1006968274698867e-08
7.12,0.05218887796857759,77.50000060386903,0,60,1.0,5,1.4208682962228468e-08
7.125,0.0727577001223134,77.50000040654264,0,60,1.0,5,9.565709165947149e-09
7.13,0.0974992498694751,77.50000027242211,0,60,1.0,5,6.4099320779325135e-09
7.135,0.12558706050443358,77.50000018169858,0,60,1.0,5,4.2752607415048475e-09
7.14,0.15549263588878245,77.50000012062397,0,60,1.0,5,2.8382109629841153e-09
7.145,0.1850529723539114,77.50000007970556,0,60,1.0,5,1.875424887283075e-09
7.15,0.21169159439317053,77.50000005242235,0,60,1.0,5,1.233467080109061e-09
7.155,0.23277292922115492,77.50000003431762,0,60,1.0,5,8.074734710937585e-10
7.16,0.24602692519491282,77.50000002236098,0,60,1.0,5,5.261406787373262e-10
7.165,0.24995056064839283,77.50000001450232,0,60,1.0,5,3.412310434214305e-10
7.17,0.24408826520424054,77.50000000936176,0,60,1.0,5,2.202766074119341e-10
7.175,0.22911894216865275,77.50000000601518,0,60,1.0,5,1.4153375987542164e-10
7.18,0.20672661788705934,77.50000000384694,0,60,1.0,5,9.05161227017422e-11
7.185,0.17928878030241233,77.5000000024488,0,60,1.0,5,5.761882996867986e-11
7.19,0.14946211903866036,77.50000000155154,0,60,1.0,5,3.650684983072364e-11
7.195,0.1197651512573837,77.50000000097847,0,60,1.0,5,2.3022922130835734e-11
7.2,0.09224675744988023,77.5000000006142,0,60,1.0,5,1.4451603312730133e-11
7.205,0.06829565320281596,77.50000000038374,0,60,1.0,5,9.02907552646117e-12
7.21,0.04860224607515734,77.50000000023864,0,60,1.0,5,5.615126664291465e-12
7.215,0.03324612389699793,77.50000000014771,0,60,1.0,5,3.4754735037602265e-12
7.22,0.021859876340472782,77.500000000091,0,60,1.0,5,2.1413250257918502e-12
7.225,0.01381595518554205,77.5000000000558,0,60,1.0,5,1.3130829756846652e-12
7.23,0.008394095110402422,77.50000000003406,0,60,1.0,6,8.01492205937393e-13
7.235,0.0049052535271608,77.50000000002069,0,60,1.0,6,4.868471638902145e-13
7.24,0.0027671663551903634,77.50000000001252,0,60,1.0,6,2.945826589198345e-13
7.245,0.0015425553464444616,77.50000000000753,0,60,1.0,6,1.7721771762487205e-13
7.25,0.0009638206637011801,77.5000000000045,0,60,1.0,6,1.0599625752280083e-13
7.255,0.0009804935156568228,77.50000000000269,0,60,1.0,6,6.319650685113362e-14
7.26,0.0018793744894085216,77.50000000000159,0,60,1.0,6,3.744978183770881e-14
7.265,0.004535525206900863,77.50000000000094,0,60,1.0,6,2.2068621440078406e-14
7.27,0.010832767979632273,77.50000000000055,0,60,1.0,6,1.3040549032773603e-14
7.275,0.024208003392322392,77.50000000000033,0,60,1.0,6,7.690580198815202e-15
7.28,0.0500971897335304,77.50000000000018,0,60,1.0,6,4.3468496775912015e-15
7.285,0.09582894921774403,77.50000000000011,0,60,1.0,6,2.6749844169792007e-15
7.29,0.16937896721820658,77.50000000000006,0,60,1.0,6,1.3374922084896003e-15
7.295,0.27661303008991756,77.50000000000004,0,60,1.0,6,1.0031191563672002e-15
7.3,0.4173782800009149,77.50000000000001,0,60,1.0,6,3.343730521224001e-16
7.305,0.5818720934538056,77.50000000000001,0,60,1.0,6,3.343730521224001e-16
7.31,0.7494718801585675,77.5,0,60,1.0,6,0.0
7.315,0.891813020752378,77.5,0,60,1.0,6,0.0
7.32,0.9800361632936612,77.5,0,60,1.0,6,0.0
7.325,0.993574479225126,77.5,0,60,1.0,6,0.0
7.33,0.9263438449375362,77.5,0,60,1.0,6,0.0
7.335,0.7873015962290536,77.50000249379623,1,60,1.0,6,5.8677558372972485e-08
7.34,0.5959516244629897,77.50000382794776,0,60,1.0,6,9.006935917622125e-08
7.345,0.376910120078773,77.50000600036053,0,60,1.0,6,1.4118495361050436e-07
7.35,0.15739335672107918,77.50000970943701,0,60,1.0,6,2.2845734138975198e-07
7.355,-0.033361226269301235,77.5000163868594,0,60,1.0,6,3.8557316235496463e-07
7.36,-0.1680180840843834,77.50002902423199,0,60,1.0,6,6.829231056947131e-07
7.365,-0.23069703190837854,77.50005389476512,0,60,1.0,6,1.268112120388811e-06
7.37,-0.22587267821131068,77.50010404947875,0,60,1.0,6,2.4482230294191086e-06
7.375,-0.17718181630665902,77.50020622040319,0,60,1.0,6,4.852244780843595e-06
7.38,-0.11494332516451301,77.50041404783398,0,60,1.0,6,9.742301976115521e-06
7.385,-0.061810214049552864,77.50083263801669,0,60,1.0,6,1.959148274562829e-05
7.39,-0.026546104631500547,77.50166268015035,0,60,1.0,6,3.912188589050161e-05
7.395,-0.00719600351942686,77.5032770278292,0,60,1.0,6,7.710653715762687e-05
7.4,0.0022072757983807078,77.50634895429774,0,60,1.0,6,0.0001493871599467077
7.405,0.006917199873730717,77.5120590120072,0,60,1.0,6,0.0002837414589929294
7.41,0.01004859748264829,77.52241562190353,0,60,1.0,6,0.0005274263977302032
7.415,0.013037082251128167,77.54073109806174,0,60,1.0,6,0.0009583787779233182
7.42,0.01645163937690478,77.57229617891642,0,60,1.0,6,0.0017010865627392323
7.425,0.020526639934696615,77.62528706971409,0,60,1.0,6,0.0029479310520962505
7.43,0.02539629541761738,77.7119131132812,0,60,1.0,6,0.004986190900734086
7.435,0.031171612185577933,77.84976424958334,0,60,1.0,6,0.008229747049019874
7.44,0.03795853426638131,78.06324165455797,0,60,1.0,6,0.013252744813128709
7.445,0.0458588961882057,78.38485440731901,0,60,1.0,6,0.020820103701623793
7.45,0.054966995891435555,78.85605110071748,0,60,1.0,6,0.031907084722764226
7.455,0.06536491004445595,79.52715125776614,0,60,1.0,6,0.047697676653320836
7.46,0.07711726085088699,80.45588226229052,0,60,1.0,6,0.06955017087742389
7.465,0.09026570629555215,81.70405544530206,0,60,1.0,6,0.09891895165416613
7.47,0.10482339848670268,83.33206946519013,0,60,1.0,6,0.1372251638868266
7.475,0.12076968927580028,85.39123254573106,0,60,1.0,6,0.1856760598995543
7.48,0.13804539501007884,87.9143369512103,0,60,1.0,6,0.24504322238141887
7.485,0.15654895051787066,90.90544393360824,0,60,1.0,6,0.3154222102025468
7.49,0.17613378141900526,94.33034336266256,0,60,1.0,6,0.396008079121472
7.495,0.19660720058055794,98.10950421064753,0,60,1.0,6,0.4849295108387654
7.5,0.21773108748496234,102.11539119616134,0,60,1.0,6,0.5791856752037963
7.505,0.23922453870058807,106.17568759500095,0,60,1.0,6,0.6747220610588459
7.51,0.2607685857914563,110.08321153763839,0,60,1.0,6,0.7666638008856091
7.515,0.2820129681603682,113.61222628224048,0,60,1.0,6,0.8496994419350702
7.52,0.30258482867153996,116.53961398056285,0,60,1.0,6,0.9185791524838317
7.525,0.3220990771751686,118.66827111065578,0,60,1.0,6,0.9686652026036654
7.53,0.3401700499968971,119.84936740314373,0,60,1.0,6,0.9964557036033819
7.535,0.3564239911198326,120.0,0,60,1.0,6,1.0
7.54,0.3705118017738417,119.11335164043977,0,60,1.0,6,0.9791376856574064
7.545,0.3821214567925213,117.2596422087817,0,60,1.0,6,0.9355209931478047
7.55,0.39098947374066967,114.57771066593102,0,60,1.0,6,0.8724167215513182
7.555,0.3969108472035567,111.25864733544083,0,60,1.0,6,0.7943211137750783
7.56,0.3997469255491936,107.52417358062645,0,60,1.0,6,0.7064511430735636
7.565,0.3994308076379137,103.60317581973628,0,60,1.0,6,0.614192372229089
7.57,0.3959699661768434,99.70982687224779,0,60,1.0,6,0.5225841616999479
7.575,0.38944595408114946,96.02611916232044,0,60,1.0,6,0.43590868617224565
7.58,0.38001120995358023,92.69058107724302,0,60,1.0,6,0.3574254371116006
7.585,0.3678831374098315,89.79371843965717,0,60,1.0,6,0.28926396328605103
7.59,0.35333577933796634,87.37958938048318,0,60,1.0,6,0.2324609265996043
7.595,0.33668953221163944,85.45209135214775,0,60,1.0,6,0.1871080318152411
7.6,0.3182994390982644,83.98411918621723,0,60,1.0,6,0.15256751026393478
7.605,0.29854265738230645,82.92773974008752,0,60,1.0,6,0.12771152329617688
7.61,0.2778057157821067,82.22383282330381,0,60,1.0,6,0.11114900760714845
7.615,0.2564721553719815,81.81013488536829,0,60,1.0,6,0.10141493847925377
7.62,0.23491109433464996,81.62715266498432,0,60,1.0,6,0.09710947447021935
7.625,0.21346717185309805,81.62187846806819,0,60,1.0,6,0.09698537571925152
7.63,0.19245222055656455,81.74957199839405,0,60,1.0,6,0.09998992937397755
7.635,0.17213889801761392,81.9740569196691,0,60,1.0,6,0.10527192752162577
7.64,0.15275638501270183,82.2670305887381,0,60,1.0,6,0.11216542561736693
7.645,0.13448814019607322,82.6068399772209,0,60,1.0,6,0.12016094064049178
7.65,0.11747159495449566,82.97707830332679,0,60,1.0,6,0.12887243066651274
7.655,0.10179958433370105,83.36524231629802,0,60,1.0,6,0.13800570155995348
7.66,0.08752324394101413,83.76158527846451,0,60,1.0,6,0.14733141831681196
7.665,0.07465606047174059,84.15821910240557,0,60,1.0,6,0.156663978880131
7.67,0.0631787448609295,84.54846447631488,0,60,1.0,6,0.16584622297211474
7.675,0.05304460019959574,84.92641729835339,0,60,1.0,6,0.17473923054949142
7.68,0.044185078305849994,85.2866873918496,0,60,1.0,6,0.18321617392587286
7.685,0.03651525513023255,85.6242648120442,0,60,1.0,6,0.19115917204809887
7.69,0.0299390014708757,85.93447459191242,0,60,1.0,6,0.19845822569205693
7.695,0.024353677220580638,86.21298860076058,0,60,1.0,6,0.20501149648848427
7.7,0.01965423034339045,86.45587095455626,0,60,1.0,6,0.21072637540132377
7.705,0.015736632374757337,86.65963999461131,0,60,1.0,6,0.2155209410496779
7.71,0.012500627640593535,86.82133492105665,0,60,1.0,6,0.21932552755427404
7.715,0.009851811652115898,86.93857885017128,0,60,1.0,6,0.2220842082393243
7.72,0.007703084175428559,87.00963266008729,0,60,1.0,6,0.2237560625902892
7.725,0.005975544002062424,87.03343582049601,0,60,1.0,6,0.2243161369528473
7.73,0.004598905818663047,87.00963173891398,0,60,1.0,6,0.2237560409156231
7.735,0.0035115256454839104,86.938576193165,0,60,1.0,6,0.22208414572152954
7.74,0.002660121266303676,86.82132827999462,0,60,1.0,6,0.219325371293991
7.745,0.0019992692560877024,86.65962406044066,0,60,1.0,6,0.2155205661280156
7.75,0.0014907520044639367,86.45583375264079,0,60,1.0,6,0.21072550006213614
7.755,0.0011028178277539807,86.21290391749133,0,60,1.0,6,0.2050095039409725
7.76,0.0008094059938923333,85.93428659481444,0,60,1.0,6,0.19845380223092796
7.765,0.0005893771793717645,85.62385776540609,0,60,1.0,6,0.1911495944801432
7.77,0.0004257792353490551,85.28582782555713,0,60,1.0,6,0.18319594883663848
7.775,0.0003051686392901525,84.92464695644118,0,60,1.0,6,0.17469757544567482
7.78,0.00021699992642659966,84.54490834692771,0,60,1.0,6,0.1657625493394756
7.785,0.00015308884054097838,84.1512521860989,0,60,1.0,6,0.1565000514376212
7.79,0.00010714989329311098,83.74827318768754,0,60,1.0,6,0.14701819265147165
7.795,7.440535854020571e-05,83.34043415451329,0,60,1.0,6,0.13742198010619505
7.8,5.1260276743925106e-05,82.93198775273756,0,60,1.0,6,0.1278114765350013
7.805,3.503659887882241e-05,82.52690826257488,0,60,1.0,6,0.11828019441352654
7.81,2.375894748103639e-05,82.12883462523583,0,60,1.0,6,0.10891375588790177
7.815,1.5984413869232557e-05,81.74102563739208,0,60,1.0,6,0.09978883852687258
7.82,1.0669166579899869e-05,81.36632767600855,0,60,1.0,6,0.09097241590608358
7.825,7.06526633560511e-06,81.00715488812935,0,60,1.0,6,0.08252129148539646
7.83,4.641847214699205e-06,80.66548136982472,0,60,1.0,6,0.07448191458411102
7.835,3.025641074479182e-06,80.34284450049499,0,60,1.0,6,0.06689045883517625
7.84,1.9566278676921314e-06,80.04035830388436,0,60,1.0,6,0.059773136561984956
7.845,1.2553456560008793e-06,79.75873548233507,0,60,1.0,6,0.0531467172314134
7.85,7.990660428214668e-07,79.4983166189272,0,60,1.0,6,0.04701921456299307
7.855,5.046221251618276e-07,79.25910496239372,0,60,1.0,6,0.04139070499749932
7.86,3.1616527078858815e-07,79.04080519796145,0,60,1.0,6,0.03625423995203405
7.865,1.9652884407760343e-07,78.84286465667756,0,60,1.0,6,0.03159681545123677
7.87,1.2120002189836396e-07,78.66451551736972,0,60,1.0,6,0.02740036511458169
7.875,7.415549848886236e-08,78.50481669878073,0,60,1.0,6,0.023642745853664215
7.88,4.501406988770349e-08,78.36269431353409,0,60,1.0,6,0.020298689730213936
7.885,0.0,78.23697974928406,0,60,1.0,6,0.01734069998315436
7.89,0.0,78.12644464506172,0,60,1.0,6,0.014739874001452335
7.895,0.0,78.02983223281902,0,60,1.0,6,0.012466640772212191
7.9,0.0,77.94588470720849,0,60,1.0,6,0.010491404875493934
7.905,0.0,77.87336646401664,0,60,1.0,6,0.008785093270979788
7.91,0.0,77.81108320437647,0,60,1.0,6,0.00731960480885819
7.915,0.0,77.75789703460497,0,60,1.0,6,0.006068165520116843
7.92,0.0,77.7127377985272,0,60,1.0,6,0.0050055952594635425
7.925,0.0,77.67461096019198,0,60,1.0,6,0.0041084931809878605
7.93,0.0,77.64260241090227,0,60,1.0,6,0.003355350844759307
7.935,0.0,77.61588060740796,0,60,1.0,6,0.0027266025272461
7.94,0.0,77.5936964605813,0,60,1.0,6,0.0022046226019129147
7.945,0.0,77.57538138902093,0,60,1.0,6,0.0017736797416690105
7.95,0.0,77.56034393314094,0,60,1.0,6,0.001419857250375103
7.955,0.0,77.5480652957481,0,60,1.0,6,0.0011309481352494754
7.96,0.0,77.53809413809743,0,60,1.0,6,0.0008963326611161151
7.965,0.0,77.53004091886824,0,60,1.0,6,0.0007068451498408944
7.97,0.0,77.52357201997987,0,60,1.0,6,0.0005546357642321495
7.975,0.0,77.51840385980424,0,60,1.0,6,0.0004330319953938295
7.98,0.0,77.51429715282914,0,60,1.0,6,0.0003364035959798591
7.985,0.0,77.51105143644553,0,60,1.0,6,0.00026003379871828174
7.99,0.0,77.5084999511344,0,60,1.0,6,0.0001999988502210967
7.995,0.0,77.50650493041393,0,60,1.0,6,0.0001530571862100019
8.0,0.0,77.50495333166883,0,60,1.0,6,0.00011654898044305221
8.005,0.0,77.50375301836885,0,60,1.0,6,8.830631456128364e-05
8.01,0.0,77.50282938794548,0,60,1.0,6,6.65738340113448e-05
8.015,0.0,77.5021224273595,0,60,1.0,6,4.9939467282242466e-05
8.02,0.0,77.50158416968905,0,60,1.0,6,3.7274580918900775e-05
8.025,0.0,77.50117651939523,0,60,1.0,6,2.7682809299529468e-05
8.03,0.0,77.5008694107589,0,60,1.0,6,2.0456723738708902e-05
8.035,0.0,77.50063926283588,0,60,1.0,6,1.5041478491184535e-05
8.04,0.0,77.50046769468173,0,60,1.0,6,1.1004580746617542e-05
8.045,0.0,77.50034046614508,0,60,1.0,6,8.010968119432458e-06
8.05,0.0,77.50024661186245,0,60,1.0,6,5.80263205767337e-06
8.055,0.0,77.50017773891317,0,60,1.0,6,4.182092074496027e-06
8.06,0.0,77.5001274616702,0,60,1.0,6,2.9990981224326627e-06
8.065,0.0,77.50009095052647,0,60,1.0,6,2.1400123875323246e-06
8.07,0.0,77.500064574248,0,60,1.0,6,1.5193940705959155e-06
8.075,0.0,77.50004561860754,0,60,1.0,6,1.0733790010336259e-06
8.08,0.0,77.50003206662257,0,60,1.0,6,7.545087662626483e-07
8.085,0.0,77.5000224281237,0,60,1.0,6,5.277205576369263e-07
8.09,0.0,77.50001560850087,0,60,1.0,6,3.6725884409433465e-07
8.095,0.0,77.50001080831444,0,60,1.0,6,2.5431328100132624e-07
8.1,0.001684486749771458,77.50000744703297,0,60,1.0,6,1.7522430519367096e-07
8.105,0.003097557930867117,77.50000510548624,0,60,1.0,6,1.2012908795815533e-07
8.11,0.005475106668887023,77.5000034827273,0,60,1.0,6,8.194652456736282e-08
8.115,0.00930222931468658,77.50000236390684,0,60,1.0,6,5.5621337517496775e-08
8.12,0.01519157517868857,77.50000159650313,0,60,1.0,6,3.7564779417794744e-08
8.125,0.023847336626128316,77.50000107284681,0,60,1.0,6,2.5243454448333496e-08
8.13,0.0359830743700859,77.50000071735509,0,60,1.0,6,1.6878943356727284e-08
8.135,0.05218887796857759,77.50000047726456,0,60,1.0,6,1.1229754443989162e-08
8.14,0.0727577001223134,77.5000003159459,0,60,1.0,6,7.4340211058905185e-09
8.145,0.0974992498694751,77.50000020811088,0,60,1.0,6,4.89672649617954e-09
8.15,0.12558706050443358,77.50000013639716,0,60,1.0,6,3.209344988456852e-09
8.155,0.15549263588878245,77.50000008894969,0,60,1.0,6,2.092933888942592e-09
8.16,0.1850529723539114,77.50000005771811,0,60,1.0,6,1.358073204220786e-09
8.165,0.21169159439317053,77.50000003726561,0,60,1.0,6,8.768378232643419e-10
8.17,0.23277292922115492,77.50000002394049,0,60,1.0,6,5.633055747346267e-10
8.175,0.24602692519491282,77.50000001530334,0,60,1.0,6,3.6007864925041384e-10
8.18,0.24995056064839283,77.50000000973347,0,60,1.0,6,2.2902280333629974e-10
8.185,0.24408826520424054,77.50000000615996,0,60,1.0,6,1.4494035253044465e-10
8.19,0.22911894216865275,77.50000000387898,0,60,1.0,6,9.127013393427821e-11
8.195,0.20672661788705934,77.50000000243044,0,60,1.0,6,5.718681998533772e-11
8.2,0.17928878030241233,77.50000000151523,0,60,1.0,6,3.565252668255091e-11
8.205,0.14946211903866036,77.50000000093995,0,60,1.0,6,2.2116436786531908e-11
8.21,0.1197651512573837,77.50000000058017,0,60,1.0,6,1.3651114225949106e-11
8.215,0.09224675744988023,77.50000000035632,0,60,1.0,6,8.38406990891706e-12
8.22,0.06829565320281596,77.50000000021774,0,60,1.0,6,5.123263904619414e-12
8.225,0.04860224607515734,77.5000000001324,0,60,1.0,6,3.1153537266244016e-12
8.23,0.03324612389699793,77.5000000000801,0,60,1.0,6,1.884860894813969e-12
8.235,0.021859876340472782,77.50000000004822,0,60,1.0,6,1.1345277658513034e-12
8.24,0.01381595518554205,77.50000000002889,0,60,1.0,6,6.797804149648394e-13
8.245,0.008394095110402422,77.50000000001721,0,60,1.0,6,4.049257661202265e-13
8.25,0.0049052535271608,77.5000000000102,0,60,1.0,6,2.4007985142388327e-13
8.255,0.0027671663551903634,77.50000000000603,0,60,1.0,6,1.4177417409989764e-13
8.26,0.0015425553464444616,77.50000000000354,0,60,1.0,6,8.325888997847762e-14
8.265,0.0009638206637011801,77.50000000000206,0,60,1.0,6,4.848409255774801e-14
8.27,0.0009804935156568228,77.5000000000012,0,60,1.0,6,2.808733637828161e-14
8.275,0.0018793744894085216,77.5000000000007,0,60,1.0,6,1.6384279553997603e-14
8.28,0.004535525206900863,77.5000000000004,0,60,1.0,6,9.362445459427202e-15
8.285,0.010832767979632273,77.50000000000023,0,60,1.0,6,5.349968833958401e-15
8.29,0.024208003392322392,77.50000000000013,0,60,1.0,6,3.0093574691016007e-15
8.295,0.0500971897335304,77.50000000000007,0,60,1.0,6,1.6718652606120004e-15
8.3,0.09582894921774403,77.50000000000004,0,60,1.0,6,1.0031191563672002e-15
8.305,0.16937896721820658,77.50000000000003,0,60,1.0,6,6.687461042448002e-16
8.31,0.27661303008991756,77.50000000000001,0,60,1.0,6,3.343730521224001e-16
8.315,0.4173782800009149,77.5,0,60,1.0,6,0.0
8.32,0.5818720934538056,77.5,0,60,1.0,6,0.0
8.325,0.7494718801585675,77.5,0,60,1.0,6,0.0
8.33,0.891813020752378,77.5,0,60,1.0,6,0.0
8.335,0.9800361632936612,77.5,0,60,1.0,6,0.0
8.34,0.993574479225126,77.50000249158927,1,60,1.0,6,5.8625629903604824e-08
8.345,0.9263438449375362,77.50000379993156,0,60,1.0,6,8.941015440701877e-08
8.35,0.7873015962290536,77.50000591356006,0,60,1.0,6,1.3914258963321865e-07
8.355,0.5959516244629897,77.50000948821413,0,60,1.0,6,2.232520972377054e-07
8.36,0.376910120078773,77.50001585275675,0,60,1.0,6,3.730060410923804e-07
8.365,0.15739335672107918,77.50002775258693,0,60,1.0,6,6.530020454299708e-07
8.37,-0.033361226269301235,77.50005088320476,0,60,1.0,6,1.1972518768074865e-06
8.375,-0.1680180840843834,77.50009697753961,0,60,1.0,6,2.2818244614801885e-06
8.38,-0.23069703190837854,77.50018985514251,0,60,1.0,6,4.4671798237312244e-06
8.385,-0.22587267821131068,77.50037693597443,0,60,1.0,6,8.86908175128637e-06
8.39,-0.17718181630665902,77.5007504971461,0,60,1.0,6,1.7658756378830946e-05
8.395,-0.11494332516451301,77.50148568815435,0,60,1.0,6,3.495736833756649e-05
8.4,-0.061810214049552864,77.5029063011008,0,60,1.0,6,6.838355531278787e-05
8.405,-0.026546104631500547,77.50559469328022,0,60,1.0,6,0.0001316398418874301
8.41,-0.00719600351942686,77.51056896157553,0,60,1.0,6,0.00024868144883598953
8.415,0.0022072757983807078,77.51955777873579,0,60,1.0,6,0.00046018302907735713
8.42,0.006917199873730717,77.53540961162948,0,60,1.0,6,0.0008331673324582479
8.425,0.01004859748264829,77.56267550080591,0,60,1.0,6,0.0014747176660213936
8.43,0.013037082251128167,77.60839895060144,0,60,1.0,6,0.0025505635435633047
8.435,0.01645163937690478,77.68312739222574,0,60,1.0,7,0.004308879817076291
8.44,0.020526639934696615,77.80212156747965,0,60,1.0,7,0.007108742764226944
8.445,0.02539629541761738,77.98667804053113,0,60,1.0,7,0.011451248012497217
8.45,0.031171612185577933,78.2653960540608,0,60,1.0,7,0.018009318919077675
8.455,0.03795853426638131,78.67512045415272,0,60,1.0,7,0.0276498930388875
8.46,0.0458588961882057,79.26119444970924,0,60,1.0,7,0.04143986940492322
8.465,0.054966995891435555,80.07658695093733,0,60,1.0,7,0.060625575316172374
8.47,0.06536491004445595,81.17945433275491,0,60,1.0,7,0.08657539606482152
8.475,0.07711726085088699,82.62879178438199,0,60,1.0,7,0.12067745375016443
8.48,0.09026570629555215,84.47805091356526,0,60,1.0,7,0.16418943326035895
8.485,0.10482339848670268,86.76695055985479,0,60,1.0,7,0.2180458955259951
8.49,0.12076968927580028,89.51215426574176,0,60,1.0,7,0.28263892389980605
8.495,0.13804539501007884,92.69795756330784,0,60,1.0,7,0.35759900148959617
8.5,0.15654895051787066,96.26851367759303,0,60,1.0,7,0.44161208653160083
8.505,0.17613378141900526,100.12330495994888,0,60,1.0,7,0.5323130578811501
8.51,0.19660720058055794,104.11743307542135,0,60,1.0,7,0.6262925429510905
8.515,0.21773108748496234,108.0677995687299,0,60,1.0,7,0.7192423427936446
8.52,0.23922453870058807,111.76540786080702,0,60,1.0,7,0.806244890842518
8.525,0.2607685857914563,114.99296001198383,0,60,1.0,7,0.8821872943996194
8.53,0.2820129681603682,117.54584870617109,0,60,1.0,7,0.9422552636746138
8.535,0.30258482867153996,119.2537975193284,0,60,1.0,7,0.9824422945724329
8.54,0.3220990771751686,120.0,0,60,1.0,7,1.0
8.545,0.3401700499968971,119.73478616852705,0,60,1.0,7,0.9937596745535777
8.55,0.3564239911198326,118.48161074436288,0,60,1.0,7,0.964273193985009
8.555,0.3705118017738417,116.33437700317083,0,60,1.0,7,0.9137500471334312
8.56,0.3821214567925213,113.44653664567393,0,60,1.0,7,0.8458008622511513
8.565,0.39098947374066967,110.0137397798626,0,60,1.0,7,0.7650291712908848
8.57,0.3969108472035567,106.25277411123389,0,60,1.0,7,0.6765358614407975
8.575,0.3997469255491936,102.379945660435,0,60,1.0,7,0.5854104861278823
8.58,0.3994308076379137,98.59186644889243,0,60,1.0,7,0.4962792105621749
8.585,0.3959699661768434,95.05091722544557,0,60,1.0,7,0.4129627582457782
8.59,0.38944595408114946,91.87663925411117,0,60,1.0,7,0.33827386480261573
8.595,0.38001120995358023,89.14321850764775,0,60,1.0,7,0.2739580825328881
8.6,0.3678831374098315,86.88228150405848,0,60,1.0,7,0.22075956480137607
8.605,0.35333577933796634,85.08958077085171,0,60,1.0,7,0.1785783710788638
8.61,0.33668953221163944,83.73387384780025,0,60,1.0,7,0.1466793846541236
8.615,0.3182994390982644,82.76636774511343,0,60,1.0,7,0.12391453517913947
8.62,0.29854265738230645,82.12942061521238,0,60,1.0,7,0.10892754388735017
8.625,0.2778057157821067,81.76364371168687,0,60,1.0,7,0.10032102851027924
8.63,0.2564721553719815,81.61301314306044,0,60,1.0,7,0.09677677983671629
8.635,0.23491109433464996,81.62799466338542,0,60,1.0,7,0.09712928619730406
8.64,0.21346717185309805,81.76695761370226,0,60,1.0,7,0.10039900267534729
8.645,0.19245222055656455,81.99629623494059,0,60,1.0,7,0.10579520552801382
8.65,0.17213889801761392,82.28970640800449,0,60,1.0,7,0.11269897430598803
8.655,0.15275638501270183,82.62701710307833,0,60,1.0,7,0.12063569654301953
8.66,0.13448814019607322,82.99288504130256,0,60,1.0,7,0.12924435391300135
8.665,0.11747159495449566,83.37555924692441,0,60,1.0,7,0.13824845286880966
8.67,0.10179958433370105,83.76583043233612,0,60,1.0,7,0.14743130429026158
8.675,0.08752324394101413,84.15620940218066,0,60,1.0,7,0.15661669181601562
8.68,0.07465606047174059,84.54033150564439,0,60,1.0,7,0.16565485895633855
8.685,0.0631787448609295,84.91255790226458,0,60,1.0,7,0.1744131271121078
8.69,0.05304460019959574,85.26773383409369,0,60,1.0,7,0.182770207861028
8.695,0.044185078305849994,85.60106363445495,0,60,1.0,7,0.19061326198717518
8.7,0.03651525513023255,85.90806713082313,0,60,1.0,7,0.19783687366642652
8.705,0.0299390014708757,86.18458904516632,0,60,1.0,7,0.2043432716509722
8.71,0.024353677220580638,86.42683991565524,0,60,1.0,7,0.21004329213306439
8.715,0.01965423034339045,86.63145296320879,0,60,1.0,7,0.2148577167813832
8.72,0.015736632374757337,86.79554590696114,0,60,1.0,7,0.218718727222615
8.725,0.012500627640593535,86.91678008455858,0,60,1.0,7,0.22157129610726076
8.73,0.009851811652115898,86.9934116100258,0,60,1.0,7,0.22337439082413652
8.735,0.007703084175428559,87.0243309843258,0,60,1.0,7,0.22410190551354825
8.74,0.005975544002062424,87.00908880101858,0,60,1.0,7,0.2237432659063195
8.745,0.004598905818663047,86.94790613701386,0,60,1.0,7,0.22230367381209082
8.75,0.0035115256454839104,86.84166899981275,0,60,1.0,7,0.21980397646618244
8.755,0.002660121266303676,86.6919068819151,0,60,1.0,7,0.21628016192741417
8.76,0.0019992692560877024,86.50075607951777,0,60,1.0,7,0.21178249598865342
8.765,0.0014907520044639367,86.27090897359844,0,60,1.0,7,0.20637432879055148
8.77,0.0011028178277539807,86.00555094222749,0,60,1.0,7,0.20013061040535263
8.775,0.0008094059938923333,85.7082869635257,0,60,1.0,7,0.19313616384766338
8.78,0.0005893771793717645,85.38306026845892,0,60,1.0,7,0.1854837710225628
8.785,0.0004257792353490551,85.03406560313258,0,60,1.0,7,0.17727213183841353
8.79,0.0003051686392901525,84.66565975665422,0,60,1.0,7,0.16860375898009933
8.795,0.00021699992642659966,84.2822720027081,0,60,1.0,7,0.15958287065195523
8.8,0.00015308884054097838,83.88831699514871,0,60,1.0,7,0.15031334106232266
8.805,0.00010714989329311098,83.48811245900696,0,60,1.0,7,0.14089676374134014
8.81,7.440535854020571e-05,83.0858037409954,0,60,1.0,7,0.13143067625871535
8.815,5.1260276743925106e-05,82.68529694362411,0,60,1.0,7,0.12200698690880259
8.82,3.503659887882241e-05,82.29020198220566,0,60,1.0,7,0.11271063487542726
8.825,2.375894748103639e-05,81.90378649321408,0,60,1.0,7,0.10361850572268436
8.83,1.5984413869232557e-05,81.52894110457248,0,60,1.0,7,0.09479861422523486
8.835,1.0669166579899869e-05,81.16815617144748,0,60,1.0,7,0.08630955697523478
8.84,7.06526633560511e-06,80.82350970120721,0,60,1.0,7,0.07820022826369917
8.845,4.641847214699205e-06,80.49666585205212,0,60,1.0,7,0.07050978475416748
