Time,ECG,Pressure,R_Peaks,mean_hr,hrv_scale,Phase_Bin,Normalized_Pressure
0.0,0.001684486749771458,77.5,0,60,1.0,0,0.0
0.005,0.003097557930867117,77.5,0,60,1.0,0,0.0
0.01,0.005475106668887023,77.5,0,60,1.0,0,0.0
0.015,0.00930222931468658,77.5,0,60,1.0,0,0.0
0.02,0.01519157517868857,77.5,0,60,1.0,0,0.0
0.025,0.023847336626128316,77.5,0,60,1.0,0,0.0
0.03,0.0359830743700859,77.5,0,60,1.0,0,0.0
0.035,0.05218887796857759,77.5,0,60,1.0,0,0.0
0.04,0.0727577001223134,77.5,0,60,1.0,0,0.0
0.045,0.0974992498694751,77.5,0,60,1.0,0,0.0
0.05,0.12558706050443358,77.5,0,60,1.0,0,0.0
0.055,0.15549263588878245,77.5,0,60,1.0,0,0.0
0.06,0.1850529723539114,77.5,0,60,1.0,0,0.0
0.065,0.21169159439317053,77.5,0,60,1.0,0,0.0
0.07,0.23277292922115492,77.5,0,60,1.0,0,0.0
0.075,0.24602692519491282,77.5,0,60,1.0,0,0.0
0.08,0.24995056064839283,77.5,0,60,1.0,0,0.0
0.085,0.24408826520424054,77.5,0,60,1.0,0,0.0
0.09,0.22911894216865275,77.5,0,60,1.0,0,0.0
0.095,0.20672661788705934,77.5,0,60,1.0,0,0.0
0.1,0.17928878030241233,77.5,0,60,1.0,0,0.0
0.105,0.14946211903866036,77.5,0,60,1.0,0,0.0
0.11,0.1197651512573837,77.5,0,60,1.0,0,0.0
0.115,0.09224675744988023,77.5,0,60,1.0,0,0.0
0.12,0.06829565320281596,77.5,0,60,1.0,0,0.0
0.125,0.04860224607515734,77.5,0,60,1.0,0,0.0
0.13,0.03324612389699793,77.5,0,60,1.0,0,0.0
0.135,0.021859876340472782,77.5,0,60,1.0,0,0.0
0.14,0.01381595518554205,77.5,0,60,1.0,0,0.0
0.145,0.008394095110402422,77.5,0,60,1.0,0,0.0
0.15,0.0049052535271608,77.5,0,60,1.0,0,0.0
0.155,0.0027671663551903634,77.5,0,60,1.0,0,0.0
0.16,0.0015425553464444616,77.5,0,60,1.0,0,0.0
0.165,0.0009638206637011801,77.5,0,60,1.0,0,0.0
0.17,0.0009804935156568228,77.5,0,60,1.0,0,0.0
0.175,0.0018793744894085216,77.5,0,60,1.0,0,0.0
0.18,0.004535525206900863,77.5,0,60,1.0,0,0.0
0.185,0.010832767979632273,77.5,0,60,1.0,0,0.0
0.19,0.024208003392322392,77.5,0,60,1.0,0,0.0
0.195,0.0500971897335304,77.5,0,60,1.0,0,0.0
0.2,0.09582894921774403,77.5,0,60,1.0,0,0.0
0.205,0.16937896721820658,77.5,0,60,1.0,0,0.0
0.21,0.27661303008991756,77.5,0,60,1.0,0,0.0
0.215,0.4173782800009149,77.5,0,60,1.0,0,0.0
0.22,0.5818720934538056,77.5,0,60,1.0,0,0.0
0.225,0.7494718801585675,77.5,0,60,1.0,0,0.0
0.23,0.891813020752378,77.5,0,60,1.0,0,0.0
0.235,0.9800361632936612,77.5,0,60,1.0,0,0.0
0.24,0.993574479225126,77.5,0,60,1.0,0,0.0
0.245,0.9263438449375362,77.5,0,60,1.0,0,0.0
0.25,0.7873015962290536,77.5,0,60,1.0,0,0.0
0.255,0.5959516244629897,77.5,0,60,1.0,0,0.0
0.26,0.376910120078773,77.5,0,60,1.0,0,0.0
0.265,0.15739335672107918,77.5,0,60,1.0,0,0.0
0.27,-0.033361226269301235,77.5,0,60,1.0,0,0.0
0.275,-0.1680180840843834,77.5,0,60,1.0,0,0.0
0.28,-0.23069703190837854,77.5,0,60,1.0,0,0.0
0.285,-0.22587267821131068,77.5,0,60,1.0,0,0.0
0.29,-0.17718181630665902,77.5,0,60,1.0,0,0.0
0.295,-0.11494332516451301,77.5,0,60,1.0,0,0.0
0.3,-0.061810214049552864,77.5,0,60,1.0,0,0.0
0.305,-0.026546104631500547,77.5,0,60,1.0,0,0.0
0.31,-0.00719600351942686,77.5,0,60,1.0,0,0.0
0.315,0.0022072757983807078,77.5,0,60,1.0,0,0.0
0.32,0.006917199873730717,77.5,0,60,1.0,0,0.0
0.325,0.01004859748264829,77.5,0,60,1.0,0,0.0
0.33,0.013037082251128167,77.5,0,60,1.0,0,0.0
0.335,0.01645163937690478,77.5,0,60,1.0,0,0.0
0.34,0.020526639934696615,77.5,0,60,1.0,0,0.0
0.345,0.02539629541761738,77.5,0,60,1.0,0,0.0
0.35,0.031171612185577933,77.5,0,60,1.0,0,0.0
0.355,0.03795853426638131,77.5,0,60,1.0,0,0.0
0.36,0.0458588961882057,77.5,0,60,1.0,0,0.0
0.365,0.054966995891435555,77.5,0,60,1.0,0,0.0
0.37,0.06536491004445595,77.5,0,60,1.0,0,0.0
0.375,0.07711726085088699,77.5,0,60,1.0,0,0.0
0.38,0.09026570629555215,77.5,0,60,1.0,0,0.0
0.385,0.10482339848670268,77.5,0,60,1.0,0,0.0
0.39,0.12076968927580028,77.5,0,60,1.0,0,0.0
0.395,0.13804539501007884,77.5,0,60,1.0,0,0.0
0.4,0.15654895051787066,77.5,0,60,1.0,0,0.0
0.405,0.17613378141900526,77.5,0,60,1.0,0,0.0
0.41,0.19660720058055794,77.5,0,60,1.0,0,0.0
0.415,0.21773108748496234,77.5,0,60,1.0,0,0.0
0.42,0.23922453870058807,77.5,0,60,1.0,0,0.0
0.425,0.2607685857914563,77.5,0,60,1.0,0,0.0
0.43,0.2820129681603682,77.5,0,60,1.0,0,0.0
0.435,0.30258482867153996,77.5,0,60,1.0,0,0.0
0.44,0.3220990771751686,77.5,0,60,1.0,0,0.0
0.445,0.3401700499968971,77.5,0,60,1.0,0,0.0
0.45,0.3564239911198326,77.5,0,60,1.0,0,0.0
0.455,0.3705118017738417,77.5,0,60,1.0,0,0.0
0.46,0.3821214567925213,77.5,0,60,1.0,0,0.0
0.465,0.39098947374066967,77.5,0,60,1.0,0,0.0
0.47,0.3969108472035567,77.5,0,60,1.0,0,0.0
0.475,0.3997469255491936,77.5,0,60,1.0,0,0.0
0.48,0.3994308076379137,77.5,0,60,1.0,0,0.0
0.485,0.3959699661768434,77.5,0,60,1.0,0,0.0
0.49,0.38944595408114946,77.5,0,60,1.0,0,0.0
0.495,0.38001120995358023,77.5,0,60,1.0,0,0.0
0.5,0.3678831374098315,77.5,0,60,1.0,0,0.0
0.505,0.35333577933796634,77.5,0,60,1.0,0,0.0
0.51,0.33668953221163944,77.5,0,60,1.0,0,0.0
0.515,0.3182994390982644,77.5,0,60,1.0,0,0.0
0.52,0.29854265738230645,77.5,0,60,1.0,0,0.0
0.525,0.2778057157821067,77.5,0,60,1.0,0,0.0
0.53,0.2564721553719815,77.5,0,60,1.0,0,0.0
0.535,0.23491109433464996,77.5,0,60,1.0,0,0.0
0.54,0.21346717185309805,77.5,0,60,1.0,0,0.0
0.545,0.19245222055656455,77.5,0,60,1.0,0,0.0
0.55,0.17213889801761392,77.5,0,60,1.0,0,0.0
0.555,0.15275638501270183,77.5,0,60,1.0,0,0.0
0.56,0.13448814019607322,77.5,0,60,1.0,0,0.0
0.565,0.11747159495449566,77.5,0,60,1.0,0,0.0
0.57,0.10179958433370105,77.5,0,60,1.0,0,0.0
0.575,0.08752324394101413,77.5,0,60,1.0,0,0.0
0.58,0.07465606047174059,77.5,0,60,1.0,0,0.0
0.585,0.0631787448609295,77.5,0,60,1.0,0,0.0
0.59,0.05304460019959574,77.5,0,60,1.0,0,0.0
0.595,0.044185078305849994,77.5,0,60,1.0,0,0.0
0.6,0.03651525513023255,77.5,0,60,1.0,0,0.0
0.605,0.0299390014708757,77.5,0,60,1.0,0,0.0
0.61,0.024353677220580638,77.5,0,60,1.0,0,0.0
0.615,0.01965423034339045,77.5,0,60,1.0,0,0.0
0.62,0.015736632374757337,77.5,0,60,1.0,0,0.0
0.625,0.012500627640593535,77.5,0,60,1.0,0,0.0
0.63,0.009851811652115898,77.5,0,60,1.0,0,0.0
0.635,0.007703084175428559,77.5,0,60,1.0,0,0.0
0.64,0.005975544002062424,77.5,0,60,1.0,0,0.0
0.645,0.004598905818663047,77.5,0,60,1.0,0,0.0
0.65,0.0035115256454839104,77.5,0,60,1.0,0,0.0
0.655,0.002660121266303676,77.5,0,60,1.0,0,0.0
0.66,0.0019992692560877024,77.5,0,60,1.0,0,0.0
0.665,0.0014907520044639367,77.5,0,60,1.0,0,0.0
0.67,0.0011028178277539807,77.5,0,60,1.0,0,0.0
0.675,0.0008094059938923333,77.5,0,60,1.0,0,0.0
0.68,0.0005893771793717645,77.5,0,60,1.0,0,0.0
0.685,0.0004257792353490551,77.5,0,60,1.0,0,0.0
0.69,0.0003051686392901525,77.5,0,60,1.0,0,0.0
0.695,0.00021699992642659966,77.5,0,60,1.0,0,0.0
0.7,0.00015308884054097838,77.5,0,60,1.0,0,0.0
0.705,0.00010714989329311098,77.5,0,60,1.0,0,0.0
0.71,7.440535854020571e-05,77.5,0,60,1.0,0,0.0
0.715,5.1260276743925106e-05,77.5,0,60,1.0,0,0.0
0.72,3.503659887882241e-05,77.5,0,60,1.0,0,0.0
0.725,2.375894748103639e-05,77.5,0,60,1.0,0,0.0
0.73,1.5984413869232557e-05,77.5,0,60,1.0,0,0.0
0.735,1.0669166579899869e-05,77.5,0,60,1.0,0,0.0
0.74,7.06526633560511e-06,77.5,0,60,1.0,0,0.0
0.745,4.641847214699205e-06,77.5,0,60,1.0,0,0.0
0.75,3.025641074479182e-06,77.5,0,60,1.0,0,0.0
0.755,1.9566278676921314e-06,77.5,0,60,1.0,0,0.0
0.76,1.2553456560008793e-06,77.5,0,60,1.0,0,0.0
0.765,7.990660428214668e-07,77.5,0,60,1.0,0,0.0
0.77,5.046221251618276e-07,77.5,0,60,1.0,0,0.0
0.775,3.1616527078858815e-07,77.5,0,60,1.0,0,0.0
0.78,1.9652884407760343e-07,77.5,0,60,1.0,0,0.0
0.785,1.2120002189836396e-07,77.5,0,60,1.0,0,0.0
0.79,7.415549848886236e-08,77.5,0,60,1.0,0,0.0
0.795,4.501406988770349e-08,77.5,0,60,1.0,0,0.0
0.8,0.0,77.5,0,60,1.0,0,0.0
0.805,0.0,77.5,0,60,1.0,0,0.0
0.81,0.0,77.5,0,60,1.0,0,0.0
0.815,0.0,77.5,0,60,1.0,0,0.0
0.82,0.0,77.5,0,60,1.0,0,0.0
0.825,0.0,77.5,0,60,1.0,0,0.0
0.83,0.0,77.5,0,60,1.0,0,0.0
0.835,0.0,77.5,0,60,1.0,0,0.0
0.84,0.0,77.5,0,60,1.0,0,0.0
0.845,0.0,77.5,0,60,1.0,0,0.0
0.85,0.0,77.5,0,60,1.0,0,0.0
0.855,0.0,77.5,0,60,1.0,0,0.0
0.86,0.0,77.5,0,60,1.0,0,0.0
0.865,0.0,77.5,0,60,1.0,0,0.0
0.87,0.0,77.5,0,60,1.0,0,0.0
0.875,0.0,77.5,0,60,1.0,0,0.0
0.88,0.0,77.5,0,60,1.0,0,0.0
0.885,0.0,77.5,0,60,1.0,0,0.0
0.89,0.0,77.5,0,60,1.0,0,0.0
0.895,0.0,77.5,0,60,1.0,0,0.0
0.9,0.0,77.5,0,60,1.0,0,0.0
0.905,0.0,77.5,0,60,1.0,0,0.0
0.91,0.0,77.5,0,60,1.0,0,0.0
0.915,0.0,77.5,0,60,1.0,0,0.0
0.92,0.0,77.5,0,60,1.0,0,0.0
0.925,0.0,77.5,0,60,1.0,0,0.0
0.93,0.0,77.5,0,60,1.0,0,0.0
0.935,0.0,77.5,0,60,1.0,0,0.0
0.94,0.0,77.5,0,60,1.0,0,0.0
0.945,0.0,77.5,0,60,1.0,0,0.0
0.95,0.0,77.5,0,60,1.0,0,0.0
0.955,0.0,77.5,0,60,1.0,0,0.0
0.96,0.0,77.5,0,60,1.0,0,0.0
0.965,0.0,77.5,0,60,1.0,0,0.0
0.97,0.0,77.5,0,60,1.0,0,0.0
0.975,0.0,77.5,0,60,1.0,0,0.0
0.98,0.0,77.5,0,60,1.0,0,0.0
0.985,0.0,77.5,0,60,1.0,0,0.0
0.99,0.0,77.5,0,60,1.0,0,0.0
0.995,0.0,77.5,0,60,1.0,0,0.0
1.0,0.0,77.5,0,60,1.0,0,0.0
1.005,0.0,77.5,0,60,1.0,0,0.0
1.01,0.0,77.5,0,60,1.0,0,0.0
1.015,0.0,77.5,0,60,1.0,0,0.0
1.02,0.0,77.5,0,60,1.0,0,0.0
1.025,0.001684486749771458,77.5,0,60,1.0,0,0.0
1.03,0.003097557930867117,77.5,0,60,1.0,0,0.0
1.035,0.005475106668887023,77.5,0,60,1.0,0,0.0
1.04,0.00930222931468658,77.5,0,60,1.0,0,0.0
1.045,0.01519157517868857,77.5,0,60,1.0,0,0.0
1.05,0.023847336626128316,77.5,0,60,1.0,0,0.0
1.055,0.0359830743700859,77.5,0,60,1.0,0,0.0
1.06,0.05218887796857759,77.5,0,60,1.0,0,0.0
1.065,0.0727577001223134,77.5,0,60,1.0,0,0.0
1.07,0.0974992498694751,77.5,0,60,1.0,0,0.0
1.075,0.12558706050443358,77.5,0,60,1.0,0,0.0
1.08,0.15549263588878245,77.5,0,60,1.0,0,0.0
1.085,0.1850529723539114,77.5,0,60,1.0,0,0.0
1.09,0.21169159439317053,77.5,0,60,1.0,0,0.0
1.095,0.23277292922115492,77.5,0,60,1.0,0,0.0
1.1,0.24602692519491282,77.5,0,60,1.0,0,0.0
1.105,0.24995056064839283,77.5,0,60,1.0,0,0.0
1.11,0.24408826520424054,77.5,0,60,1.0,0,0.0
1.115,0.22911894216865275,77.5,0,60,1.0,0,0.0
1.12,0.20672661788705934,77.5,0,60,1.0,0,0.0
1.125,0.17928878030241233,77.5,0,60,1.0,0,0.0
1.13,0.14946211903866036,77.5,0,60,1.0,0,0.0
1.135,0.1197651512573837,77.5,0,60,1.0,0,0.0
1.14,0.09224675744988023,77.5,0,60,1.0,0,0.0
1.145,0.06829565320281596,77.5,0,60,1.0,0,0.0
1.15,0.04860224607515734,77.5,0,60,1.0,0,0.0
1.155,0.03324612389699793,77.5,0,60,1.0,0,0.0
1.16,0.021859876340472782,77.5,0,60,1.0,0,0.0
1.165,0.01381595518554205,77.5,0,60,1.0,0,0.0
1.17,0.008394095110402422,77.5,0,60,1.0,0,0.0
1.175,0.0049052535271608,77.5,0,60,1.0,0,0.0
1.18,0.0027671663551903634,77.5,0,60,1.0,0,0.0
1.185,0.0015425553464444616,77.5,0,60,1.0,0,0.0
1.19,0.0009638206637011801,77.5,0,60,1.0,0,0.0
1.195,0.0009804935156568228,77.5,0,60,1.0,0,0.0
1.2,0.0018793744894085216,77.5,0,60,1.0,0,0.0
1.205,0.004535525206900863,77.5,0,60,1.0,1,0.0
1.21,0.010832767979632273,77.5,0,60,1.0,1,0.0
1.215,0.024208003392322392,77.5,0,60,1.0,1,0.0
1.22,0.0500971897335304,77.5,0,60,1.0,1,0.0
1.225,0.09582894921774403,77.5,0,60,1.0,1,0.0
1.23,0.16937896721820658,77.5,0,60,1.0,1,0.0
1.235,0.27661303008991756,77.5,0,60,1.0,1,0.0
1.24,0.4173782800009149,77.5,0,60,1.0,1,0.0
1.245,0.5818720934538056,77.5,0,60,1.0,1,0.0
1.25,0.7494718801585675,77.5,0,60,1.0,1,0.0
1.255,0.891813020752378,77.5,0,60,1.0,1,0.0
1.26,0.9800361632936612,77.5,0,60,1.0,1,0.0
1.265,0.993574479225126,77.50000249606323,1,60,1.0,1,5.8730899568485364e-08
1.27,0.9263438449375362,77.5000038398575,0,60,1.0,1,9.034958820313264e-08
1.275,0.7873015962290536,77.500006033868,0,60,1.0,1,1.4197336480826967e-07
1.28,0.5959516244629897,77.50000979196264,0,60,1.0,1,2.303991209373635e-07
1.285,0.376910120078773,77.50001658325932,0,60,1.0,1,3.9019433703448587e-07
1.29,0.15739335672107918,77.50002948944842,0,60,1.0,1,6.938693746526362e-07
1.295,-0.033361226269301235,77.50005499618474,0,60,1.0,1,1.2940278763300524e-06
1.3,-0.1680180840843834,77.50010664152244,0,60,1.0,1,2.509212292606582e-06
1.305,-0.23069703190837854,77.50021223841208,0,60,1.0,1,4.993844990006919e-06
1.31,-0.22587267821131068,77.50042774487464,0,60,1.0,1,1.006458528569751e-05
1.315,-0.17718181630665902,77.50086306382961,0,60,1.0,1,2.0307384226177473e-05
1.32,-0.11494332516451301,77.50172846110615,0,60,1.0,1,4.0669673085978825e-05
1.325,-0.061810214049552864,77.5034152292072,0,60,1.0,1,8.035833428721162e-05
1.33,-0.026546104631500547,77.5066308676186,0,60,1.0,1,0.00015602041455522073
1.335,-0.00719600351942686,77.51261714788687,0,60,1.0,1,0.0002968740679263834
1.34,0.0022072757983807078,77.5234879390857,0,60,1.0,1,0.000552657390251705
1.345,0.006917199873730717,77.5427303078502,0,60,1.0,1,0.00100541900824015
1.35,0.01004859748264829,77.57591328443115,0,60,1.0,1,0.001786194927791819
1.355,0.013037082251128167,77.63163821024733,0,60,1.0,1,0.0030973696528783824
1.36,0.01645163937690478,77.7227359889992,0,60,1.0,1,0.005240846799981281
1.365,0.020526639934696615,77.86766338596527,0,60,1.0,1,0.008650903199182882
1.37,0.02539629541761738,78.09196918540792,0,60,1.0,1,0.013928686715480447
1.375,0.031171612185577933,78.42959438652437,0,60,1.0,1,0.021872809094691092
1.38,0.03795853426638131,78.9236517302522,0,60,1.0,1,0.03349768777064007
1.385,0.0458588961882057,79.62622444184039,0,60,1.0,1,0.05002881039624453
1.39,0.054966995891435555,80.5966700411891,0,60,1.0,1,0.07286282449856706
1.395,0.06536491004445595,81.89795705296187,0,60,1.0,1,0.10348134242263227
1.4,0.07711726085088699,83.590740736457,0,60,1.0,1,0.14331154674016455
1.405,0.09026570629555215,85.72521884287897,0,60,1.0,1,0.19353456100891703
1.41,0.10482339848670268,88.3312835786459,0,60,1.0,1,0.25485373126225636
1.415,0.12076968927580028,91.40803681418913,0,60,1.0,1,0.32724792503974426
1.42,0.13804539501007884,94.91424919828907,0,60,1.0,1,0.4097470399597428
1.425,0.15654895051787066,98.7616754538298,0,60,1.0,1,0.5002747165607011
1.43,0.17613378141900526,102.81314459839467,0,60,1.0,1,0.5956034023151687
1.435,0.19660720058055794,106.88692793605124,0,60,1.0,1,0.6914571279070879
1.44,0.21773108748496234,110.76804090701927,0,60,1.0,1,0.7827774331063357
1.445,0.23922453870058807,114.22596317855158,0,60,1.0,1,0.8641403100835666
1.45,0.2607685857914563,117.0369802382121,0,60,1.0,1,0.9302818879579317
1.455,0.2820129681603682,119.00824368351186,0,60,1.0,1,0.9766645572591027
1.46,0.30258482867153996,120.0,0,60,1.0,1,1.0
1.465,0.3220990771751686,119.94245116636986,0,60,1.0,1,0.998645909796938
1.47,0.3401700499968971,118.84443995887491,0,60,1.0,1,0.9728103519735274
1.475,0.3564239911198326,116.79247804582917,0,60,1.0,1,0.9245288951959805
1.48,0.3705118017738417,113.94028233815197,0,60,1.0,1,0.857418407956517
1.485,0.3821214567925213,110.4905961503334,0,60,1.0,1,0.7762493211843153
1.49,0.39098947374066967,106.67229771772733,0,60,1.0,1,0.686407005122996
1.495,0.3969108472035567,102.71639188641603,0,60,1.0,1,0.5933268679156714
1.5,0.3997469255491936,98.83435529010902,0,60,1.0,1,0.5019848303555062
1.505,0.3994308076379137,95.20154861737079,0,60,1.0,1,0.4165070262910774
1.51,0.3959699661768434,91.94724589020063,0,60,1.0,1,0.3399351974164855
1.515,0.38944595408114946,89.1515501373611,0,60,1.0,1,0.2741541208790847
1.52,0.38001120995358023,86.84834318674413,0,60,1.0,1,0.21996101615868544
1.525,0.3678831374098315,85.03265064487029,0,60,1.0,1,0.17723883870283028
1.53,0.35333577933796634,83.67047424017679,0,60,1.0,1,0.1451876291806303
1.535,0.33668953221163944,82.70922389874646,0,60,1.0,1,0.12256997408815196
1.54,0.3182994390982644,82.08726133343396,0,60,1.0,1,0.10793556078668136
1.545,0.29854265738230645,81.74159879534122,0,60,1.0,1,0.09980232459626397
1.55,0.2778057157821067,81.61334027722147,0,60,1.0,1,0.09678447711109336
1.555,0.2564721553719815,81.6509036668351,0,60,1.0,1,0.09766832157259073
1.56,0.23491109433464996,81.81136644357802,0,60,1.0,1,0.10144391631948291
1.565,0.21346717185309805,82.06042651697676,0,60,1.0,1,0.10730415334062968
1.57,0.19245222055656455,82.37148928088116,0,60,1.0,1,0.11462327719720386
1.575,0.17213889801761392,82.72432417484066,0,60,1.0,1,0.12292527470213319
1.58,0.15275638501270183,83.10362302191093,0,60,1.0,1,0.13184995345672787
1.585,0.13448814019607322,83.49767392349987,0,60,1.0,1,0.14112173937646763
1.59,0.11747159495449566,83.89726171789964,0,60,1.0,1,0.15052380512705033
1.595,0.10179958433370105,84.29482974674242,0,60,1.0,1,0.15987834698217465
1.6,0.08752324394101413,84.68388923933297,0,60,1.0,1,0.16903268798430518
1.605,0.07465606047174059,85.05863764443257,0,60,1.0,1,0.17785029751606035
1.61,0.0631787448609295,85.41373904216793,0,60,1.0,1,0.18620562452159842
1.615,0.05304460019959574,85.74422176195922,0,60,1.0,1,0.19398168851668762
1.62,0.044185078305849994,86.0454552613927,0,60,1.0,1,0.20106953556218127
1.625,0.03651525513023255,86.31317664893982,0,60,1.0,1,0.20736886232799567
1.63,0.0299390014708757,86.54354497329876,0,60,1.0,1,0.2127892934893827
1.635,0.024353677220580638,86.73320770957436,0,60,1.0,1,0.21725194610763196
1.64,0.01965423034339045,86.87936861096367,0,60,1.0,1,0.22069102614032157
1.645,0.015736632374757337,86.97984948291244,0,60,1.0,1,0.223055281950881
1.65,0.012500627640593535,87.03314081261668,0,60,1.0,1,0.2243091955909807
1.655,0.009851811652115898,87.03843787511315,0,60,1.0,1,0.22443383235560344
1.66,0.007703084175428559,86.99566019345913,0,60,1.0,1,0.2234272986696266
1.665,0.005975544002062424,86.90545322943116,0,60,1.0,1,0.22130478186896846
1.67,0.004598905818663047,86.76917202771214,0,60,1.0,1,0.2180981653579328
1.675,0.0035115256454839104,86.58884728386485,0,60,1.0,1,0.21385523020858474
1.68,0.002660121266303676,86.36713497361453,0,60,1.0,1,0.2086384699674006
1.685,0.0019992692560877024,86.10725126733229,0,60,1.0,1,0.20252355923134793
1.69,0.0014907520044639367,85.81289494876535,0,60,1.0,1,0.19559752820624346
1.695,0.0011028178277539807,85.48815994788507,0,60,1.0,1,0.1879567046561192
1.7,0.0008094059938923333,85.13744087266727,0,60,1.0,1,0.17970449112158282
1.705,0.0005893771793717645,84.76533457621503,0,60,1.0,1,0.17094904885211823
1.71,0.0004257792353490551,84.37654082180066,0,60,1.0,1,0.1618009605129567
1.715,0.0003051686392901525,83.97576501288177,0,60,1.0,1,0.15237094147957095
1.72,0.00021699992642659966,83.5676257473155,0,60,1.0,1,0.14276766464271773
1.725,0.00015308884054097838,83.1565696492459,0,60,1.0,1,0.1330957564528446
1.73,0.00010714989329311098,82.74679554691296,0,60,1.0,1,0.12345401286854031
1.735,7.440535854020571e-05,82.34218962124325,0,60,1.0,1,0.11393387344101764
1.74,5.1260276743925106e-05,81.94627267143458,0,60,1.0,1,0.10461818050434317
1.745,3.503659887882241e-05,81.5621601530088,0,60,1.0,1,0.0955802388943248
1.75,2.375894748103639e-05,81.19253516317026,0,60,1.0,1,0.08688318030988854
1.755,1.5984413869232557e-05,80.83963409787519,0,60,1.0,1,0.07857962583235743
1.76,1.0669166579899869e-05,80.5052443018934,0,60,1.0,1,0.07071163063278585
1.765,7.06526633560511e-06,80.19071269077197,0,60,1.0,1,0.06331088684169352
1.77,4.641847214699205e-06,79.89696405136633,0,60,1.0,1,0.056399154149795884
1.775,3.025641074479182e-06,79.6245275306656,0,60,1.0,1,0.04998888307448477
1.78,1.9566278676921314e-06,79.37356970210506,0,60,1.0,1,0.044083992990707255
1.785,1.2553456560008793e-06,79.14393255178399,0,60,1.0,1,0.03868076592432919
1.79,7.990660428214668e-07,78.93517474813203,0,60,1.0,1,0.03376881760310653
1.795,5.046221251618276e-07,78.74661463915068,0,60,1.0,1,0.029332109156486548
1.8,3.1616527078858815e-07,78.57737355111618,0,60,1.0,1,0.02534996590861604
1.805,1.9652884407760343e-07,78.42641813017309,0,60,1.0,1,0.021798073651131532
1.81,1.2120002189836396e-07,78.29260066180315,0,60,1.0,1,0.01864942733654469
1.815,7.415549848886236e-08,78.17469651121884,0,60,1.0,1,0.0158752120286786
1.82,4.501406988770349e-08,78.07143803963184,0,60,1.0,1,0.013445600932513959
1.825,0.0,77.98154455767332,0,60,1.0,1,0.011330460180548632
1.83,0.0,77.9037480701592,0,60,1.0,1,0.009499954591981082
1.835,0.0,77.83681473981095,0,60,1.0,1,0.00792505270143405
1.84,0.0,77.7795621471775,0,60,1.0,1,0.006577932874764723
1.845,0.0,77.730872547324,0,60,1.0,1,0.005432295231152881
1.85,0.0,77.68970241993146,0,60,1.0,1,0.0044635863513285716
1.855,0.0,77.65508867876439,0,60,1.0,1,0.0036491453826914388
1.86,0.0,77.62615195063168,0,60,1.0,1,0.002968281191333651
1.865,0.0,77.60209735548692,0,60,1.0,1,0.0024022907173392627
1.87,0.0,77.58221322128246,0,60,1.0,1,0.001934428736057846
1.875,0.0,77.56586815304183,0,60,1.0,1,0.001549838895101964
1.88,0.0,77.5525068488899,0,60,1.0,1,0.0012354552679977695
1.885,0.0,77.54164501992928,0,60,1.0,1,0.0009798828218653371
1.89,0.0,77.53286372908609,0,60,1.0,1,0.0007732642137903119
1.895,0.0,77.52580341921859,0,60,1.0,1,0.0006071392757315366
1.9,0.0,77.5201578553129,0,60,1.0,1,0.0004743024779506467
1.905,0.0,77.51566816144691,0,60,1.0,1,0.0003686626222802528
1.91,0.0,77.51211709188321,0,60,1.0,1,0.0002851080443108725
1.915,0.0,77.50932363821491,0,60,1.0,1,0.0002193797227037334
1.92,0.0,77.50713804159365,0,60,1.0,1,0.00016795391985056086
1.925,0.0,77.50543725103012,0,60,1.0,1,0.00012793531835567966
1.93,0.0,77.5041208456039,0,60,1.0,1,9.69610730327772e-05
1.935,0.0,77.5031074199587,0,60,1.0,1,7.311576373400813e-05
1.94,0.0,77.50233141833475,0,60,1.0,1,5.485690199407145e-05
1.945,0.0,77.50174039213948,0,60,1.0,1,4.095040328192066e-05
1.95,0.0,77.501292649158,0,60,1.0,1,3.0415274305957664e-05
1.955,0.0,77.50095525841263,0,60,1.0,1,2.2476668532496712e-05
1.96,0.0,77.50070237286243,0,60,1.0,1,1.6526420292580843e-05
1.965,0.0,77.50051383209139,0,60,1.0,1,1.2090166856135992e-05
1.97,0.0,77.50037400841595,0,60,1.0,1,8.800198022259686e-06
1.975,0.0,77.50027086205799,0,60,1.0,1,6.37322489383758e-06
1.98,0.0,77.50019517384675,0,60,1.0,1,4.5923258058417775e-06
1.985,0.0,77.50013992706306,0,60,1.0,1,3.292401483764372e-06
1.99,0.0,77.50009981331155,0,60,1.0,1,2.348548507063028e-06
1.995,0.0,77.5000708405394,0,60,1.0,1,1.6668362210272307e-06
2.0,0.0,77.50005002440169,0,60,1.0,1,1.177044745592117e-06
2.005,0.0,77.50003514702703,0,60,1.0,1,8.269888714012803e-07
2.01,0.0,77.50002456981785,0,60,1.0,1,5.781133612505501e-07
2.015,0.0,77.50001708920767,0,60,1.0,1,4.0209900409054705e-07
2.02,0.0,77.50001182629116,0,60,1.0,1,2.782656742831879e-07
2.025,0.001684486749771458,77.50000814295163,0,60,1.0,1,1.9159886184805894e-07
2.03,0.003097557930867117,77.50000557855593,0,60,1.0,1,1.312601394896346e-07
2.035,0.005475106668887023,77.5000038024926,0,60,1.0,1,8.947041411535312e-08
2.04,0.00930222931468658,77.50000257882347,0,60,1.0,1,6.067819928081436e-08
2.045,0.01519157517868857,77.5000017401292,0,60,1.0,1,4.0944216634135744e-08
2.05,0.023847336626128316,77.50000116828292,0,60,1.0,1,2.748900990755989e-08
2.055,0.0359830743700859,77.50000078040709,0,60,1.0,1,1.836251980795864e-08
2.06,0.05218887796857759,77.50000051868184,0,60,1.0,1,1.220427868568496e-08
2.065,0.0727577001223134,77.50000034299478,0,60,1.0,1,8.070465435808086e-09
2.07,0.0974992498694751,77.50000022567355,0,60,1.0,1,5.3099657794946855e-09
2.075,0.12558706050443358,77.50000014773399,0,60,1.0,1,3.4760937657719136e-09
2.08,0.15549263588878245,77.50000009622477,0,60,1.0,1,2.2641121605000295e-09
2.085,0.1850529723539114,77.5000000623591,0,60,1.0,1,1.4672730899559718e-09
2.09,0.21169159439317053,77.50000004020866,0,60,1.0,1,9.460861479858388e-10
2.095,0.23277292922115492,77.50000002579563,0,60,1.0,1,6.069559704508933e-10
2.1,0.24602692519491282,77.50000001646566,0,60,1.0,1,3.874273555565571e-10
2.105,0.24995056064839283,77.50000001045728,0,60,1.0,1,2.460537603731021e-10
2.11,0.24408826520424054,77.50000000660792,0,60,1.0,1,1.5548045987944693e-10
2.115,0.22911894216865275,77.50000000415449,0,60,1.0,1,9.775262429577518e-11
2.12,0.20672661788705934,77.50000000259882,0,60,1.0,1,6.114880627993604e-11
2.125,0.17928878030241233,77.5000000016175,0,60,1.0,1,3.80586751656237e-11
2.13,0.14946211903866036,77.50000000100165,0,60,1.0,1,2.356828457884737e-11
2.135,0.1197651512573837,77.50000000061716,0,60,1.0,1,1.4521487280623714e-11
2.14,0.09224675744988023,77.50000000037834,0,60,1.0,1,8.902013766654657e-12
2.145,0.06829565320281596,77.50000000023077,0,60,1.0,1,5.4298839934156554e-12
2.15,0.04860224607515734,77.50000000014005,0,60,1.0,1,3.2952464286662528e-12
2.155,0.03324612389699793,77.50000000008457,0,60,1.0,1,1.989854033180403e-12
2.16,0.021859876340472782,77.5000000000508,0,60,1.0,1,1.1953836613375804e-12
2.165,0.01381595518554205,77.50000000003037,0,60,1.0,1,7.14555212385569e-13
2.17,0.008394095110402422,77.50000000001806,0,60,1.0,1,4.249881492475705e-13
2.175,0.0049052535271608,77.50000000001069,0,60,1.0,1,2.514485351960449e-13
2.18,0.0027671663551903634,77.5000000000063,0,60,1.0,1,1.4812726209022324e-13
2.185,0.0015425553464444616,77.50000000000368,0,60,1.0,1,8.660262049970162e-14
2.19,0.0009638206637011801,77.50000000000215,0,60,1.0,1,5.049033087048241e-14
2.195,0.0009804935156568228,77.50000000000125,0,60,1.0,1,2.942482858677121e-14
2.2,0.0018793744894085216,77.50000000000072,0,60,1.0,1,1.7053025658242404e-14
2.205,0.004535525206900863,77.50000000000041,0,60,1.0,1,9.696818511549603e-15
2.21,0.010832767979632273,77.50000000000024,0,60,1.0,1,5.684341886080802e-15
2.215,0.024208003392322392,77.50000000000013,0,60,1.0,1,3.0093574691016007e-15
2.22,0.0500971897335304,77.50000000000007,0,60,1.0,1,1.6718652606120004e-15
2.225,0.09582894921774403,77.50000000000004,0,60,1.0,1,1.0031191563672002e-15
2.23,0.16937896721820658,77.50000000000003,0,60,1.0,1,6.687461042448002e-16
2.235,0.27661303008991756,77.50000000000001,0,60,1.0,1,3.343730521224001e-16
2.24,0.4173782800009149,77.5,0,60,1.0,1,0.0
2.245,0.5818720934538056,77.5,0,60,1.0,1,0.0
2.25,0.7494718801585675,77.5,0,60,1.0,1,0.0
2.255,0.891813020752378,77.5,0,60,1.0,1,0.0
2.26,0.9800361632936612,77.5,0,60,1.0,1,0.0
2.265,0.993574479225126,77.50000249181176,1,60,1.0,1,5.863086484810885e-08
2.27,0.9263438449375362,77.50000384183856,0,60,1.0,1,9.039620147846375e-08
2.275,0.7873015962290536,77.50000605203118,0,60,1.0,1,1.4240073369364837e-07
2.28,0.5959516244629897,77.5000098502643,0,60,1.0,1,2.317709248365966e-07
2.285,0.376910120078773,77.50001674040978,0,60,1.0,1,3.9389199474392037e-07
2.29,0.15739335672107918,77.50002988936268,0,60,1.0,1,7.032791218615089e-07
2.295,-0.033361226269301235,77.50005598658028,0,60,1.0,1,1.3173313006705832e-06
2.3,-0.1680180840843834,77.50010904250446,0,60,1.0,1,2.565705987348445e-06
2.305,-0.23069703190837854,77.50021792763697,0,60,1.0,1,5.127709105114691e-06
2.31,-0.22587267821131068,77.50044088337641,0,60,1.0,1,1.0373726503838256e-05
2.315,-0.17718181630665902,77.50089256449868,0,60,1.0,1,2.1001517616107722e-05
2.32,-0.11494332516451301,77.50179276579377,0,60,1.0,1,4.218272455920455e-05
2.325,-0.061810214049552864,77.50355118942913,0,60,1.0,1,8.355739833251285e-05
2.33,-0.026546104631500547,77.50690959240086,0,60,1.0,1,0.00016257864472610142
2.335,-0.00719600351942686,77.51317112223475,0,60,1.0,1,0.00030990875846475104
2.34,0.0022072757983807078,77.52455545137923,0,60,1.0,1,0.0005777753265700834
2.345,0.006917199873730717,77.54472497706796,0,60,1.0,1,0.0010523524015990033
2.35,0.01004859748264829,77.57952766654348,0,60,1.0,1,0.001871239212787861
2.355,0.013037082251128167,77.63799012210991,0,60,1.0,1,0.0032468264025861597
2.36,0.01645163937690478,77.7335629797193,0,60,1.0,1,0.005495599522806943
2.365,0.020526639934696615,77.88556318136334,0,60,1.0,1,0.009072074855607954
2.37,0.02539629541761738,78.12067063847793,0,60,1.0,1,0.014604015023010173
2.375,0.031171612185577933,78.47422412231587,0,60,1.0,1,0.022922920525079396
2.38,0.03795853426638131,78.99093771170499,0,60,1.0,1,0.03508088733423499
2.385,0.0458588961882057,79.72455313644113,0,60,1.0,1,0.05234242673979131
2.39,0.054966995891435555,80.7358957043249,0,60,1.0,1,0.07613872245470361
2.395,0.06536491004445595,82.08885917455554,0,60,1.0,1,0.10797315704836559
2.4,0.07711726085088699,83.84404871167135,0,60,1.0,1,0.149271734392267
2.405,0.09026570629555215,86.05017854498587,0,60,1.0,1,0.20118067164672632
2.41,0.10482339848670268,88.73382931864452,0,60,1.0,2,0.26432539573281233
2.415,0.12076968927580028,91.88874480991677,0,60,1.0,2,0.33855870140980643
2.42,0.13804539501007884,95.46636445671342,0,60,1.0,2,0.4227379872167864
2.425,0.15654895051787066,99.36959295544153,0,60,1.0,2,0.5145786577750949
2.43,0.17613378141900526,103.45175485582882,0,60,1.0,2,0.6106295260195017
2.435,0.19660720058055794,107.5221797930646,0,60,1.0,2,0.7064042304250493
2.44,0.21773108748496234,111.35892106398657,0,60,1.0,2,0.7966804956232134
2.445,0.23922453870058807,114.72785713078791,0,60,1.0,2,0.8759495795479508
2.45,0.2607685857914563,117.40610393874456,0,60,1.0,2,0.9389671514998721
2.455,0.2820129681603682,119.20657953132158,0,60,1.0,2,0.9813312830899196
2.46,0.30258482867153996,120.0,0,60,1.0,2,1.0
2.465,0.3220990771751686,119.73073626244305,0,60,1.0,2,0.9936643826457188
2.47,0.3401700499968971,118.4238494759471,0,60,1.0,2,0.9629141053164022
2.475,0.3564239911198326,116.18208945321945,0,60,1.0,2,0.910166810663987
2.48,0.3705118017738417,113.1733745291447,0,60,1.0,2,0.8393735183328164
2.485,0.3821214567925213,109.61089082664786,0,60,1.0,2,0.7555503723917144
2.49,0.39098947374066967,105.7291023657552,0,60,1.0,2,0.6642141733118869
2.495,0.3969108472035567,101.75942264604797,0,60,1.0,2,0.5708099446128934
2.5,0.3997469255491936,97.90901232617857,0,60,1.0,2,0.4802120547336134
2.505,0.3994308076379137,94.34526416670559,0,60,1.0,2,0.39635915686366097
2.51,0.3959699661768434,91.18727314888353,0,60,1.0,2,0.3220534858560832
2.515,0.38944595408114946,88.50427463175579,0,60,1.0,2,0.2589241089824892
2.52,0.38001120995358023,86.3199414541806,0,60,1.0,2,0.20752803421601396
2.525,0.3678831374098315,84.62074135275094,0,60,1.0,2,0.16754685535884564
2.53,0.35333577933796634,83.36632600348436,0,60,1.0,2,0.13803120008198494
2.535,0.33668953221163944,82.5000975498113,0,60,1.0,2,0.11764935411320708
2.54,0.3182994390982644,81.95854814001777,0,60,1.0,2,0.1049070150592416
2.545,0.29854265738230645,81.67853656537754,0,60,1.0,2,0.09831850742064803
2.55,0.2778057157821067,81.60221366217804,0,60,1.0,2,0.09652267440418928
2.555,0.2564721553719815,81.67973868879486,0,60,1.0,2,0.09834679267752602
2.56,0.23491109433464996,81.87019922391292,0,60,1.0,2,0.10282821703324517
2.565,0.21346717185309805,82.14126026801704,0,60,1.0,2,0.109206123953342
2.57,0.19245222055656455,82.46805768409277,0,60,1.0,2,0.11689547491982988
2.575,0.17213889801761392,82.83176315010746,0,60,1.0,2,0.12545325059076384
2.58,0.15275638501270183,83.21812687136497,0,60,1.0,2,0.13454416167917582
2.585,0.13448814019607322,83.61618424954153,0,60,1.0,2,0.14391021763627135
2.59,0.11747159495449566,84.01721373745077,0,60,1.0,2,0.15334620558707704
2.595,0.10179958433370105,84.41396310723198,0,60,1.0,2,0.16268148487604656
2.6,0.08752324394101413,84.80011942466255,0,60,1.0,2,0.17176751587441305
2.605,0.07465606047174059,85.1699784655929,0,60,1.0,2,0.18047008154336247
2.61,0.0631787448609295,85.51826494996435,0,60,1.0,2,0.18866505764621994
2.615,0.05304460019959574,85.840059253804,0,60,1.0,2,0.1962366883248
2.62,0.044185078305849994,86.13079426679849,0,60,1.0,2,0.20307751215996445
2.625,0.03651525513023255,86.38629466659549,0,60,1.0,2,0.20908928627283505
2.63,0.0299390014708757,86.60283845793114,0,60,1.0,2,0.21418443430426218
2.635,0.024353677220580638,86.77722659458583,0,60,1.0,2,0.21828768457849004
2.64,0.01965423034339045,86.90685088831356,0,60,1.0,2,0.22133766796031898
2.645,0.015736632374757337,86.98975350722205,0,60,1.0,2,0.22328831781698935
2.65,0.012500627640593535,87.02467353697683,0,60,1.0,2,0.22410996557592552
2.655,0.009851811652115898,87.0110776394444,0,60,1.0,2,0.223790062104574
2.66,0.007703084175428559,86.94917303121116,0,60,1.0,2,0.2223334830873214
2.665,0.005975544002062424,86.83990197261397,0,60,1.0,2,0.2197623993556229
2.67,0.004598905818663047,86.68491779355341,0,60,1.0,2,0.21611571278949201
2.675,0.0035115256454839104,86.4865432253902,0,60,1.0,2,0.21144807589153394
2.68,0.002660121266303676,86.2477124690008,0,60,1.0,2,0.20582852868237184
2.685,0.0019992692560877024,85.9718990017495,0,60,1.0,2,0.19933880004116483
2.69,0.0014907520044639367,85.66303159799958,0,60,1.0,2,0.1920713317176371
2.695,0.0011028178277539807,85.32540139533346,0,60,1.0,2,0.1841270916549049
2.7,0.0008094059938923333,84.96356307129537,0,60,1.0,2,0.1756132487363616
2.705,0.0005893771793717645,84.58223329764274,0,60,1.0,2,0.16664078347394692
2.71,0.0004257792353490551,84.18618961118601,0,60,1.0,2,0.15732210849849432
2.715,0.0003051686392901525,83.78017268883372,0,60,1.0,2,0.14776876914902862
2.72,0.00021699992642659966,83.36879475167348,0,60,1.0,2,0.13808928827467004
2.725,0.00015308884054097838,82.95645646592097,0,60,1.0,2,0.12838721096284625
2.73,0.00010714989329311098,82.5472742782177,0,60,1.0,2,0.11875939478159292
2.735,7.440535854020571e-05,82.1450196423469,0,60,1.0,2,0.10929457981992695
2.74,5.1260276743925106e-05,81.75307108830053,0,60,1.0,2,0.10007226090118894
2.745,3.503659887882241e-05,81.37437957677281,0,60,1.0,2,0.09116187239465436
2.75,2.375894748103639e-05,81.01144709498455,0,60,1.0,2,0.08262228458787169
2.755,1.5984413869232557e-05,80.66631800298667,0,60,1.0,2,0.0745016000702746
2.76,1.0669166579899869e-05,80.34058224944994,0,60,1.0,2,0.06683722939882206
2.765,7.06526633560511e-06,80.03538925452028,0,60,1.0,2,0.059656217753418415
2.77,4.641847214699205e-06,79.75147101231343,0,60,1.0,2,0.0529757885250219
2.775,3.025641074479182e-06,79.4891728003454,0,60,1.0,2,0.046804065890480015
2.78,1.9566278676921314e-06,79.24848979680112,0,60,1.0,2,0.041140936395320564
2.785,1.2553456560008793e-06,79.02910789449058,0,60,1.0,2,0.035979009282131276
2.79,7.990660428214668e-07,78.8304470550233,0,60,1.0,2,0.03130463658878351
2.795,5.046221251618276e-07,78.65170565820313,0,60,1.0,2,0.027098956663602996
2.8,3.1616527078858815e-07,78.49190445841805,0,60,1.0,2,0.02333892843336584
2.805,1.9652884407760343e-07,78.34992894961812,0,60,1.0,2,0.01999832822630865
2.81,1.2120002189836396e-07,78.22456915105091,0,60,1.0,2,0.017048685907080346
2.815,7.415549848886236e-08,78.11455604558064,0,60,1.0,2,0.014460142248956278
2.82,4.501406988770349e-08,78.018594120612,0,60,1.0,2,0.01220221460263514
2.825,0.0,77.93538966935525,0,60,1.0,2,0.010244462808358723
2.83,0.0,77.86367470016516,0,60,1.0,2,0.008557051768592066
2.835,0.0,77.80222646861542,0,60,1.0,2,0.00711121102624508
2.84,0.0,77.74988278736755,0,60,1.0,2,0.0058795949968836175
2.845,0.0,77.70555338106993,0,60,1.0,2,0.004836550142821954
2.85,0.0,77.66822763736607,0,60,1.0,2,0.0039582973497899465
2.855,0.0,77.63697916182198,0,60,1.0,2,0.0032230391016937307
2.86,0.0,77.61096757646521,0,60,1.0,2,0.0026110017991815017
2.865,0.0,77.58943801168321,0,60,1.0,2,0.002104423804310914
2.87,0.0,77.57171873294385,0,60,1.0,2,0.0016874995986788288
2.875,0.0,77.55721732087633,0,60,1.0,2,0.0013462899029725443
2.88,0.0,77.54541578936765,0,60,1.0,2,0.0010686068086506431
2.885,0.0,77.53586498497702,0,60,1.0,2,0.0008438819994594001
2.89,0.0,77.52817856529884,0,60,1.0,2,0.0006630250658551685
2.895,0.0,77.52202680664169,0,60,1.0,2,0.0005182778033338978
2.9,0.0,77.5171304447848,0,60,1.0,2,0.0004030692890540542
2.905,0.0,77.51325470838246,0,60,1.0,2,0.0003118754913520447
2.91,0.0,77.51020366409061,0,60,1.0,2,0.00024008621389672204
2.915,0.0,77.50781495653038,0,60,1.0,2,0.00018388133012663008
2.92,0.0,77.50595499523384,0,60,1.0,2,0.00014011753491378358
2.925,0.0,77.50451461486995,0,60,1.0,2,0.00010622623223405433
2.93,0.0,77.50340521419459,0,60,1.0,2,8.012268693144452e-05
2.935,0.0,77.50255536298914,0,60,1.0,2,6.012618797981037e-05
2.94,0.0,77.50190785429267,0,60,1.0,2,4.489068923924285e-05
2.945,0.0,77.50141717096078,0,60,1.0,2,3.334519907712895e-05
2.95,0.0,77.50104733043376,0,60,1.0,2,2.4643069029734227e-05
2.955,0.0,77.50077006899966,0,60,1.0,2,1.811927058016034e-05
2.96,0.0,77.50056332625815,0,60,1.0,2,1.3254735485776002e-05
2.965,0.0,77.50040999143872,0,60,1.0,2,9.646857381540031e-06
2.97,0.0,77.50029687526775,0,60,1.0,2,6.985300417655333e-06
2.975,0.0,77.50021387384992,0,60,1.0,2,5.032325880366068e-06
2.98,0.0,77.50015329422482,0,60,1.0,2,3.6069229368502634e-06
2.985,0.0,77.50010931464227,0,60,1.0,2,2.5721092299590965e-06
2.99,0.0,77.50007755598538,0,60,1.0,2,1.824846714939935e-06
2.995,0.0,77.50005474402688,0,60,1.0,2,1.288094750193255e-06
3.0,0.0,77.50003844524194,0,60,1.0,2,9.045939280253258e-07
3.005,0.0,77.50002686166287,0,60,1.0,2,6.320391264580394e-07
3.01,0.0,77.50001867272185,0,60,1.0,2,4.393581611887331e-07
3.015,0.0,77.50001291417894,0,60,1.0,2,3.0386303385111047e-07
3.02,0.001684486749771458,77.5000088860839,0,60,1.0,2,2.0908432715901547e-07
3.025,0.003097557930867117,77.50000608328911,0,60,1.0,2,1.431362143060088e-07
3.03,0.005475106668887023,77.50000414334353,0,60,1.0,2,9.7490436032518e-08
3.035,0.00930222931468658,77.50000280768167,0,60,1.0,2,6.606309806128968e-08
3.04,0.01519157517868857,77.50000189290678,0,60,1.0,2,4.453898307420947e-08
3.045,0.023847336626128316,77.50000126968219,0,60,1.0,2,2.9874874986917885e-08
3.05,0.0359830743700859,77.50000084731572,0,60,1.0,2,1.9936840424313284e-08
3.055,0.05218887796857759,77.50000056257437,0,60,1.0,2,1.3237044025599436e-08
3.06,0.0727577001223134,77.50000037161998,0,60,1.0,2,8.743999427786228e-09
3.065,0.0974992498694751,77.50000024423203,0,60,1.0,2,5.7466359200642566e-09
3.07,0.12558706050443358,77.50000015969474,0,60,1.0,2,3.757523191940409e-09
3.075,0.15549263588878245,77.50000010388743,0,60,1.0,2,2.444410122681053e-09
3.08,0.1850529723539114,77.50000006723879,0,60,1.0,2,1.5820891054746051e-09
3.085,0.21169159439317053,77.50000004329733,0,60,1.0,2,1.018760793372434e-09
3.09,0.23277292922115492,77.50000002773875,0,60,1.0,2,6.526764697328498e-10
3.095,0.24602692519491282,77.5000000176806,0,60,1.0,2,4.1601424527470956e-10
3.1,0.24995056064839283,77.50000001121222,0,60,1.0,2,2.6381699439405244e-10
3.105,0.24408826520424054,77.50000000707409,0,60,1.0,2,1.6644923348127014e-10
3.11,0.22911894216865275,77.50000000444052,0,60,1.0,2,1.0448288508889484e-10
3.115,0.20672661788705934,77.5000000027732,0,60,1.0,2,6.525189800253001e-11
3.12,0.17928878030241233,77.50000000172311,0,60,1.0,2,4.054373568899738e-11
3.125,0.14946211903866036,77.5000000010652,0,60,1.0,2,2.5063600867938744e-11
3.13,0.1197651512573837,77.50000000065513,0,60,1.0,2,1.5414932075894767e-11
3.135,0.09224675744988023,77.50000000040089,0,60,1.0,2,9.432663800372906e-12
3.14,0.06829565320281596,77.50000000024406,0,60,1.0,2,5.7425227971500995e-12
3.145,0.04860224607515734,77.50000000014782,0,60,1.0,2,3.4781484881772057e-12
3.15,0.03324612389699793,77.50000000008907,0,60,1.0,2,2.0958502907032036e-12
3.155,0.021859876340472782,77.5000000000534,0,60,1.0,2,1.2565739298759795e-12
3.16,0.01381595518554205,77.50000000003186,0,60,1.0,2,7.49664382858421e-13
3.165,0.008394095110402422,77.5000000000189,0,60,1.0,2,4.447161593227921e-13
3.17,0.0049052535271608,77.50000000001116,0,60,1.0,2,2.6248284591608404e-13
3.175,0.0027671663551903634,77.50000000000655,0,60,1.0,2,1.5414597702842645e-13
3.18,0.0015425553464444616,77.50000000000384,0,60,1.0,2,9.028072407304802e-14
3.185,0.0009638206637011801,77.50000000000223,0,60,1.0,2,5.2496569183216817e-14
3.19,0.0009804935156568228,77.5000000000013,0,60,1.0,2,3.042794774313841e-14
3.195,0.0018793744894085216,77.50000000000074,0,60,1.0,2,1.7387398710364806e-14
3.2,0.004535525206900863,77.50000000000043,0,60,1.0,2,1.0031191563672003e-14
3.205,0.010832767979632273,77.50000000000024,0,60,1.0,2,5.684341886080802e-15
3.21,0.024208003392322392,77.50000000000014,0,60,1.0,2,3.343730521224001e-15
3.215,0.0500971897335304,77.50000000000007,0,60,1.0,2,1.6718652606120004e-15
3.22,0.09582894921774403,77.50000000000004,0,60,1.0,2,1.0031191563672002e-15
3.225,0.16937896721820658,77.50000000000003,0,60,1.0,2,6.687461042448002e-16
3.23,0.27661303008991756,77.50000000000001,0,60,1.0,2,3.343730521224001e-16
3.235,0.4173782800009149,77.5,0,60,1.0,2,0.0
3.24,0.5818720934538056,77.5,0,60,1.0,2,0.0
3.245,0.7494718801585675,77.5,0,60,1.0,2,0.0
3.25,0.891813020752378,77.5,0,60,1.0,2,0.0
3.255,0.9800361632936612,77.5,0,60,1.0,2,0.0
3.26,0.993574479225126,77.50000249206059,1,60,1.0,2,5.8636719720251515e-08
3.265,0.9263438449375362,77.50000388649308,0,60,1.0,2,9.144689590143303e-08
3.27,0.7873015962290536,77.50000620174501,0,60,1.0,2,1.4592341197866892e-07
3.275,0.5959516244629897,77.50001024868433,0,60,1.0,2,2.411455137221577e-07
3.28,0.376910120078773,77.50001773713392,0,60,1.0,2,4.1734432744199103e-07
3.285,0.15739335672107918,77.50003234050088,0,60,1.0,2,7.609529618816047e-07
3.29,-0.033361226269301235,77.50006196542242,0,60,1.0,2,1.4580099392493568e-06
3.295,-0.1680180840843834,77.50012345839556,0,60,1.0,2,2.9049034250259437e-06
3.3,-0.23069703190837854,77.50025207253846,0,60,1.0,2,5.93111855196452e-06
3.305,-0.22587267821131068,77.50051989833095,0,60,1.0,2,1.2232901904700852e-05
3.31,-0.17718181630665902,77.50107053879677,0,60,1.0,2,2.5189148159236486e-05
3.315,-0.11494332516451301,77.50218205581817,0,60,1.0,2,5.134248983923124e-05
3.32,-0.061810214049552864,77.50437705138005,0,60,1.0,2,0.00010298944423639382
3.325,-0.026546104631500547,77.50860779491533,0,60,1.0,2,0.00020253635094905697
3.33,-0.00719600351942686,77.5165549676137,0,60,1.0,2,0.00038952864973412836
3.335,0.0022072757983807078,77.53108897869964,0,60,1.0,2,0.0007315053811680627
3.34,0.006917199873730717,77.55694911283238,0,60,1.0,2,0.0013399791254678748
3.345,0.01004859748264829,77.60169183598806,0,60,1.0,2,0.0023927490820720805
3.35,0.013037082251128167,77.67693707547176,0,60,1.0,2,0.0041632253052177794
3.355,0.01645163937690478,77.7998909378598,0,60,1.0,2,0.0070562573614070595
3.36,0.020526639934696615,77.99503777956711,0,60,1.0,2,0.011647947754520306
3.365,0.02539629541761738,78.29577278054447,0,60,1.0,2,0.01872406542457571
3.37,0.031171612185577933,78.74559890656192,0,60,1.0,2,0.029308209566162906
3.375,0.03795853426638131,79.39836652237483,0,60,1.0,2,0.04466744758529009
3.38,0.0458588961882057,80.3169349302758,0,60,1.0,2,0.0662808218888425
3.385,0.054966995891435555,81.56964085920548,0,60,1.0,2,0.09575625551071713
3.39,0.06536491004445595,83.22412774219025,0,60,1.0,2,0.13468535863977055
3.395,0.07711726085088699,85.33845947360807,0,60,1.0,2,0.18443434055548397
3.4,0.09026570629555215,87.95000681664004,0,60,1.0,2,0.24588251333270686
3.405,0.10482339848670268,91.06328339863445,0,60,1.0,2,0.3191360799678695
3.41,0.12076968927580028,94.63858211835603,0,60,1.0,2,0.40326075572602416
3.415,0.13804539501007884,98.5837320054619,0,60,1.0,2,0.4960878118932211
3.42,0.15654895051787066,102.75136341377669,0,60,1.0,2,0.5941497273829809
3.425,0.17613378141900526,106.94359409913197,0,60,1.0,2,0.6927904493913405
3.43,0.19660720058055794,110.92500582405262,0,60,1.0,2,0.7864707252718264
3.435,0.21773108748496234,114.44330342499879,0,60,1.0,2,0.8692541982352656
3.44,0.23922453870058807,117.25542188596262,0,60,1.0,2,0.9354216914344146
3.445,0.2607685857914563,119.15545481965574,0,60,1.0,2,0.9801283486977822
3.45,0.2820129681603682,120.0,0,60,1.0,2,1.0
3.455,0.30258482867153996,119.72661680769721,0,60,1.0,2,0.9935674542987579
3.46,0.3220990771751686,118.36212003966133,0,60,1.0,2,0.9614616479920314
3.465,0.3401700499968971,116.0192046826335,0,60,1.0,2,0.9063342278266706
3.47,0.3564239911198326,112.88201428084409,0,60,1.0,2,0.8325179830786844
3.475,0.3705118017738417,109.18324133098602,0,60,1.0,2,0.7454880313173181
3.48,0.3821214567925213,105.17673159742563,0,60,1.0,2,0.6512172140570737
3.485,0.39098947374066967,101.1100694710858,0,60,1.0,2,0.5555310463784893
3.49,0.3969108472035567,97.20119773854125,0,60,1.0,2,0.46355759384802947
3.495,0.3997469255491936,93.62195394509827,0,60,1.0,2,0.37934009282584163
3.5,0.3994308076379137,90.48983035382798,0,60,1.0,2,0.3056430671488937
3.505,0.3959699661768434,87.86768093596174,0,60,1.0,2,0.24394543378733516
3.51,0.38944595408114946,85.76984429058865,0,60,1.0,2,0.19458457154326236
3.515,0.38001120995358023,84.17242779702583,0,60,1.0,2,0.15699830110649018
3.52,0.3678831374098315,83.02534578800257,0,60,1.0,2,0.1300081361882957
3.525,0.35333577933796634,82.26402464586049,0,60,1.0,2,0.11209469754965853
3.53,0.33668953221163944,81.8192991437891,0,60,1.0,2,0.10163056808915519
3.535,0.3182994390982644,81.62472762003841,0,60,1.0,2,0.09705241458913914
3.54,0.29854265738230645,81.62118407871675,0,60,1.0,2,0.09696903714627651
3.545,0.2778057157821067,81.75904264873614,0,60,1.0,2,0.10021276820555626
3.55,0.2564721553719815,81.9985219925281,0,60,1.0,2,0.10584757629477876
3.555,0.23491109433464996,82.30882611113378,0,60,1.0,2,0.11314884967373606
3.56,0.21346717185309805,82.66665602002601,0,60,1.0,2,0.12156837694178849
3.565,0.19245222055656455,83.05453424588724,0,60,1.0,2,0.13069492343264094
3.57,0.17213889801761392,83.45923266320771,0,60,1.0,2,0.14021723913429918
3.575,0.15275638501270183,83.87045877227034,0,60,1.0,2,0.1498931475828315
3.58,0.13448814019607322,84.2798534333411,0,60,1.0,2,0.15952596313743772
3.585,0.11747159495449566,84.68028767641711,0,60,1.0,2,0.16894794532746138
3.59,0.10179958433370105,85.06541226325399,0,60,1.0,2,0.1780097003118586
3.595,0.08752324394101413,85.42940233018484,0,60,1.0,2,0.18657417247493746
3.6,0.07465606047174059,85.76684174356433,0,60,1.0,2,0.19451392337798418
3.605,0.0631787448609295,86.07270061918209,0,60,1.0,2,0.20171060280428438
3.61,0.05304460019959574,86.34237003707361,0,60,1.0,2,0.20805576557820252
3.615,0.044185078305849994,86.57172770912837,0,60,1.0,3,0.21345241668537335
3.62,0.03651525513023255,86.75721616923929,0,60,1.0,3,0.21781685104092435
3.625,0.0299390014708757,86.89592083331073,0,60,1.0,3,0.2210804901955465
3.63,0.024353677220580638,86.98563934776703,0,60,1.0,3,0.22319151406510668
3.635,0.01965423034339045,87.02493647066403,0,60,1.0,3,0.22411615225091838
3.64,0.015736632374757337,87.01318073228062,0,60,1.0,3,0.22383954664189687
3.645,0.012500627640593535,86.95056062220486,0,60,1.0,3,0.2223661322871732
3.65,0.009851811652115898,86.83807925732597,0,60,1.0,3,0.2197195119370817
3.655,0.007703084175428559,86.67752751899921,0,60,1.0,3,0.21594182397645206
3.66,0.005975544002062424,86.47143656288762,0,60,1.0,3,0.21109262500912043
3.665,0.004598905818663047,86.22301141626089,0,60,1.0,3,0.20524732744143268
3.67,0.0035115256454839104,85.9360480776319,0,60,1.0,3,0.19849524888545636
3.675,0.002660121266303676,85.61483710619105,0,60,1.0,3,0.19093734367508344
3.68,0.0019992692560877024,85.26405711630112,0,60,1.0,3,0.18268369685414393
3.685,0.0014907520044639367,84.88866186212869,0,60,1.0,3,0.17385086734420438
3.69,0.0011028178277539807,84.49376470286529,0,60,1.0,3,0.16455916947918334
3.695,0.0008094059938923333,84.08452418143106,0,60,1.0,3,0.15492998073955444
3.7,0.0005893771793717645,83.66603423862483,0,60,1.0,3,0.1450831585558784
3.705,0.0004257792353490551,83.24322223736209,0,60,1.0,3,0.135134640879108
3.71,0.0003051686392901525,82.82075751109831,0,60,1.0,3,0.1251942943787837
3.715,0.00021699992642659966,82.40297260454615,0,60,1.0,3,0.11536406128343883
3.72,0.00015308884054097838,81.9937987739174,0,60,1.0,3,0.10573644173923305
3.725,0.00010714989329311098,81.5967166896027,0,60,1.0,3,0.09639333387300472
3.73,7.440535854020571e-05,81.21472266694637,0,60,1.0,3,0.08740523922226758
3.735,5.1260276743925106e-05,80.85031016848625,0,60,1.0,3,0.07883082749379401
3.74,3.503659887882241e-05,80.50546579764779,0,60,1.0,3,0.07071684229759499
3.745,2.375894748103639e-05,80.18167855835483,0,60,1.0,3,0.0630983190201137
3.75,1.5984413869232557e-05,79.87996080067171,0,60,1.0,3,0.055999077662863786
3.755,1.0669166579899869e-05,79.60087901688703,0,60,1.0,3,0.049432447456165526
3.76,7.06526633560511e-06,79.34459249714048,0,60,1.0,3,0.04340217640330546
3.765,4.641847214699205e-06,79.1108977952886,0,60,1.0,3,0.037903477536202206
3.77,3.025641074479182e-06,78.8992769862145,0,60,1.0,3,0.032924164381517705
3.775,1.9566278676921314e-06,78.70894780365752,0,60,1.0,3,0.028445830674294657
3.78,1.2553456560008793e-06,78.53891391879662,0,60,1.0,3,0.024445033383449968
3.785,7.990660428214668e-07,78.38801383874541,0,60,1.0,3,0.02089444326459784
3.79,5.046221251618276e-07,78.25496715486534,0,60,1.0,3,0.017763933055655077
3.795,3.1616527078858815e-07,78.13841713794321,0,60,1.0,3,0.015021579716310766
3.8,1.9652884407760343e-07,78.03696894665431,0,60,1.0,3,0.012634563450689699
3.805,1.2120002189836396e-07,77.94922297505981,0,60,1.0,3,0.010569952354348502
3.81,7.415549848886236e-08,77.8738031041554,0,60,1.0,3,0.008795367156597636
3.815,4.501406988770349e-08,77.8093798341656,0,60,1.0,3,0.007279525509778751
3.82,0.0,77.75468845334072,0,60,1.0,3,0.005992669490369869
3.825,0.0,77.7085425428285,0,60,1.0,3,0.004906883360670503
3.83,0.0,77.6698432252712,0,60,1.0,3,0.003996311182851621
3.835,0.0,77.63758463845281,0,60,1.0,3,0.0032372856106542927
3.84,0.0,77.6108561573609,0,60,1.0,3,0.002608380173197635
3.845,0.0,77.5888419022451,0,60,1.0,3,0.002090397699884547
3.85,0.0,77.5708180611178,0,60,1.0,3,0.0016663073204189432
3.855,0.0,77.55614852741415,0,60,1.0,3,0.0013211418215094534
3.86,0.0,77.54427931196614,0,60,1.0,3,0.001041866163909082
3.865,0.0,77.53473213754465,0,60,1.0,3,0.000817226765756499
3.87,0.0,77.52709756803894,0,60,1.0,3,0.0006375898362103485
3.875,0.0,77.52102796635984,0,60,1.0,3,0.0004947756790550236
3.88,0.0,77.5162305182252,0,60,1.0,3,0.0003818945464752901
3.885,0.0,77.51246050531307,0,60,1.0,3,0.0002931883603075809
3.89,0.0,77.50951496242737,0,60,1.0,3,0.00022388146887939966
3.895,0.0,77.50722681031257,0,60,1.0,3,0.0001700425955899685
3.9,0.0,77.50545951908494,0,60,1.0,3,0.00012845927258675093
3.905,0.0,77.50410232700878,0,60,1.0,3,9.652534138307173e-05
3.91,0.0,77.50306601530963,0,60,1.0,3,7.214153669712473e-05
3.915,0.0,77.50227922141525,0,60,1.0,3,5.362873918235945e-05
3.92,0.0,77.50168525983179,0,60,1.0,3,3.965317251266456e-05
3.925,0.0,77.50123941108798,0,60,1.0,3,2.916261383481523e-05
3.93,0.0,77.50090663407934,0,60,1.0,3,2.1332566572763266e-05
3.935,0.0,77.5006596549978,0,60,1.0,3,1.5521294065980756e-05
3.94,0.0,77.50047738616604,0,60,1.0,3,1.1232615671521189e-05
3.945,0.0,77.50034362990894,0,60,1.0,3,8.085409622120043e-06
3.95,0.0,77.50024602556587,0,60,1.0,3,5.788836844043116e-06
3.955,0.0,77.50017520144215,0,60,1.0,3,4.122386874047044e-06
3.96,0.0,77.50012409756755,0,60,1.0,3,2.919942765883581e-06
3.965,0.0,77.500087429303,0,60,1.0,3,2.057160070441622e-06
3.97,0.0,77.50006126591418,0,60,1.0,3,1.4415509219682409e-06
3.975,0.0,77.50004270207464,0,60,1.0,3,1.004754697345668e-06
3.98,0.0,77.50002960378131,0,60,1.0,3,6.96559560337311e-07
3.985,0.0,77.5000204133158,0,60,1.0,3,4.803133128247924e-07
3.99,0.001684486749771458,77.50001400064605,0,60,1.0,3,3.294269658106393e-07
3.995,0.003097557930867117,77.50000955104196,0,60,1.0,3,2.247303989540395e-07
4.0,0.005475106668887023,77.50000648069503,0,60,1.0,3,1.5248694199619744e-07
4.005,0.00930222931468658,77.50000437381664,0,60,1.0,3,1.0291333263226346e-07
4.01,0.01519157517868857,77.50000293607884,0,60,1.0,3,6.908420807442727e-08
4.015,0.023847336626128316,77.5000019603924,0,60,1.0,3,4.6126879905226385e-08
4.02,0.0359830743700859,77.50000130192649,0,60,1.0,3,3.063356443282614e-08
4.025,0.05218887796857759,77.50000085999925,0,60,1.0,3,2.0235276398285778e-08
4.03,0.0727577001223134,77.50000056503822,0,60,1.0,3,1.3295016956630313e-08
4.035,0.0974992498694751,77.50000036925445,0,60,1.0,3,8.688340023902984e-09
4.04,0.12558706050443358,77.5000002400169,0,60,1.0,3,5.6474565259550755e-09
4.045,0.15549263588878245,77.50000015517654,0,60,1.0,3,3.6512126237486133e-09
4.05,0.1850529723539114,77.50000009978802,0,60,1.0,3,2.347953528335304e-09
4.055,0.21169159439317053,77.50000006382619,0,60,1.0,3,1.5017927607379319e-09
4.06,0.23277292922115492,77.50000004060576,0,60,1.0,3,9.55429534181295e-10
4.065,0.24602692519491282,77.50000002569476,0,60,1.0,3,6.045825905269286e-10
4.07,0.24995056064839283,77.50000001617221,0,60,1.0,3,3.805225520302295e-10
4.075,0.24408826520424054,77.50000001012424,0,60,1.0,3,2.382173935235615e-10
4.08,0.22911894216865275,77.5000000063041,0,60,1.0,3,1.4833189839812215e-10
4.085,0.20672661788705934,77.50000000390439,0,60,1.0,3,9.186799295147306e-11
4.09,0.17928878030241233,77.5000000024052,0,60,1.0,3,5.659297344476834e-11
4.095,0.14946211903866036,77.50000000147372,0,60,1.0,3,3.467582299730138e-11
4.1,0.1197651512573837,77.50000000089815,0,60,1.0,3,2.113304564023993e-11
4.105,0.09224675744988023,77.50000000054445,0,60,1.0,3,1.2810500372913393e-11
4.11,0.06829565320281596,77.50000000032826,0,60,1.0,3,7.72368313097532e-12
4.115,0.04860224607515734,77.50000000019686,0,60,1.0,3,4.632069891051608e-12
4.12,0.03324612389699793,77.50000000011742,0,60,1.0,3,2.762924529687392e-12
4.125,0.021859876340472782,77.50000000006968,0,60,1.0,3,1.6394310745561276e-12
4.13,0.01381595518554205,77.50000000004111,0,60,1.0,3,9.673412397901036e-13
4.135,0.008394095110402422,77.50000000002413,0,60,1.0,3,5.677654425038354e-13
4.14,0.0049052535271608,77.50000000001408,0,60,1.0,3,3.3136369465329847e-13
4.145,0.0027671663551903634,77.50000000000819,0,60,1.0,3,1.9259887802250245e-13
4.15,0.0015425553464444616,77.50000000000472,0,60,1.0,3,1.1101185330463683e-13
4.155,0.0009638206637011801,77.50000000000271,0,60,1.0,3,6.386525295537842e-14
4.16,0.0009804935156568228,77.50000000000155,0,60,1.0,3,3.644666268134161e-14
4.165,0.0018793744894085216,77.50000000000088,0,60,1.0,3,2.0731129231588804e-14
4.17,0.004535525206900863,77.5000000000005,0,60,1.0,3,1.1703056824284003e-14
4.175,0.010832767979632273,77.50000000000028,0,60,1.0,3,6.687461042448002e-15
4.18,0.024208003392322392,77.50000000000016,0,60,1.0,3,3.678103573346401e-15
4.185,0.0500971897335304,77.50000000000009,0,60,1.0,3,2.0062383127344005e-15
4.19,0.09582894921774403,77.50000000000004,0,60,1.0,3,1.0031191563672002e-15
4.195,0.16937896721820658,77.50000000000003,0,60,1.0,3,6.687461042448002e-16
4.2,0.27661303008991756,77.50000000000001,0,60,1.0,3,3.343730521224001e-16
4.205,0.4173782800009149,77.50000000000001,0,60,1.0,3,3.343730521224001e-16
4.21,0.5818720934538056,77.5,0,60,1.0,3,0.0
4.215,0.7494718801585675,77.5,0,60,1.0,3,0.0
4.22,0.891813020752378,77.5,0,60,1.0,3,0.0
4.225,0.9800361632936612,77.5,0,60,1.0,3,0.0
4.23,0.993574479225126,77.50000249379623,1,60,1.0,3,5.8677558372972485e-08
4.235,0.9263438449375362,77.50000387113866,0,60,1.0,3,9.108561551543329e-08
4.24,0.7873015962290536,77.50000614495686,0,60,1.0,3,1.44587220146979e-07
4.245,0.5959516244629897,77.50001009206693,0,60,1.0,3,2.3746039834590835e-07
4.25,0.376910120078773,77.5000173369902,0,60,1.0,3,4.079291811114458e-07
4.255,0.15739335672107918,77.50003134163862,0,60,1.0,3,7.37450320417231e-07
4.26,-0.033361226269301235,77.50005950089377,0,60,1.0,3,1.4000210298678105e-06
4.265,-0.1680180840843834,77.50011746182723,0,60,1.0,3,2.7638076995331443e-06
4.27,-0.23069703190837854,77.50023776471434,0,60,1.0,3,5.594463866868062e-06
4.275,-0.22587267821131068,77.50048658883156,0,60,1.0,3,1.1449148977964583e-05
4.28,-0.17718181630665902,77.50099513789219,0,60,1.0,3,2.341500922799402e-05
4.285,-0.11494332516451301,77.50201644570332,0,60,1.0,3,4.744578125456321e-05
4.29,-0.061810214049552864,77.50402451354624,0,60,1.0,3,9.469443638214911e-05
4.295,-0.026546104631500547,77.50788085207563,0,60,1.0,3,0.00018543181354422868
4.3,-0.00719600351942686,77.51510323642296,0,60,1.0,3,0.0003553702687755129
4.305,0.0022072757983807078,77.52828124048683,0,60,1.0,3,0.0006654409526313831
4.31,0.006917199873730717,77.55168968563063,0,60,1.0,3,0.001216227897191402
4.315,0.01004859748264829,77.59214923171803,0,60,1.0,3,0.002168217216894712
4.32,0.013037082251128167,77.66016563836381,0,60,1.0,3,0.0037686032556189944
4.325,0.01645163937690478,77.77133735087011,0,60,1.0,3,0.006384408255767352
4.33,0.020526639934696615,77.94794785355886,0,60,1.0,3,0.01053994949550255
4.335,0.02539629541761738,78.22055245920677,0,60,1.0,3,0.01695417551074757
4.34,0.031171612185577933,78.62923630281921,0,60,1.0,3,0.02657026594868726
4.345,0.03795853426638131,79.22408280415199,0,60,1.0,3,0.040566654215340954
4.35,0.0458588961882057,80.06428738171843,0,60,1.0,3,0.06033617368749246
4.355,0.054966995891435555,81.21533054261677,0,60,1.0,3,0.0874195421792181
4.36,0.06536491004445595,82.74374175486754,0,60,1.0,3,0.12338215893805983
4.365,0.07711726085088699,84.70928122426405,0,60,1.0,3,0.16963014645327168
4.37,0.09026570629555215,87.1548465652038,0,60,1.0,3,0.2271728603577364
4.375,0.10482339848670268,90.09502724164179,0,60,1.0,3,0.29635358215627733
4.38,0.12076968927580028,93.50487114298438,0,60,1.0,3,0.3765852033643385
4.385,0.13804539501007884,97.31093238205123,0,60,1.0,3,0.46613958546002904
4.39,0.15654895051787066,101.38685595826713,0,60,1.0,3,0.5620436696062855
4.395,0.17613378141900526,105.55547445391579,0,60,1.0,3,0.6601288106803715
4.4,0.19660720058055794,109.59858538401849,0,60,1.0,3,0.755260832565141
4.405,0.21773108748496234,113.27431955233847,0,60,1.0,3,0.8417486953491404
4.41,0.23922453870058807,116.34051861380365,0,60,1.0,3,0.9138945556189094
4.415,0.2607685857914563,118.58114006736284,0,60,1.0,3,0.9666150604085374
4.42,0.2820129681603682,119.8317565853096,0,60,1.0,3,0.9960413314190495
4.425,0.30258482867153996,120.0,0,60,1.0,3,1.0
4.43,0.3220990771751686,119.07744164457799,0,60,1.0,3,0.9782927445783056
4.435,0.3401700499968971,117.14080910839245,0,60,1.0,3,0.9327249201974693
4.44,0.3564239911198326,114.34232070302158,0,60,1.0,3,0.8668781341887432
4.445,0.3705118017738417,110.89084986176812,0,60,1.0,3,0.7856670555710146
4.45,0.3821214567925213,107.02717543587835,0,60,1.0,3,0.6947570690794905
4.455,0.39098947374066967,102.99739961797562,0,60,1.0,3,0.5999388145406027
4.46,0.3969108472035567,99.02858404930407,0,60,1.0,3,0.5065549188071546
4.465,0.3997469255491936,95.309845089302,0,60,1.0,3,0.4190551785718118
4.47,0.3994308076379137,91.98081845212747,0,60,1.0,3,0.340725140050058
4.475,0.3959699661768434,89.12790132529386,0,60,1.0,3,0.27359767824220854
4.48,0.38944595408114946,86.78734731342963,0,60,1.0,3,0.21852581913952082
4.485,0.38001120995358023,84.9533724015562,0,60,1.0,3,0.17537346827191044
4.49,0.3678831374098315,83.58903512890868,0,60,1.0,3,0.14327141479785122
4.495,0.35333577933796634,82.63774874869135,0,60,1.0,3,0.1208882058515612
4.5,0.33668953221163944,82.0337334377467,0,60,1.0,3,0.10667608088815775
4.505,0.3182994390982644,81.71034347243264,0,60,1.0,3,0.09906690523370919
4.51,0.29854265738230645,81.60583753471548,0,60,1.0,3,0.09660794199330533
4.515,0.2778057157821067,81.66667643687869,0,60,1.0,3,0.0980394455736162
4.52,0.2564721553719815,81.84876988678565,0,60,1.0,3,0.10232399733613286
4.525,0.23491109433464996,82.11724772973115,0,60,1.0,3,0.10864112305249758
4.53,0.21346717185309805,82.44533609838746,0,60,1.0,3,0.11636084937382253
4.535,0.19245222055656455,82.81282786982345,0,60,1.0,3,0.1250077145840812
4.54,0.17213889801761392,83.2045024139376,0,60,1.0,3,0.13422358621029656
4.545,0.15275638501270183,83.60871282730876,0,60,1.0,3,0.14373441946608856
4.55,0.13448814019607322,84.01624472320185,0,60,1.0,3,0.15332340525180826
4.555,0.11747159495449566,84.41946941505593,0,60,1.0,3,0.1628110450601395
4.56,0.10179958433370105,84.81176549258696,0,60,1.0,3,0.17204154100204605
4.565,0.08752324394101413,85.18715992974894,0,60,1.0,3,0.18087435128821044
4.57,0.07465606047174059,85.54013465057005,0,60,1.0,3,0.18917963883694242
4.575,0.0631787448609295,85.86554926666517,0,60,1.0,3,0.1968364533332981
4.58,0.05304460019959574,86.1586397512219,0,60,1.0,3,0.20373270002875055
4.585,0.044185078305849994,86.41506250951961,0,60,1.0,3,0.20976617669457917
4.59,0.03651525513023255,86.6309617919093,0,60,1.0,3,0.2148461598096306
4.595,0.0299390014708757,86.80304503126104,0,60,1.0,3,0.21889517720614202
4.6,0.024353677220580638,86.92865552465399,0,60,1.0,3,0.22185071822715272
4.605,0.01965423034339045,87.00583527328615,0,60,1.0,3,0.22366671231261534
4.61,0.015736632374757337,87.03337316307264,0,60,1.0,3,0.22431466266053268
4.615,0.012500627640593535,87.01083537210316,0,60,1.0,3,0.22378436169654492
4.62,0.009851811652115898,86.938576193165,0,60,1.0,3,0.22208414572152954
4.625,0.007703084175428559,86.81772852740197,0,60,1.0,3,0.2192406712329875
4.63,0.005975544002062424,86.65017423074696,0,60,1.0,3,0.21529821719404602
4.635,0.004598905818663047,86.43849531771997,0,60,1.0,3,0.2103175368875287
4.64,0.0035115256454839104,86.18590775527554,0,60,1.0,3,0.20437430012413027
4.645,0.002660121266303676,85.8961802035904,0,60,1.0,3,0.19755718126095068
4.65,0.0019992692560877024,85.57354056557351,0,60,1.0,3,0.1899656603664355
4.655,0.0014907520044639367,85.22257357723743,0,60,1.0,3,0.1817076135820571
4.66,0.0011028178277539807,84.84811289585821,0,60,1.0,3,0.17289677402019313
4.665,0.0008094059938923333,84.4551312173353,0,60,1.0,3,0.16365014629024252
4.67,0.0005893771793717645,84.04863188079896,0,60,1.0,3,0.15408545601879917
4.675,0.0004257792353490551,83.63354520691325,0,60,1.0,3,0.1443187107509001
4.68,0.0003051686392901525,83.21463248261027,0,60,1.0,3,0.13446194076730048
4.685,0.00021699992642659966,82.79640007066425,0,60,1.0,3,0.12462117813327642
4.69,0.00015308884054097838,82.38302561301214,0,60,1.0,3,0.11489472030616793
4.695,0.00010714989329311098,81.97829773979932,0,60,1.0,3,0.1053717115246898
4.7,7.440535854020571e-05,81.58557012016932,0,60,1.0,3,0.09613106165104288
4.705,5.1260276743925106e-05,81.20773012323724,0,60,1.0,3,0.08724070878205271
4.71,3.503659887882241e-05,80.84718182348887,0,60,1.0,3,0.07875721937620864
4.715,2.375894748103639e-05,80.50584260541186,0,60,1.0,3,0.07072570836263192
4.72,1.5984413869232557e-05,80.18515221437653,0,60,1.0,3,0.06318005210297717
4.725,1.0669166579899869e-05,79.88609277648273,0,60,1.0,3,0.05614335944665239
4.73,7.06526633560511e-06,79.60921807587849,0,60,1.0,3,0.0496286606089056
4.735,4.641847214699205e-06,79.35469023543456,0,60,1.0,3,0.04363977024551907
4.74,3.025641074479182e-06,79.12232189244838,0,60,1.0,3,0.03817227982231489
4.745,1.9566278676921314e-06,78.91162198804986,0,60,1.0,3,0.03321463501293786
4.75,1.2553456560008793e-06,78.72184338679695,0,60,1.0,3,0.02874925615992819
4.755,7.990660428214668e-07,78.55203069891354,0,60,1.0,3,0.024753663503848014
4.76,5.046221251618276e-07,78.4010668777479,0,60,1.0,3,0.021201573594068095
4.765,3.1616527078858815e-07,78.2677173949188,0,60,1.0,3,0.018063938703971872
4.77,1.9652884407760343e-07,78.15067104128426,0,60,1.0,3,0.015309906853747179
4.775,1.2120002189836396e-07,78.04857665043636,0,60,1.0,3,0.012907685892620226
4.78,7.415549848886236e-08,77.96007528166045,0,60,1.0,3,0.010825300744951792
4.785,4.501406988770349e-08,77.88382762196936,0,60,1.0,3,0.009031238163984934
4.79,0.0,77.81853656491259,0,60,1.0,3,0.007494977997943325
4.795,0.0,77.76296509259281,0,60,1.0,3,0.006187413943360177
4.8,0.0,77.71594972407637,0,60,1.0,3,0.005081169978267459
4.805,0.0,77.6764098974902,0,60,1.0,3,0.004150821117416533
4.81,0.0,77.64335372555104,0,60,1.0,3,0.003373028836494996
4.815,0.0,77.61588060740796,0,60,1.0,3,0.0027266025272461
4.82,0.0,77.59318119681424,0,60,1.0,4,0.002192498748570415
4.825,0.0,77.5745352217389,0,60,1.0,4,0.001753769923268197
4.83,0.0,77.55930762785665,0,60,1.0,4,0.0013954735966271582
4.835,0.0,77.54694348223622,0,60,1.0,4,0.001104552523205083
4.84,0.0,77.53696202809876,0,60,1.0,4,0.0008696947787942623
4.845,0.0,77.52895023050213,0,60,1.0,4,0.0006811818941678345
4.85,0.0,77.52255609948452,0,60,1.0,4,0.0005307317525768988
4.855,0.0,77.5174820242859,0,60,1.0,4,0.0004113417479034604
4.86,0.0,77.51347830188524,0,60,1.0,4,0.0003171365149468971
4.865,0.0,77.51033699680363,0,60,1.0,4,0.00024322345420306889
4.87,0.0,77.50788622796446,0,60,1.0,4,0.00018555830504617596
4.875,0.0,77.50598494293993,0,60,1.0,4,0.00014082218682193236
4.88,0.0,77.50451821032726,0,60,1.0,4,0.00010631083122970107
4.885,0.0,77.50339303715964,0,60,1.0,4,7.983616846211268e-05
4.89,0.0,77.50253469979884,0,60,1.0,4,5.963999526690767e-05
4.895,0.0,77.50188356315793,0,60,1.0,4,4.431913312781516e-05
4.9,0.0,77.5013923537419,0,60,1.0,4,3.276126451543646e-05
4.905,0.0,77.501023846212,0,60,1.0,4,2.4090499105715722e-05
4.91,0.0,77.50074892031576,0,60,1.0,4,1.7621654488413484e-05
4.915,0.0,77.5005449444552,0,60,1.0,4,1.2822222475292353e-05
4.92,0.0,77.50039444332097,0,60,1.0,4,9.281019316965873e-06
4.925,0.0,77.50028400940215,0,60,1.0,4,6.682574168253803e-06
4.93,0.0,77.5002034213682,0,60,1.0,4,4.786385134072107e-06
4.935,0.0,77.50014493596511,0,60,1.0,4,3.410258002598793e-06
4.94,0.0,77.50010272390129,0,60,1.0,4,2.417032971593739e-06
4.945,0.0,77.50007242401301,0,60,1.0,4,1.704094423824726e-06
4.95,0.0,77.50005079364838,0,60,1.0,4,1.1951446678642029e-06
4.955,0.0,77.50003543659405,0,60,1.0,4,8.338022128635417e-07
4.96,0.0,77.50002459293042,0,60,1.0,4,5.786571862512681e-07
4.965,0.0,77.50001697791406,0,60,1.0,4,3.994803307705297e-07
4.97,0.001684486749771458,77.5000116593442,0,60,1.0,4,2.7433751049155786e-07
4.975,0.003097557930867117,77.50000796488771,0,60,1.0,4,1.874091226989763e-07
4.98,0.005475106668887023,77.5000054125377,0,60,1.0,4,1.2735382831445296e-07
4.985,0.00930222931468658,77.50000365879397,0,60,1.0,4,8.608926992458103e-08
4.99,0.01519157517868857,77.50000246031502,0,60,1.0,4,5.7889765096607495e-08
4.995,0.023847336626128316,77.50000164573241,0,60,1.0,4,3.8723115548076324e-08
5.0,0.0359830743700859,77.500001095074,0,60,1.0,4,2.5766447004785092e-08
5.005,0.05218887796857759,77.50000072484218,0,60,1.0,4,1.7055110139849337e-08
5.01,0.0727577001223134,77.50000047726456,0,60,1.0,4,1.1229754443989162e-08
5.015,0.0974992498694751,77.50000031260122,0,60,1.0,4,7.355322729969938e-09
5.02,0.12558706050443358,77.50000020367507,0,60,1.0,4,4.79235462294395e-09
5.025,0.15549263588878245,77.50000013200818,0,60,1.0,4,3.106074874428005e-09
5.03,0.1850529723539114,77.50000008510979,0,60,1.0,4,2.0025832809016505e-09
5.035,0.21169159439317053,77.50000005458509,0,60,1.0,4,1.284354980538517e-09
5.04,0.23277292922115492,77.50000003482444,0,60,1.0,4,8.193985516246518e-10
5.045,0.24602692519491282,77.5000000221009,0,60,1.0,4,5.200213175104342e-10
5.05,0.24995056064839283,77.50000001395249,0,60,1.0,4,3.2829381566176274e-10
5.055,0.24408826520424054,77.50000000876211,0,60,1.0,4,2.0616740210457733e-10
5.06,0.22911894216865275,77.50000000547372,0,60,1.0,4,1.2879347784345396e-10
5.065,0.20672661788705934,77.50000000340151,0,60,1.0,4,8.003553375601768e-11
5.07,0.17928878030241233,77.5000000021027,0,60,1.0,4,4.9475174284238806e-11
5.075,0.14946211903866036,77.50000000129299,0,60,1.0,4,3.0423266520408696e-11
5.08,0.1197651512573837,77.50000000079092,0,60,1.0,4,1.86098665889243e-11
5.085,0.09224675744988023,77.50000000048126,0,60,1.0,4,1.1323877783177202e-11
5.09,0.06829565320281596,77.50000000029131,0,60,1.0,4,6.854313195457079e-12
5.095,0.04860224607515734,77.5000000001754,0,60,1.0,4,4.1271665823467845e-12
5.1,0.03324612389699793,77.50000000010506,0,60,1.0,4,2.4720199743409036e-12
5.105,0.021859876340472782,77.5000000000626,0,60,1.0,4,1.4729132945991723e-12
5.11,0.01381595518554205,77.5000000000371,0,60,1.0,4,8.730480390915867e-13
5.115,0.008394095110402422,77.50000000002187,0,60,1.0,4,5.146001272163737e-13
5.12,0.0049052535271608,77.50000000001283,0,60,1.0,4,3.0193886606652727e-13
5.125,0.0027671663551903634,77.50000000000749,0,60,1.0,4,1.7621459846850485e-13
5.13,0.0015425553464444616,77.50000000000435,0,60,1.0,4,1.0231815394945443e-13
5.135,0.0009638206637011801,77.5000000000025,0,60,1.0,4,5.884965717354242e-14
5.14,0.0009804935156568228,77.50000000000144,0,60,1.0,4,3.377167826436241e-14
5.145,0.0018793744894085216,77.50000000000082,0,60,1.0,4,1.9393637023099206e-14
5.15,0.004535525206900863,77.50000000000047,0,60,1.0,4,1.1034310720039203e-14
5.155,0.010832767979632273,77.50000000000027,0,60,1.0,4,6.353087990325602e-15
5.16,0.024208003392322392,77.50000000000014,0,60,1.0,4,3.343730521224001e-15
5.165,0.0500971897335304,77.50000000000009,0,60,1.0,4,2.0062383127344005e-15
5.17,0.09582894921774403,77.50000000000004,0,60,1.0,4,1.0031191563672002e-15
5.175,0.16937896721820658,77.50000000000003,0,60,1.0,4,6.687461042448002e-16
5.18,0.27661303008991756,77.50000000000001,0,60,1.0,4,3.343730521224001e-16
5.185,0.4173782800009149,77.5,0,60,1.0,4,0.0
5.19,0.5818720934538056,77.5,0,60,1.0,4,0.0
5.195,0.7494718801585675,77.5,0,60,1.0,4,0.0
5.2,0.891813020752378,77.5,0,60,1.0,4,0.0
5.205,0.9800361632936612,77.5,0,60,1.0,4,0.0
5.21,0.993574479225126,77.50000249065474,1,60,1.0,4,5.860364086295115e-08
5.215,0.9263438449375362,77.50000381481783,0,60,1.0,4,8.976041954156244e-08
5.22,0.7873015962290536,77.50000596523532,0,60,1.0,4,1.4035847805323155e-07
5.225,0.5959516244629897,77.50000962503476,0,60,1.0,4,2.2647140620874244e-07
5.23,0.376910120078773,77.50001618917643,0,60,1.0,4,3.809217984700594e-07
5.235,0.15739335672107918,77.5000285614158,0,60,1.0,4,6.720333130140395e-07
5.24,-0.033361226269301235,77.50005280883279,0,60,1.0,4,1.2425607715559796e-06
5.245,-0.1680180840843834,77.50010151190543,0,60,1.0,4,2.388515421818524e-06
5.25,-0.23069703190837854,77.50020036214238,0,60,1.0,4,4.714403350108649e-06
5.255,-0.22587267821131068,77.50040077561245,0,60,1.0,4,9.430014410541202e-06
5.26,-0.17718181630665902,77.50080326727193,0,60,1.0,4,1.8900406398442475e-05
5.265,-0.11494332516451301,77.50159937912407,0,60,1.0,4,3.763244997819182e-05
5.27,-0.061810214049552864,77.50314438198903,0,60,1.0,4,7.398545856544308e-05
5.275,-0.026546104631500547,77.5060789517361,0,60,1.0,4,0.00014303415849647481
5.28,-0.00719600351942686,77.5115253796782,0,60,1.0,4,0.00027118540419304043
5.285,0.0022072757983807078,77.5213917627598,0,60,1.0,4,0.0005033355943483537
5.29,0.006917199873730717,77.53882411894206,0,60,1.0,4,0.0009135086809896406
5.295,0.01004859748264829,77.56884815932884,0,60,1.0,4,0.0016199566900902884
5.3,0.013037082251128167,77.6192346558676,0,60,1.0,4,0.002805521314531782
5.305,0.01645163937690478,77.70159894500465,0,60,1.0,4,0.004743504588344649
5.31,0.020526639934696615,77.83270008287926,0,60,1.0,4,0.007828237244217797
5.315,0.02539629541761738,78.03583465142736,0,60,1.0,4,0.012607874151232115
5.32,0.031171612185577933,78.34212553437393,0,60,1.0,4,0.019814718455857288
5.325,0.03795853426638131,78.79139701937089,0,60,1.0,4,0.030385812220491543
5.33,0.0458588961882057,79.43222533468237,0,60,1.0,4,0.045464125521938153
5.335,0.054966995891435555,80.32069048739088,0,60,1.0,4,0.06636918793860887
5.34,0.06536491004445595,81.5173707975343,0,60,1.0,4,0.09452637170668936
5.345,0.07711726085088699,83.08225427174436,0,60,1.0,4,0.13134715933516145
5.35,0.09026570629555215,85.06751487992965,0,60,1.0,4,0.17805917364540344
5.355,0.10482339848670268,87.50851138218808,0,60,1.0,4,0.23549438546324883
5.36,0.12076968927580028,90.41386466435996,0,60,1.0,4,0.3038556391614109
5.365,0.13804539501007884,93.75596504105044,0,60,1.0,4,0.38249329508353985
5.37,0.15654895051787066,97.4636280918179,0,60,1.0,4,0.4697324256898328
5.375,0.17613378141900526,101.41872257270964,0,60,1.0,4,0.5627934722990504
5.38,0.19660720058055794,105.45833242352343,0,60,1.0,4,0.6578431158476101
5.385,0.21773108748496234,109.38335163215552,0,60,1.0,4,0.7501965089918947
5.39,0.23922453870058807,112.9734084393601,0,60,1.0,4,0.8346684338672965
5.395,0.2607685857914563,116.00683982528938,0,60,1.0,4,0.9060432900068088
5.4,0.2820129681603682,118.28333120453613,0,60,1.0,4,0.9596077930479089
5.405,0.30258482867153996,119.646064803065,0,60,1.0,4,0.9916721130132942
5.41,0.3220990771751686,120.0,0,60,1.0,4,1.0
5.415,0.3401700499968971,119.32334270778719,0,60,1.0,4,0.9840786519479339
5.42,0.3564239911198326,117.6702984466819,0,60,1.0,4,0.9451834928631034
5.425,0.3705118017738417,115.1646448291192,0,60,1.0,4,0.8862269371557459
5.43,0.3821214567925213,111.9851997850634,0,60,1.0,4,0.8114164655309035
5.435,0.39098947374066967,108.34557221481842,0,60,1.0,4,0.7257781697604334
5.44,0.3969108472035567,104.47139174943496,0,60,1.0,4,0.634620982339646
5.445,0.3997469255491936,100.57838099842344,0,60,1.0,4,0.5430207293746692
5.45,0.3994308076379137,96.85417087272945,0,60,1.0,4,0.45539225582892834
5.455,0.3959699661768434,93.44582268957237,0,60,1.0,4,0.37519582798993806
5.46,0.38944595408114946,90.45385471397468,0,60,1.0,4,0.30479658150528655
5.465,0.38001120995358023,87.93243962502166,0,60,1.0,4,0.24546916764756843
5.47,0.3678831374098315,85.89455992933536,0,60,1.0,4,0.19751905716083196
5.475,0.35333577933796634,84.32040601189054,0,60,1.0,4,0.160480141456248
5.48,0.33668953221163944,83.16719725117376,0,60,1.0,4,0.13334581767467674
5.485,0.3182994390982644,82.37883285219493,0,60,1.0,4,0.114796067110469
5.49,0.29854265738230645,81.89421459224894,0,60,1.0,4,0.10339328452350455
5.495,0.2778057157821067,81.65359406235096,0,60,1.0,4,0.09773162499649321
5.5,0.2564721553719815,81.60276811068044,0,60,1.0,4,0.09653572025130455
5.505,0.23491109433464996,81.6953041114732,0,60,1.0,4,0.0987130379170166
5.51,0.21346717185309805,81.89319219750705,0,60,1.0,4,0.10336922817663642
5.515,0.19245222055656455,82.16640283127366,0,60,1.0,4,0.10979771367702724
5.52,0.17213889801761392,82.49180664386697,0,60,1.0,4,0.11745427397334036
5.525,0.15275638501270183,82.85182970057085,0,60,1.0,4,0.12592540471931402
5.53,0.13448814019607322,83.23310877819486,0,60,1.0,4,0.13489667713399672
5.535,0.11747159495449566,83.62530580186197,0,60,1.0,4,0.14412484239675222
5.54,0.10179958433370105,84.02015461343919,0,60,1.0,4,0.15341540266915737
5.545,0.08752324394101413,84.41075278688982,0,60,1.0,4,0.1626059479268192
5.55,0.07465606047174059,84.79107511020709,0,60,1.0,4,0.17155470847546092
5.555,0.0631787448609295,85.15566858139451,0,60,1.0,4,0.18013337838575313
5.56,0.05304460019959574,85.49948511358731,0,60,1.0,4,0.18822317914323086
5.565,0.044185078305849994,85.81781198508382,0,60,1.0,4,0.19571322317844286
5.57,0.03651525513023255,86.1062671685372,0,60,1.0,4,0.2025004039655812
5.575,0.0299390014708757,86.36083432317702,0,60,1.0,4,0.20849021936887097
5.58,0.024353677220580638,86.57791901100559,0,60,1.0,4,0.21359809437660213
5.585,0.01965423034339045,86.75441307651025,0,60,1.0,4,0.21775089591788815
5.59,0.015736632374757337,86.88775811124916,0,60,1.0,4,0.22088842614703896
5.595,0.012500627640593535,86.97600175641713,0,60,1.0,4,0.2229647472098149
5.6,0.009851811652115898,87.017842589161,0,60,1.0,4,0.2239492373920237
5.605,0.007703084175428559,87.012660771883,0,60,1.0,4,0.22382731227960015
5.61,0.005975544002062424,86.96053273007563,0,60,1.0,4,0.22260077011942653
5.615,0.004598905818663047,86.86222900437889,0,60,1.0,4,0.2202877412795033
5.62,0.0035115256454839104,86.719195178689,0,60,1.0,4,0.21692223949856484
5.625,0.002660121266303676,86.53351645798008,0,60,1.0,4,0.21255332842306082
5.63,0.0019992692560877024,86.30786706938648,0,60,1.0,4,0.20724393104438765
5.635,0.0014907520044639367,86.04544618487417,0,60,1.0,4,0.2010693219970392
5.64,0.0011028178277539807,85.74990250322291,0,60,1.0,4,0.19411535301700972
5.645,0.0008094059938923333,85.42524997119911,0,60,1.0,4,0.18647646991056724
5.65,0.0005893771793717645,85.0757773587906,0,60,1.0,4,0.17825358491272006
5.655,0.0004257792353490551,84.70595452519278,0,60,1.0,4,0.1695518711810066
5.66,0.0003051686392901525,84.32033821979824,0,60,1.0,4,0.160478546348194
5.665,0.00021699992642659966,83.92348015988665,0,60,1.0,4,0.1511407096443918
5.67,0.00015308884054097838,83.51983992315786,0,60,1.0,4,0.1416432923095967
5.675,0.00010714989329311098,83.11370490220835,0,60,1.0,4,0.13208717416960833
5.68,7.440535854020571e-05,82.70911920653026,0,60,1.0,4,0.12256751074188849
5.685,5.1260276743925106e-05,82.30982298507394,0,60,1.0,4,0.11317230553115143
5.69,3.503659887882241e-05,81.91920319962112,0,60,1.0,4,0.10398125175579112
5.695,2.375894748103639e-05,81.5402564270607,0,60,1.0,4,0.09506485710731052
5.7,1.5984413869232557e-05,81.1755638270808,0,60,1.0,4,0.0864838547548422
5.705,1.0669166579899869e-05,80.82727799879292,0,60,1.0,4,0.07828889408924523
5.71,7.06526633560511e-06,80.49712108066727,0,60,1.0,4,0.07052049601570047
5.715,4.641847214699205e-06,80.18639313486506,0,60,1.0,4,0.06320925023211899
5.72,3.025641074479182e-06,79.89598960793784,0,60,1.0,4,0.05637622606912554
5.725,1.9566278676921314e-06,79.6264264795071,0,60,1.0,4,0.050033564223696536
5.73,1.2553456560008793e-06,79.37787159987418,0,60,1.0,4,0.04418521411468666
5.735,7.990660428214668e-07,79.15018067413585,0,60,1.0,4,0.03882778056790244
5.74,5.046221251618276e-07,78.94293636900822,0,60,1.0,4,0.03395144397666406
5.745,3.1616527078858815e-07,78.75548909159917,0,60,1.0,4,0.029540919802333494
5.75,1.9652884407760343e-07,78.58699810755667,0,60,1.0,4,0.025576426060156872
5.755,1.2120002189836396e-07,78.43647181909245,0,60,1.0,4,0.022034631037469325
5.76,7.415549848886236e-08,78.30280620070539,0,60,1.0,4,0.018889557663656246
5.765,4.501406988770349e-08,78.18482058158935,0,60,1.0,4,0.01611342544916116
5.77,0.0,78.08129015900583,0,60,1.0,4,0.01367741550601957
5.775,0.0,77.99097481773615,0,60,1.0,4,0.011552348652615178
5.78,0.0,77.91264400989799,0,60,1.0,4,0.00970927082112914
5.785,0.0,77.84509761126496,0,60,1.0,4,0.008119943794469679
5.79,0.0,77.7871828107303,0,60,1.0,4,0.00675724260541883
5.795,0.0,77.73780720624384,0,60,1.0,4,0.005595463676325728
5.8,0.0,77.69594837242065,0,60,1.0,4,0.004610549939309294
5.805,0.0,77.66066023234221,0,60,1.0,4,0.0037802407609931646
5.81,0.0,77.63107661018051,0,60,1.0,4,0.00308415553365916
5.815,0.0,77.60641236432045,0,60,1.0,4,0.0025038203369517225
5.82,0.0,77.58596250536276,0,60,1.0,4,0.002022647185006075
5.825,0.0,77.56909969282334,0,60,1.0,4,0.0016258751252551332
5.83,0.0,77.55527048169948,0,60,1.0,4,0.0013004819223407166
5.835,0.0,77.54399065849753,0,60,1.0,4,0.0010350743175890516
5.84,0.0,77.53483996875943,0,60,1.0,4,0.0008197639708100724
5.845,0.0,77.52745649724005,0,60,1.0,4,0.0006460352291777086
5.85,0.0,77.52153091995265,0,60,1.0,4,0.000506609881238894
5.855,0.0,77.51680080618708,0,60,1.0,4,0.00039531308675477437
5.86,0.0,77.51304510977057,0,60,1.0,4,0.0003069437593076012
5.865,0.0,77.51007895333593,0,60,1.0,4,0.00023715184319846283
5.87,0.0,77.50774877787383,0,60,1.0,4,0.00018232418526655932
5.875,0.0,77.50592790273667,0,60,1.0,4,0.00013948006439230032
5.88,0.0,77.50451251862505,0,60,1.0,4,0.00010617690882467662
5.885,0.0,77.50341811780184,0,60,1.0,4,8.042630121983219e-05
5.89,0.0,77.50257635156204,0,60,1.0,4,6.062003675390984e-05
5.895,0.0,77.50193229444417,0,60,1.0,4,4.5465751627622974e-05
5.9,0.0,77.50144208734422,0,60,1.0,4,3.3931466922735235e-05
5.905,0.0,77.5010709270944,0,60,1.0,4,2.519828457419702e-05
5.91,0.0,77.50079136771336,0,60,1.0,4,1.862041678497703e-05
5.915,0.0,77.50058189795325,0,60,1.0,4,1.3691716547140567e-05
5.92,0.0,77.50042576054396,0,60,1.0,4,1.0017895152045373e-05
5.925,0.0,77.5003099802863,0,60,1.0,4,7.293653795373115e-06
5.93,0.0,77.50022457055825,0,60,1.0,4,5.284013135183962e-06
5.935,0.0,77.5001618906037,0,60,1.0,4,3.809190675450308e-06
5.94,0.0,77.5001161289628,0,60,1.0,4,2.7324461835659724e-06
5.945,0.0,77.50008289141098,0,60,1.0,4,1.950386140780371e-06
5.95,0.0,77.5000588746852,0,60,1.0,4,1.3852867104614074e-06
5.955,0.0,77.50004161000271,0,60,1.0,4,9.7905888731689e-07
5.96,0.0,77.50002926287357,0,60,1.0,4,6.885382015966838e-07
5.965,0.0,77.50002047794057,0,60,1.0,4,4.818338956791943e-07
5.97,0.0,77.50001425954493,0,60,1.0,4,3.3551870414532246e-07
5.975,0.0,77.50000988041381,0,60,1.0,4,2.3248032501963763e-07
5.98,0.001684486749771458,77.5000068123144,0,60,1.0,4,1.6028975049748088e-07
5.985,0.003097557930867117,77.50000467373745,0,60,1.0,4,1.0997029295033237e-07
5.99,0.005475106668887023,77.50000319068567,0,60,1.0,4,7.507495705367012e-08
5.995,0.00930222931468658,77.50000216747358,0,60,1.0,4,5.099937839879524e-08
6.0,0.01519157517868857,77.50000146512164,0,60,1.0,4,3.447345039496534e-08
6.005,0.023847336626128316,77.50000098547052,0,60,1.0,4,2.318754167497579e-08
6.01,0.0359830743700859,77.50000065957421,0,60,1.0,4,1.5519393226735273e-08
6.015,0.05218887796857759,77.50000043927226,0,60,1.0,4,1.0335817785958438e-08
6.02,0.0727577001223134,77.50000029110788,0,60,1.0,4,6.849597197929945e-09
6.025,0.0974992498694751,77.50000019196597,0,60,1.0,5,4.516846274782438e-09
6.03,0.12558706050443358,77.50000012596347,0,60,1.0,5,2.963846287350273e-09
6.035,0.15549263588878245,77.50000008224605,0,60,1.0,5,1.9352010921840486e-09
6.04,0.1850529723539114,77.5000000534362,0,60,1.0,5,1.2573222567666295e-09
6.045,0.21169159439317053,77.50000003454666,0,60,1.0,5,8.128625615748152e-10
6.05,0.23277292922115492,77.50000002222423,0,60,1.0,5,5.229230068567524e-10
6.055,0.24602692519491282,77.50000001422649,0,60,1.0,5,3.3474086247973474e-10
6.06,0.24995056064839283,77.50000000906188,0,60,1.0,5,2.1322066726604723e-10
6.065,0.24408826520424054,77.50000000574367,0,60,1.0,5,1.3514522834157106e-10
6.07,0.22911894216865275,77.50000000362252,0,60,1.0,5,8.523570346262525e-11
6.075,0.20672661788705934,77.50000000227342,0,60,1.0,5,5.349233213243732e-11
6.08,0.17928878030241233,77.50000000141972,0,60,1.0,5,3.3405205399236256e-11
6.085,0.14946211903866036,77.50000000088221,0,60,1.0,5,2.0757879075758598e-11
6.09,0.1197651512573837,77.5000000005455,0,60,1.0,5,1.283524397877045e-11
6.095,0.09224675744988023,77.50000000033563,0,60,1.0,5,7.897222745026846e-12
6.1,0.06829565320281596,77.50000000020549,0,60,1.0,5,4.8350343336899055e-12
6.105,0.04860224607515734,77.50000000012518,0,60,1.0,5,2.9454922161462225e-12
6.11,0.03324612389699793,77.50000000007589,0,60,1.0,5,1.7855520983336164e-12
6.115,0.021859876340472782,77.50000000004577,0,60,1.0,5,1.0770156008862506e-12
6.12,0.01381595518554205,77.50000000002747,0,60,1.0,5,6.463431097525994e-13
6.125,0.008394095110402422,77.50000000001641,0,60,1.0,5,3.862008752013721e-13
6.13,0.0049052535271608,77.50000000000975,0,60,1.0,5,2.2937991375596645e-13
6.135,0.0027671663551903634,77.50000000000577,0,60,1.0,5,1.3575545916169443e-13
6.14,0.0015425553464444616,77.5000000000034,0,60,1.0,5,7.991515945725361e-14
6.145,0.0009638206637011801,77.50000000000199,0,60,1.0,5,4.681222729713601e-14
6.15,0.0009804935156568228,77.50000000000115,0,60,1.0,5,2.7084217221914406e-14
6.155,0.0018793744894085216,77.50000000000067,0,60,1.0,5,1.5715533449752805e-14
6.16,0.004535525206900863,77.50000000000038,0,60,1.0,5,9.028072407304802e-15
6.165,0.010832767979632273,77.50000000000023,0,60,1.0,5,5.349968833958401e-15
6.17,0.024208003392322392,77.50000000000013,0,60,1.0,5,3.0093574691016007e-15
6.175,0.0500971897335304,77.50000000000007,0,60,1.0,5,1.6718652606120004e-15
6.18,0.09582894921774403,77.50000000000004,0,60,1.0,5,1.0031191563672002e-15
6.185,0.16937896721820658,77.50000000000003,0,60,1.0,5,6.687461042448002e-16
6.19,0.27661303008991756,77.50000000000001,0,60,1.0,5,3.343730521224001e-16
6.195,0.4173782800009149,77.5,0,60,1.0,5,0.0
6.2,0.5818720934538056,77.5,0,60,1.0,5,0.0
6.205,0.7494718801585675,77.5,0,60,1.0,5,0.0
6.21,0.891813020752378,77.5,0,60,1.0,5,0.0
6.215,0.9800361632936612,77.5,0,60,1.0,5,0.0
6.22,0.993574479225126,77.50000248994282,1,60,1.0,5,5.8586889776158976e-08
6.225,0.9263438449375362,77.50000380552395,0,60,1.0,5,8.954173989984744e-08
6.23,0.7873015962290536,77.50000593638781,0,60,1.0,5,1.39679713129226e-07
6.235,0.5959516244629897,77.50000955146527,0,60,1.0,5,2.2474035925851614e-07
6.24,0.376910120078773,77.50001601150335,0,60,1.0,5,3.7674125524865623e-07
6.245,0.15739335672107918,77.50002813833666,0,60,1.0,5,6.62078509642871e-07
6.25,-0.033361226269301235,77.50005180683414,0,60,1.0,5,1.2189843326215102e-06
6.255,-0.1680180840843834,77.50009915896051,0,60,1.0,5,2.3331520119828543e-06
6.26,-0.23069703190837854,77.5001949173451,0,60,1.0,5,4.586290472897257e-06
6.265,-0.22587267821131068,77.50038842890842,0,60,1.0,5,9.13950372759085e-06
6.27,-0.17718181630665902,77.50077594134726,0,60,1.0,5,1.8257443464870662e-05
6.275,-0.11494332516451301,77.50154050202146,0,60,1.0,5,3.6247106387196145e-05
6.28,-0.061810214049552864,77.50302106429805,0,60,1.0,5,7.108386583655267e-05
6.285,-0.026546104631500547,77.50582806699363,0,60,1.0,5,0.00013713098808539945
6.29,-0.00719600351942686,77.5110297722934,0,60,1.0,5,0.00025952405396230247
6.295,0.0022072757983807078,77.52044123887686,0,60,1.0,5,0.00048097032651425893
6.3,0.006917199873730717,77.53705421595274,0,60,1.0,5,0.0008718639047702602
6.305,0.01004859748264829,77.5656483921687,0,60,1.0,5,0.0015446680510281647
6.31,0.013037082251128167,77.61361778133262,0,60,1.0,5,0.002673359560767561
6.315,0.01645163937690478,77.69202488768812,0,60,1.0,5,0.004518232651485184
6.32,0.020526639934696615,77.81685387265462,0,60,1.0,5,0.007455385238932208
6.325,0.02539629541761738,78.01036829501618,0,60,1.0,5,0.012008665765086548
6.33,0.031171612185577933,78.30238982620193,0,60,1.0,5,0.018879760616516035
6.335,0.03795853426638131,78.73121019613063,0,60,1.0,5,0.02896965167366194
6.34,0.0458588961882057,79.34374842619829,0,60,1.0,5,0.043382315910547975
6.345,0.054966995891435555,80.19449891225777,0,60,1.0,5,0.0633999744060652
6.35,0.06536491004445595,81.34282055819683,0,60,1.0,5,0.09041930725169021
6.355,0.07711726085088699,82.84823024479076,0,60,1.0,5,0.12584071164213542
6.36,0.09026570629555215,84.76361058293982,0,60,1.0,5,0.17090848430446634
6.365,0.10482339848670268,87.12662098861364,0,60,1.0,5,0.2265087291438503
6.37,0.12076968927580028,89.95007326204762,0,60,1.0,5,0.29294290028347353
6.375,0.13804539501007884,93.21251614850307,0,60,1.0,5,0.3697062623177193
6.38,0.15654895051787066,96.85065144980784,0,60,1.0,5,0.45530944587783156
6.385,0.17613378141900526,100.75534889717845,0,60,1.0,5,0.5471846799336106
6.39,0.19660720058055794,104.77283232444243,0,60,1.0,5,0.6417137017515867
6.395,0.21773108748496234,108.71203014349793,0,60,1.0,5,0.7344007092587748
6.4,0.23922453870058807,112.35816304783853,0,60,1.0,5,0.8201920717138478
6.405,0.2607685857914563,115.49152435431921,0,60,1.0,5,0.8939182201016285
6.41,0.2820129681603682,117.90931557476307,0,60,1.0,5,0.9508074252885428
6.415,0.30258482867153996,119.44758504432397,0,60,1.0,5,0.987002001042917
6.42,0.3220990771751686,120.0,0,60,1.0,5,1.0
6.425,0.3401700499968971,119.53048331157143,0,60,1.0,5,0.9889525485075631
6.43,0.3564239911198326,118.07764512178605,0,60,1.0,5,0.954768120512613
6.435,0.3705118017738417,115.75027089627324,0,60,1.0,5,0.9000063740299585
6.44,0.3821214567925213,112.71461532107598,0,60,1.0,5,0.8285791840253173
6.445,0.39098947374066967,109.17558029645926,0,60,1.0,5,0.7453077716813943
6.45,0.3969108472035567,105.35475009686118,0,60,1.0,5,0.6554058846320278
6.455,0.3997469255491936,101.46855261644002,0,60,1.0,5,0.5639659439162358
6.46,0.3994308076379137,97.70949370222844,0,60,1.0,5,0.47551749887596334
6.465,0.3959699661768434,94.23259379733645,0,60,1.0,5,0.3937080893490929
6.47,0.38944595408114946,91.14806229054459,0,60,1.0,5,0.3211308774245785
6.475,0.38001120995358023,88.5201284436027,0,60,1.0,5,0.25929713984947533
6.48,0.3678831374098315,86.37103019757335,0,60,1.0,5,0.20873012229584345
6.485,0.35333577933796634,84.68858588314299,0,60,1.0,5,0.16914319725042332
6.49,0.33668953221163944,83.43558240598455,0,60,1.0,5,0.13966076249375406
6.495,0.3182994390982644,82.5593606642362,0,60,1.0,5,0.11904378033496929
6.5,0.29854265738230645,82.00035857665452,0,60,1.0,5,0.10589079003892989
6.505,0.2778057157821067,81.69885586979706,0,60,1.0,5,0.09879660870110724
6.51,0.2564721553719815,81.59963653358932,0,60,1.0,5,0.09646203608445456
6.515,0.23491109433464996,81.65466301792299,0,60,1.0,5,0.09775677689230552
6.52,0.21346717185309805,81.82410177142309,0,60,1.0,5,0.10174357109230794
6.525,0.19245222055656455,82.07615171988677,0,60,1.0,5,0.10767415811498274
6.53,0.17213889801761392,82.3861310312197,0,60,1.0,5,0.1149677889698754
6.535,0.15275638501270183,82.73521037592705,0,60,1.0,5,0.12318142061004832
6.54,0.13448814019607322,83.10908026135901,0,60,1.0,5,0.13197835909080027
6.545,0.11747159495449566,83.4967355800674,0,60,1.0,5,0.1410996607074681
6.55,0.10179958433370105,83.8894711137067,0,60,1.0,5,0.15034049679309894
6.555,0.08752324394101413,84.28011585858825,0,60,1.0,5,0.1595321378491352
6.56,0.07465606047174059,84.66249236323388,0,60,1.0,5,0.1685292320760913
6.565,0.0631787448609295,85.03106583868113,0,60,1.0,5,0.17720154914543834
6.57,0.05304460019959574,85.38074083876755,0,60,1.0,5,0.1854291962062953
6.575,0.044185078305849994,85.70676514941869,0,60,1.0,5,0.19310035645691026
6.58,0.03651525513023255,86.00470666351954,0,60,1.0,5,0.20011074502398923
6.585,0.0299390014708757,86.27047640104377,0,60,1.0,5,0.20636415061279448
6.59,0.024353677220580638,86.50037773141064,0,60,1.0,5,0.21177359368025028
6.595,0.01965423034339045,86.69116751454428,0,60,1.0,5,0.2162627650481006
6.6,0.015736632374757337,86.84011916090118,0,60,1.0,5,0.2197675096682631
6.605,0.012500627640593535,86.94508069587606,0,60,1.0,5,0.22223719284414253
6.61,0.009851811652115898,87.00452308891684,0,60,1.0,5,0.2236358373862786
6.615,0.007703084175428559,87.01757565612239,0,60,1.0,5,0.22394295661464445
6.62,0.005975544002062424,86.98404649438511,0,60,1.0,5,0.22315403516200263
6.625,0.004598905818663047,86.9044268139302,0,60,1.0,5,0.22128063091600472
6.63,0.0035115256454839104,86.77987880203669,0,60,1.0,5,0.21835008945968687
6.635,0.002660121266303676,86.61220732526297,0,60,1.0,5,0.2144048782414817
6.64,0.0019992692560877024,86.40381638099026,0,60,1.0,5,0.20950156190565328
6.645,0.0014907520044639367,86.15765174322021,0,60,1.0,5,0.2037094527816521
6.65,0.0011028178277539807,85.87713170445551,0,60,1.0,5,0.19710898128130605
6.655,0.0008094059938923333,85.56606818397677,0,60,1.0,5,0.18978983962298276
6.66,0.0005893771793717645,85.22858074240006,0,60,1.0,5,0.18184895864470718
6.665,0.0004257792353490551,84.86900620562017,0,60,1.0,5,0.17338838130870982
6.67,0.0003051686392901525,84.49180665504765,0,60,1.0,5,0.16451309776582715
6.675,0.00021699992642659966,84.10147848725309,0,60,1.0,5,0.15532890558242562
6.68,0.00015308884054097838,83.70246509143067,0,60,1.0,5,0.1459403550924863
6.685,0.00010714989329311098,83.29907544860849,0,60,1.0,5,0.13644883408490566
6.69,7.440535854020571e-05,82.89541063710034,0,60,1.0,5,0.12695083852000802
6.695,5.1260276743925106e-05,82.49529985192366,0,60,1.0,5,0.11753646710408615
6.7,3.503659887882241e-05,82.10224713113755,0,60,1.0,5,0.10828816779147166
6.705,2.375894748103639e-05,81.71938954924038,0,60,1.0,5,0.09927975409977353
6.71,1.5984413869232557e-05,81.34946720642466,0,60,1.0,5,0.09057569897469794
6.715,1.0669166579899869e-05,80.99480493070575,0,60,1.0,5,0.0822307042519001
6.72,7.06526633560511e-06,80.65730523356406,0,60,1.0,5,0.07428953490738964
6.725,4.641847214699205e-06,80.33845173171007,0,60,1.0,5,0.06678709956964861
6.73,3.025641074479182e-06,80.03932197752341,0,60,1.0,5,0.059748752412315635
6.735,1.9566278676921314e-06,79.7606084347192,0,60,1.0,5,0.05319078669927535
6.74,1.2553456560008793e-06,79.50264619642017,0,60,1.0,5,0.0471210869745923
6.745,7.990660428214668e-07,79.26544596930036,0,60,1.0,5,0.04153990516000844
6.75,5.046221251618276e-07,79.04873083608925,0,60,1.0,5,0.03644072555504114
6.755,3.1616527078858815e-07,78.85197535329688,0,60,1.0,5,0.03181118478345598
6.76,1.9652884407760343e-07,78.67444563345711,0,60,1.0,5,0.027634014904873203
6.765,1.2120002189836396e-07,78.51523919213612,0,60,1.0,5,0.023887980991438153
6.77,7.415549848886236e-08,78.37332349940569,0,60,1.0,5,0.020548788221310253
6.775,4.501406988770349e-08,78.24757235335397,0,60,1.0,5,0.01758993772597585
6.78,0.0,78.13679937985393,0,60,1.0,5,0.014983514820092376
6.785,0.0,78.03978814945174,0,60,1.0,5,0.012700897634158537
6.79,0.0,77.95531858127889,0,60,1.0,5,0.010713378383032665
6.795,0.0,77.88218946913811,0,60,1.0,5,0.008992693391484983
6.8,0.0,77.81923711168028,0,60,1.0,5,0.007511461451300714
6.805,0.0,77.7653501537141,0,60,1.0,5,0.006243533028566952
6.81,0.0,77.71948084745911,0,60,1.0,5,0.005164255234331998
6.815,0.0,77.68065302056385,0,60,1.0,5,0.004250659307384761
6.82,0.0,77.647967092686,0,60,1.0,5,0.0034815786514353505
6.825,0.0,77.62060251599861,0,60,1.0,5,0.0028377062587908847
6.83,0.0,77.59781802945105,0,60,1.0,5,0.0023016006929658353
6.835,0.0,77.57895011472735,0,60,1.0,5,0.0018576497582905498
6.84,0.0,77.56341002660088,0,60,1.0,5,0.001492000625902994
6.845,0.0,77.55067974482027,0,60,1.0,5,0.0011924645840063958
6.85,0.0,77.54030716171373,0,60,1.0,5,0.0009484038050288745
6.855,0.0,77.53190078207007,0,60,1.0,5,0.0007506066369427679
6.86,0.0,77.52512417193833,0,60,1.0,5,0.0005911569867842392
6.865,0.0,77.51969035280118,0,60,1.0,5,0.0004633024188512322
6.87,0.0,77.515356298754,0,60,1.0,5,0.00036132467656470373
6.875,0.0,77.5119176580947,0,60,1.0,5,0.0002804154845812397
6.88,0.0,77.50920378796964,0,60,1.0,5,0.00021655971693268624
6.885,0.0,77.50707316196097,0,60,1.0,5,0.0001664273402582239
6.89,0.0,77.5054091859877,0,60,1.0,5,0.00012727496441651537
6.895,0.0,77.50411643763564,0,60,1.0,5,9.685735613281983e-05
6.9,0.0,77.50311732785518,0,60,1.0,5,7.334889071009511e-05
6.905,0.0,77.50234917155994,0,60,1.0,5,5.527462493981094e-05
6.91,0.0,77.50176164462405,0,60,1.0,5,4.1450461742442714e-05
6.915,0.0,77.50131459866044,0,60,1.0,5,3.0931733186889686e-05
6.92,0.0,77.50097620130107,0,60,1.0,5,2.296944237815189e-05
6.925,0.0,77.50072136803325,0,60,1.0,5,1.6973365488330967e-05
6.93,0.0,77.50053045154435,0,60,1.0,5,1.2481212808231303e-05
6.935,0.0,77.50038815560109,0,60,1.0,5,9.133072966746756e-06
6.94,0.0,77.50028264239916,0,60,1.0,5,6.650409391915994e-06
6.945,0.0,77.50020480477525,0,60,1.0,5,4.818935888258292e-06
6.95,0.0,77.50014767744172,0,60,1.0,5,3.4747633345191655e-06
6.955,0.0,77.50010596429578,0,60,1.0,5,2.4932775478619614e-06
6.96,0.0,77.50007566172987,0,60,1.0,5,1.7802759968537216e-06
6.965,0.0,77.50005376062273,0,60,1.0,5,1.2649558290350423e-06
6.97,0.0,77.50003801225458,0,60,1.0,5,8.94405990065399e-07
6.975,0.0,77.50002674571927,0,60,1.0,5,6.293110415941449e-07
6.98,0.0,77.50001872648421,0,60,1.0,5,4.4062315797579207e-07
6.985,0.0,77.50001304756682,0,60,1.0,5,3.070015723364229e-07
6.99,0.0,77.50000904636538,0,60,1.0,5,2.128556559455319e-07
6.995,0.001684486749771458,77.50000624151522,0,60,1.0,5,1.4685918171487762e-07
7.0,0.003097557930867117,77.5000042852608,0,60,1.0,5,1.0082966589246045e-07
7.005,0.005475106668887023,77.50000292776217,0,60,1.0,5,6.888852159564147e-08
7.01,0.00930222931468658,77.50000199051588,0,60,1.0,5,4.683566785120895e-08
7.015,0.01519157517868857,77.50000134668745,0,60,1.0,5,3.168676364432887e-08
7.02,0.023847336626128316,77.50000090664922,0,60,1.0,5,2.133292281648798e-08
7.025,0.0359830743700859,77.50000060741161,0,60,1.0,5,1.4292037817272906e-08
7.03,0.05218887796857759,77.50000040494702,0,60,1.0,5,9.528165090908741e-09
7.035,0.0727577001223134,77.50000026864862,0,60,1.0,5,6.32114399516414e-09
7.04,0.0974992498694751,77.50000017735456,0,60,1.0,5,4.173048583812916e-09
7.045,0.12558706050443358,77.5000001165122,0,60,1.0,5,2.74146346408302e-09
7.05,0.15549263588878245,77.50000007616786,0,60,1.0,5,1.7921850565685685e-09
7.055,0.1850529723539114,77.50000004954998,0,60,1.0,5,1.1658819269488209e-09
7.06,0.21169159439317053,77.50000003207646,0,60,1.0,5,7.547401657896391e-10
7.065,0.23277292922115492,77.50000002066335,0,60,1.0,5,4.861964739307843e-10
7.07,0.24602692519491282,77.50000001324605,0,60,1.0,5,3.116717968677061e-10
7.075,0.24995056064839283,77.50000000844973,0,60,1.0,5,1.9881721367282272e-10
7.08,0.24408826520424054,77.50000000536379,0,60,1.0,5,1.2620676791223507e-10
7.085,0.22911894216865275,77.50000000338821,0,60,1.0,5,7.972256057923112e-11
7.09,0.20672661788705934,77.50000000212981,0,60,1.0,5,5.011315806768835e-11
7.095,0.17928878030241233,77.50000000133224,0,60,1.0,5,3.1346804890370766e-11
7.1,0.14946211903866036,77.50000000082927,0,60,1.0,5,1.9512339456602656e-11
7.105,0.1197651512573837,77.50000000051367,0,60,1.0,5,1.2086248342016274e-11
7.11,0.09224675744988023,77.50000000031662,0,60,1.0,5,7.449831601287074e-12
7.115,0.06829565320281596,77.5000000001942,0,60,1.0,5,4.56954213030472e-12
7.12,0.04860224607515734,77.50000000011853,0,60,1.0,5,2.789005627752939e-12
7.125,0.03324612389699793,77.500000000072,0,60,1.0,5,1.6942682551042012e-12
7.13,0.021859876340472782,77.50000000004351,0,60,1.0,5,1.023850285598789e-12
7.135,0.01381595518554205,77.50000000002618,0,60,1.0,5,6.15915162009461e-13
7.14,0.008394095110402422,77.50000000001566,0,60,1.0,5,3.684791034388849e-13
7.145,0.0049052535271608,77.50000000000934,0,60,1.0,5,2.1968309524441686e-13
7.15,0.0027671663551903634,77.50000000000553,0,60,1.0,5,1.3007111727561363e-13
7.155,0.0015425553464444616,77.50000000000325,0,60,1.0,5,7.657142893602963e-14
7.16,0.0009638206637011801,77.50000000000192,0,60,1.0,5,4.514036203652401e-14
7.165,0.0009804935156568228,77.50000000000112,0,60,1.0,5,2.6415471117669608e-14
7.17,0.0018793744894085216,77.50000000000065,0,60,1.0,5,1.5381160397630403e-14
7.175,0.004535525206900863,77.50000000000037,0,60,1.0,5,8.693699355182403e-15
7.18,0.010832767979632273,77.50000000000021,0,60,1.0,5,5.015595781836002e-15
7.185,0.024208003392322392,77.50000000000013,0,60,1.0,5,3.0093574691016007e-15
7.19,0.0500971897335304,77.50000000000007,0,60,1.0,5,1.6718652606120004e-15
7.195,0.09582894921774403,77.50000000000004,0,60,1.0,5,1.0031191563672002e-15
7.2,0.16937896721820658,77.50000000000003,0,60,1.0,5,6.687461042448002e-16
7.205,0.27661303008991756,77.50000000000001,0,60,1.0,5,3.343730521224001e-16
7.21,0.4173782800009149,77.5,0,60,1.0,5,0.0
7.215,0.5818720934538056,77.5,0,60,1.0,5,0.0
7.22,0.7494718801585675,77.5,0,60,1.0,5,0.0
7.225,0.891813020752378,77.5,0,60,1.0,5,0.0
7.23,0.9800361632936612,77.5,0,60,1.0,6,0.0
7.235,0.993574479225126,77.50000249206059,1,60,1.0,6,5.8636719720251515e-08
7.24,0.9263438449375362,77.50000388649308,0,60,1.0,6,9.144689590143303e-08
7.245,0.7873015962290536,77.50000620174501,0,60,1.0,6,1.4592341197866892e-07
7.25,0.5959516244629897,77.50001024868433,0,60,1.0,6,2.411455137221577e-07
7.255,0.376910120078773,77.50001773713392,0,60,1.0,6,4.1734432744199103e-07
7.26,0.15739335672107918,77.50003234050088,0,60,1.0,6,7.609529618816047e-07
7.265,-0.033361226269301235,77.50006196542242,0,60,1.0,6,1.4580099392493568e-06
7.27,-0.1680180840843834,77.50012345839556,0,60,1.0,6,2.9049034250259437e-06
7.275,-0.23069703190837854,77.50025207253846,0,60,1.0,6,5.93111855196452e-06
7.28,-0.22587267821131068,77.50051989833095,0,60,1.0,6,1.2232901904700852e-05
7.285,-0.17718181630665902,77.50107053879677,0,60,1.0,6,2.5189148159236486e-05
7.29,-0.11494332516451301,77.50218205581817,0,60,1.0,6,5.134248983923124e-05
7.295,-0.061810214049552864,77.50437705138005,0,60,1.0,6,0.00010298944423639382
7.3,-0.026546104631500547,77.50860779491533,0,60,1.0,6,0.00020253635094905697
7.305,-0.00719600351942686,77.5165549676137,0,60,1.0,6,0.00038952864973412836
7.31,0.0022072757983807078,77.53108897869964,0,60,1.0,6,0.0007315053811680627
7.315,0.006917199873730717,77.55694911283238,0,60,1.0,6,0.0013399791254678748
7.32,0.01004859748264829,77.60169183598806,0,60,1.0,6,0.0023927490820720805
7.325,0.013037082251128167,77.67693707547176,0,60,1.0,6,0.0041632253052177794
7.33,0.01645163937690478,77.7998909378598,0,60,1.0,6,0.0070562573614070595
7.335,0.020526639934696615,77.99503777956711,0,60,1.0,6,0.011647947754520306
7.34,0.02539629541761738,78.29577278054447,0,60,1.0,6,0.01872406542457571
7.345,0.031171612185577933,78.74559890656192,0,60,1.0,6,0.029308209566162906
7.35,0.03795853426638131,79.39836652237483,0,60,1.0,6,0.04466744758529009
7.355,0.0458588961882057,80.3169349302758,0,60,1.0,6,0.0662808218888425
7.36,0.054966995891435555,81.56964085920548,0,60,1.0,6,0.09575625551071713
7.365,0.06536491004445595,83.22412774219025,0,60,1.0,6,0.13468535863977055
7.37,0.07711726085088699,85.33845947360807,0,60,1.0,6,0.18443434055548397
7.375,0.09026570629555215,87.95000681664004,0,60,1.0,6,0.24588251333270686
7.38,0.10482339848670268,91.06328339863445,0,60,1.0,6,0.3191360799678695
7.385,0.12076968927580028,94.63858211835603,0,60,1.0,6,0.40326075572602416
7.39,0.13804539501007884,98.5837320054619,0,60,1.0,6,0.4960878118932211
7.395,0.15654895051787066,102.75136341377669,0,60,1.0,6,0.5941497273829809
7.4,0.17613378141900526,106.94359409913197,0,60,1.0,6,0.6927904493913405
7.405,0.19660720058055794,110.92500582405262,0,60,1.0,6,0.7864707252718264
7.41,0.21773108748496234,114.44330342499879,0,60,1.0,6,0.8692541982352656
7.415,0.23922453870058807,117.25542188596262,0,60,1.0,6,0.9354216914344146
7.42,0.2607685857914563,119.15545481965574,0,60,1.0,6,0.9801283486977822
7.425,0.2820129681603682,120.0,0,60,1.0,6,1.0
7.43,0.30258482867153996,119.72661680769721,0,60,1.0,6,0.9935674542987579
7.435,0.3220990771751686,118.36212003966133,0,60,1.0,6,0.9614616479920314
7.44,0.3401700499968971,116.0192046826335,0,60,1.0,6,0.9063342278266706
7.445,0.3564239911198326,112.88201428084409,0,60,1.0,6,0.8325179830786844
7.45,0.3705118017738417,109.18324133098602,0,60,1.0,6,0.7454880313173181
7.455,0.3821214567925213,105.17673159742563,0,60,1.0,6,0.6512172140570737
7.46,0.39098947374066967,101.1100694710858,0,60,1.0,6,0.5555310463784893
7.465,0.3969108472035567,97.20119773854125,0,60,1.0,6,0.46355759384802947
7.47,0.3997469255491936,93.62195394509827,0,60,1.0,6,0.37934009282584163
7.475,0.3994308076379137,90.48983035382798,0,60,1.0,6,0.3056430671488937
7.48,0.3959699661768434,87.86768093596174,0,60,1.0,6,0.24394543378733516
7.485,0.38944595408114946,85.76984429058865,0,60,1.0,6,0.19458457154326236
7.49,0.38001120995358023,84.17242779702583,0,60,1.0,6,0.15699830110649018
7.495,0.3678831374098315,83.02534578800257,0,60,1.0,6,0.1300081361882957
7.5,0.35333577933796634,82.26402464586049,0,60,1.0,6,0.11209469754965853
7.505,0.33668953221163944,81.8192991437891,0,60,1.0,6,0.10163056808915519
7.51,0.3182994390982644,81.62472762003841,0,60,1.0,6,0.09705241458913914
7.515,0.29854265738230645,81.62118407871675,0,60,1.0,6,0.09696903714627651
7.52,0.2778057157821067,81.75904264873614,0,60,1.0,6,0.10021276820555626
7.525,0.2564721553719815,81.9985219925281,0,60,1.0,6,0.10584757629477876
7.53,0.23491109433464996,82.30882611113378,0,60,1.0,6,0.11314884967373606
7.535,0.21346717185309805,82.66665602002601,0,60,1.0,6,0.12156837694178849
7.54,0.19245222055656455,83.05453424588724,0,60,1.0,6,0.13069492343264094
7.545,0.17213889801761392,83.45923266320771,0,60,1.0,6,0.14021723913429918
7.55,0.15275638501270183,83.87045877227034,0,60,1.0,6,0.1498931475828315
7.555,0.13448814019607322,84.2798534333411,0,60,1.0,6,0.15952596313743772
7.56,0.11747159495449566,84.68028767641711,0,60,1.0,6,0.16894794532746138
7.565,0.10179958433370105,85.06541226325399,0,60,1.0,6,0.1780097003118586
7.57,0.08752324394101413,85.42940233018484,0,60,1.0,6,0.18657417247493746
7.575,0.07465606047174059,85.76684174356433,0,60,1.0,6,0.19451392337798418
7.58,0.0631787448609295,86.07270061918209,0,60,1.0,6,0.20171060280428438
7.585,0.05304460019959574,86.34237003707361,0,60,1.0,6,0.20805576557820252
7.59,0.044185078305849994,86.57172770912837,0,60,1.0,6,0.21345241668537335
7.595,0.03651525513023255,86.75721616923929,0,60,1.0,6,0.21781685104092435
7.6,0.0299390014708757,86.89592083331073,0,60,1.0,6,0.2210804901955465
7.605,0.024353677220580638,86.98563934776703,0,60,1.0,6,0.22319151406510668
7.61,0.01965423034339045,87.02493647066403,0,60,1.0,6,0.22411615225091838
7.615,0.015736632374757337,87.01318073228062,0,60,1.0,6,0.22383954664189687
7.62,0.012500627640593535,86.95056062220486,0,60,1.0,6,0.2223661322871732
7.625,0.009851811652115898,86.83807925732597,0,60,1.0,6,0.2197195119370817
7.63,0.007703084175428559,86.67752751899921,0,60,1.0,6,0.21594182397645206
7.635,0.005975544002062424,86.47143656288762,0,60,1.0,6,0.21109262500912043
7.64,0.004598905818663047,86.22301141626089,0,60,1.0,6,0.20524732744143268
7.645,0.0035115256454839104,85.9360480776319,0,60,1.0,6,0.19849524888545636
7.65,0.002660121266303676,85.61483710619105,0,60,1.0,6,0.19093734367508344
7.655,0.0019992692560877024,85.26405711630112,0,60,1.0,6,0.18268369685414393
7.66,0.0014907520044639367,84.88866186212869,0,60,1.0,6,0.17385086734420438
7.665,0.0011028178277539807,84.49376470286529,0,60,1.0,6,0.16455916947918334
7.67,0.0008094059938923333,84.08452418143106,0,60,1.0,6,0.15492998073955444
7.675,0.0005893771793717645,83.66603423862483,0,60,1.0,6,0.1450831585558784
7.68,0.0004257792353490551,83.24322223736209,0,60,1.0,6,0.135134640879108
7.685,0.0003051686392901525,82.82075751109831,0,60,1.0,6,0.1251942943787837
7.69,0.00021699992642659966,82.40297260454615,0,60,1.0,6,0.11536406128343883
7.695,0.00015308884054097838,81.9937987739174,0,60,1.0,6,0.10573644173923305
7.7,0.00010714989329311098,81.5967166896027,0,60,1.0,6,0.09639333387300472
7.705,7.440535854020571e-05,81.21472266694637,0,60,1.0,6,0.08740523922226758
7.71,5.1260276743925106e-05,80.85031016848625,0,60,1.0,6,0.07883082749379401
7.715,3.503659887882241e-05,80.50546579764779,0,60,1.0,6,0.07071684229759499
7.72,2.375894748103639e-05,80.18167855835483,0,60,1.0,6,0.0630983190201137
7.725,1.5984413869232557e-05,79.87996080067171,0,60,1.0,6,0.055999077662863786
7.73,1.0669166579899869e-05,79.60087901688703,0,60,1.0,6,0.049432447456165526
7.735,7.06526633560511e-06,79.34459249714048,0,60,1.0,6,0.04340217640330546
7.74,4.641847214699205e-06,79.1108977952886,0,60,1.0,6,0.037903477536202206
7.745,3.025641074479182e-06,78.8992769862145,0,60,1.0,6,0.032924164381517705
7.75,1.9566278676921314e-06,78.70894780365752,0,60,1.0,6,0.028445830674294657
7.755,1.2553456560008793e-06,78.53891391879662,0,60,1.0,6,0.024445033383449968
7.76,7.990660428214668e-07,78.38801383874541,0,60,1.0,6,0.02089444326459784
7.765,5.046221251618276e-07,78.25496715486534,0,60,1.0,6,0.017763933055655077
7.77,3.1616527078858815e-07,78.13841713794321,0,60,1.0,6,0.015021579716310766
7.775,1.9652884407760343e-07,78.03696894665431,0,60,1.0,6,0.012634563450689699
7.78,1.2120002189836396e-07,77.94922297505981,0,60,1.0,6,0.010569952354348502
7.785,7.415549848886236e-08,77.8738031041554,0,60,1.0,6,0.008795367156597636
7.79,4.501406988770349e-08,77.8093798341656,0,60,1.0,6,0.007279525509778751
7.795,0.0,77.75468845334072,0,60,1.0,6,0.005992669490369869
7.8,0.0,77.7085425428285,0,60,1.0,6,0.004906883360670503
7.805,0.0,77.6698432252712,0,60,1.0,6,0.003996311182851621
7.81,0.0,77.63758463845281,0,60,1.0,6,0.0032372856106542927
7.815,0.0,77.6108561573609,0,60,1.0,6,0.002608380173197635
7.82,0.0,77.5888419022451,0,60,1.0,6,0.002090397699884547
7.825,0.0,77.5708180611178,0,60,1.0,6,0.0016663073204189432
7.83,0.0,77.55614852741415,0,60,1.0,6,0.0013211418215094534
7.835,0.0,77.54427931196614,0,60,1.0,6,0.001041866163909082
7.84,0.0,77.53473213754465,0,60,1.0,6,0.000817226765756499
7.845,0.0,77.52709756803894,0,60,1.0,6,0.0006375898362103485
7.85,0.0,77.52102796635984,0,60,1.0,6,0.0004947756790550236
7.855,0.0,77.5162305182252,0,60,1.0,6,0.0003818945464752901
7.86,0.0,77.51246050531307,0,60,1.0,6,0.0002931883603075809
7.865,0.0,77.50951496242737,0,60,1.0,6,0.00022388146887939966
7.87,0.0,77.50722681031257,0,60,1.0,6,0.0001700425955899685
7.875,0.0,77.50545951908494,0,60,1.0,6,0.00012845927258675093
7.88,0.0,77.50410232700878,0,60,1.0,6,9.652534138307173e-05
7.885,0.0,77.50306601530963,0,60,1.0,6,7.214153669712473e-05
7.89,0.0,77.50227922141525,0,60,1.0,6,5.362873918235945e-05
7.895,0.0,77.50168525983179,0,60,1.0,6,3.965317251266456e-05
7.9,0.0,77.50123941108798,0,60,1.0,6,2.916261383481523e-05
7.905,0.0,77.50090663407934,0,60,1.0,6,2.1332566572763266e-05
7.91,0.0,77.5006596549978,0,60,1.0,6,1.5521294065980756e-05
7.915,0.0,77.50047738616604,0,60,1.0,6,1.1232615671521189e-05
7.92,0.0,77.50034362990894,0,60,1.0,6,8.085409622120043e-06
7.925,0.0,77.50024602556587,0,60,1.0,6,5.788836844043116e-06
7.93,0.0,77.50017520144215,0,60,1.0,6,4.122386874047044e-06
7.935,0.0,77.50012409756755,0,60,1.0,6,2.919942765883581e-06
7.94,0.0,77.500087429303,0,60,1.0,6,2.057160070441622e-06
7.945,0.0,77.50006126591418,0,60,1.0,6,1.4415509219682409e-06
7.95,0.0,77.50004270207464,0,60,1.0,6,1.004754697345668e-06
7.955,0.0,77.50002960378131,0,60,1.0,6,6.96559560337311e-07
7.96,0.0,77.5000204133158,0,60,1.0,6,4.803133128247924e-07
7.965,0.001684486749771458,77.50001400064605,0,60,1.0,6,3.294269658106393e-07
7.97,0.003097557930867117,77.50000955104196,0,60,1.0,6,2.247303989540395e-07
7.975,0.005475106668887023,77.50000648069503,0,60,1.0,6,1.5248694199619744e-07
7.98,0.00930222931468658,77.50000437381664,0,60,1.0,6,1.0291333263226346e-07
7.985,0.01519157517868857,77.50000293607884,0,60,1.0,6,6.908420807442727e-08
7.99,0.023847336626128316,77.5000019603924,0,60,1.0,6,4.6126879905226385e-08
7.995,0.0359830743700859,77.50000130192649,0,60,1.0,6,3.063356443282614e-08
8.0,0.05218887796857759,77.50000085999925,0,60,1.0,6,2.0235276398285778e-08
8.005,0.0727577001223134,77.50000056503822,0,60,1.0,6,1.3295016956630313e-08
8.01,0.0974992498694751,77.50000036925445,0,60,1.0,6,8.688340023902984e-09
8.015,0.12558706050443358,77.5000002400169,0,60,1.0,6,5.6474565259550755e-09
8.02,0.15549263588878245,77.50000015517654,0,60,1.0,6,3.6512126237486133e-09
8.025,0.1850529723539114,77.50000009978802,0,60,1.0,6,2.347953528335304e-09
8.03,0.21169159439317053,77.50000006382619,0,60,1.0,6,1.5017927607379319e-09
8.035,0.23277292922115492,77.50000004060576,0,60,1.0,6,9.55429534181295e-10
8.04,0.24602692519491282,77.50000002569476,0,60,1.0,6,6.045825905269286e-10
8.045,0.24995056064839283,77.50000001617221,0,60,1.0,6,3.805225520302295e-10
8.05,0.24408826520424054,77.50000001012424,0,60,1.0,6,2.382173935235615e-10
8.055,0.22911894216865275,77.5000000063041,0,60,1.0,6,1.4833189839812215e-10
8.06,0.20672661788705934,77.50000000390439,0,60,1.0,6,9.186799295147306e-11
8.065,0.17928878030241233,77.5000000024052,0,60,1.0,6,5.659297344476834e-11
8.07,0.14946211903866036,77.50000000147372,0,60,1.0,6,3.467582299730138e-11
8.075,0.1197651512573837,77.50000000089815,0,60,1.0,6,2.113304564023993e-11
8.08,0.09224675744988023,77.50000000054445,0,60,1.0,6,1.2810500372913393e-11
8.085,0.06829565320281596,77.50000000032826,0,60,1.0,6,7.72368313097532e-12
8.09,0.04860224607515734,77.50000000019686,0,60,1.0,6,4.632069891051608e-12
8.095,0.03324612389699793,77.50000000011742,0,60,1.0,6,2.762924529687392e-12
8.1,0.021859876340472782,77.50000000006968,0,60,1.0,6,1.6394310745561276e-12
8.105,0.01381595518554205,77.50000000004111,0,60,1.0,6,9.673412397901036e-13
8.11,0.008394095110402422,77.50000000002413,0,60,1.0,6,5.677654425038354e-13
8.115,0.0049052535271608,77.50000000001408,0,60,1.0,6,3.3136369465329847e-13
8.12,0.0027671663551903634,77.50000000000819,0,60,1.0,6,1.9259887802250245e-13
8.125,0.0015425553464444616,77.50000000000472,0,60,1.0,6,1.1101185330463683e-13
8.13,0.0009638206637011801,77.50000000000271,0,60,1.0,6,6.386525295537842e-14
8.135,0.0009804935156568228,77.50000000000155,0,60,1.0,6,3.644666268134161e-14
8.14,0.0018793744894085216,77.50000000000088,0,60,1.0,6,2.0731129231588804e-14
8.145,0.004535525206900863,77.5000000000005,0,60,1.0,6,1.1703056824284003e-14
8.15,0.010832767979632273,77.50000000000028,0,60,1.0,6,6.687461042448002e-15
8.155,0.024208003392322392,77.50000000000016,0,60,1.0,6,3.678103573346401e-15
8.16,0.0500971897335304,77.50000000000009,0,60,1.0,6,2.0062383127344005e-15
8.165,0.09582894921774403,77.50000000000004,0,60,1.0,6,1.0031191563672002e-15
8.17,0.16937896721820658,77.50000000000003,0,60,1.0,6,6.687461042448002e-16
8.175,0.27661303008991756,77.50000000000001,0,60,1.0,6,3.343730521224001e-16
8.18,0.4173782800009149,77.50000000000001,0,60,1.0,6,3.343730521224001e-16
8.185,0.5818720934538056,77.5,0,60,1.0,6,0.0
8.19,0.7494718801585675,77.5,0,60,1.0,6,0.0
8.195,0.891813020752378,77.5,0,60,1.0,6,0.0
8.2,0.9800361632936612,77.5,0,60,1.0,6,0.0
8.205,0.993574479225126,77.50000249065474,1,60,1.0,6,5.860364086295115e-08
8.21,0.9263438449375362,77.50000381481783,0,60,1.0,6,8.976041954156244e-08
8.215,0.7873015962290536,77.50000596523532,0,60,1.0,6,1.4035847805323155e-07
8.22,0.5959516244629897,77.50000962503476,0,60,1.0,6,2.2647140620874244e-07
8.225,0.376910120078773,77.50001618917643,0,60,1.0,6,3.809217984700594e-07
8.23,0.15739335672107918,77.5000285614158,0,60,1.0,6,6.720333130140395e-07
8.235,-0.033361226269301235,77.50005280883279,0,60,1.0,6,1.2425607715559796e-06
8.24,-0.1680180840843834,77.50010151190543,0,60,1.0,6,2.388515421818524e-06
8.245,-0.23069703190837854,77.50020036214238,0,60,1.0,6,4.714403350108649e-06
8.25,-0.22587267821131068,77.50040077561245,0,60,1.0,6,9.430014410541202e-06
8.255,-0.17718181630665902,77.50080326727193,0,60,1.0,6,1.8900406398442475e-05
8.26,-0.11494332516451301,77.50159937912407,0,60,1.0,6,3.763244997819182e-05
8.265,-0.061810214049552864,77.50314438198903,0,60,1.0,6,7.398545856544308e-05
8.27,-0.026546104631500547,77.5060789517361,0,60,1.0,6,0.00014303415849647481
8.275,-0.00719600351942686,77.5115253796782,0,60,1.0,6,0.00027118540419304043
8.28,0.0022072757983807078,77.5213917627598,0,60,1.0,6,0.0005033355943483537
8.285,0.006917199873730717,77.53882411894206,0,60,1.0,6,0.0009135086809896406
8.29,0.01004859748264829,77.56884815932884,0,60,1.0,6,0.0016199566900902884
8.295,0.013037082251128167,77.6192346558676,0,60,1.0,6,0.002805521314531782
8.3,0.01645163937690478,77.70159894500465,0,60,1.0,6,0.004743504588344649
8.305,0.020526639934696615,77.83270008287926,0,60,1.0,6,0.007828237244217797
8.31,0.02539629541761738,78.03583465142736,0,60,1.0,6,0.012607874151232115
8.315,0.031171612185577933,78.34212553437393,0,60,1.0,6,0.019814718455857288
8.32,0.03795853426638131,78.79139701937089,0,60,1.0,6,0.030385812220491543
8.325,0.0458588961882057,79.43222533468237,0,60,1.0,6,0.045464125521938153
8.33,0.054966995891435555,80.32069048739088,0,60,1.0,6,0.06636918793860887
8.335,0.06536491004445595,81.5173707975343,0,60,1.0,6,0.09452637170668936
8.34,0.07711726085088699,83.08225427174436,0,60,1.0,6,0.13134715933516145
8.345,0.09026570629555215,85.06751487992965,0,60,1.0,6,0.17805917364540344
8.35,0.10482339848670268,87.50851138218808,0,60,1.0,6,0.23549438546324883
8.355,0.12076968927580028,90.41386466435996,0,60,1.0,6,0.3038556391614109
8.36,0.13804539501007884,93.75596504105044,0,60,1.0,6,0.38249329508353985
8.365,0.15654895051787066,97.4636280918179,0,60,1.0,6,0.4697324256898328
8.37,0.17613378141900526,101.41872257270964,0,60,1.0,6,0.5627934722990504
8.375,0.19660720058055794,105.45833242352343,0,60,1.0,6,0.6578431158476101
8.38,0.21773108748496234,109.38335163215552,0,60,1.0,6,0.7501965089918947
8.385,0.23922453870058807,112.9734084393601,0,60,1.0,6,0.8346684338672965
8.39,0.2607685857914563,116.00683982528938,0,60,1.0,6,0.9060432900068088
8.395,0.2820129681603682,118.28333120453613,0,60,1.0,6,0.9596077930479089
8.4,0.30258482867153996,119.646064803065,0,60,1.0,6,0.9916721130132942
8.405,0.3220990771751686,120.0,0,60,1.0,6,1.0
8.41,0.3401700499968971,119.32334270778719,0,60,1.0,6,0.9840786519479339
8.415,0.3564239911198326,117.6702984466819,0,60,1.0,6,0.9451834928631034
8.42,0.3705118017738417,115.1646448291192,0,60,1.0,6,0.8862269371557459
8.425,0.3821214567925213,111.9851997850634,0,60,1.0,6,0.8114164655309035
8.43,0.39098947374066967,108.34557221481842,0,60,1.0,6,0.7257781697604334
8.435,0.3969108472035567,104.47139174943496,0,60,1.0,7,0.634620982339646
8.44,0.3997469255491936,100.57838099842344,0,60,1.0,7,0.5430207293746692
8.445,0.3994308076379137,96.85417087272945,0,60,1.0,7,0.45539225582892834
8.45,0.3959699661768434,93.44582268957237,0,60,1.0,7,0.37519582798993806
8.455,0.38944595408114946,90.45385471397468,0,60,1.0,7,0.30479658150528655
8.46,0.38001120995358023,87.93243962502166,0,60,1.0,7,0.24546916764756843
8.465,0.3678831374098315,85.89455992933536,0,60,1.0,7,0.19751905716083196
8.47,0.35333577933796634,84.32040601189054,0,60,1.0,7,0.160480141456248
8.475,0.33668953221163944,83.16719725117376,0,60,1.0,7,0.13334581767467674
8.48,0.3182994390982644,82.37883285219493,0,60,1.0,7,0.114796067110469
8.485,0.29854265738230645,81.89421459224894,0,60,1.0,7,0.10339328452350455
8.49,0.2778057157821067,81.65359406235096,0,60,1.0,7,0.09773162499649321
8.495,0.2564721553719815,81.60276811068044,0,60,1.0,7,0.09653572025130455
8.5,0.23491109433464996,81.6953041114732,0,60,1.0,7,0.0987130379170166
8.505,0.21346717185309805,81.89319219750705,0,60,1.0,7,0.10336922817663642
8.51,0.19245222055656455,82.16640283127366,0,60,1.0,7,0.10979771367702724
8.515,0.17213889801761392,82.49180664386697,0,60,1.0,7,0.11745427397334036
8.52,0.15275638501270183,82.85182970057085,0,60,1.0,7,0.12592540471931402
8.525,0.13448814019607322,83.23310877819486,0,60,1.0,7,0.13489667713399672
8.53,0.11747159495449566,83.62530580186197,0,60,1.0,7,0.14412484239675222
8.535,0.10179958433370105,84.02015461343919,0,60,1.0,7,0.15341540266915737
8.54,0.08752324394101413,84.41075278688982,0,60,1.0,7,0.1626059479268192
8.545,0.07465606047174059,84.79107511020709,0,60,1.0,7,0.17155470847546092
8.55,0.0631787448609295,85.15566858139451,0,60,1.0,7,0.18013337838575313
8.555,0.05304460019959574,85.49948511358731,0,60,1.0,7,0.18822317914323086
8.56,0.044185078305849994,85.81781198508382,0,60,1.0,7,0.19571322317844286
8.565,0.03651525513023255,86.1062671685372,0,60,1.0,7,0.2025004039655812
8.57,0.0299390014708757,86.36083432317702,0,60,1.0,7,0.20849021936887097
8.575,0.024353677220580638,86.57791901100559,0,60,1.0,7,0.21359809437660213
8.58,0.01965423034339045,86.75441307651025,0,60,1.0,7,0.21775089591788815
8.585,0.015736632374757337,86.88775811124916,0,60,1.0,7,0.22088842614703896
8.59,0.012500627640593535,86.97600175641713,0,60,1.0,7,0.2229647472098149
8.595,0.009851811652115898,87.017842589161,0,60,1.0,7,0.2239492373920237
8.6,0.007703084175428559,87.012660771883,0,60,1.0,7,0.22382731227960015
8.605,0.005975544002062424,86.96053273007563,0,60,1.0,7,0.22260077011942653
8.61,0.004598905818663047,86.86222900437889,0,60,1.0,7,0.2202877412795033
8.615,0.0035115256454839104,86.719195178689,0,60,1.0,7,0.21692223949856484
8.62,0.002660121266303676,86.53351645798008,0,60,1.0,7,0.21255332842306082
8.625,0.0019992692560877024,86.30786706938648,0,60,1.0,7,0.20724393104438765
8.63,0.0014907520044639367,86.04544618487417,0,60,1.0,7,0.2010693219970392
8.635,0.0011028178277539807,85.74990250322291,0,60,1.0,7,0.19411535301700972
8.64,0.0008094059938923333,85.42524997119911,0,60,1.0,7,0.18647646991056724
8.645,0.0005893771793717645,85.0757773587906,0,60,1.0,7,0.17825358491272006
8.65,0.0004257792353490551,84.70595452519278,0,60,1.0,7,0.1695518711810066
8.655,0.0003051686392901525,84.32033821979824,0,60,1.0,7,0.160478546348194
8.66,0.00021699992642659966,83.92348015988665,0,60,1.0,7,0.1511407096443918
8.665,0.00015308884054097838,83.51983992315786,0,60,1.0,7,0.1416432923095967
8.67,0.00010714989329311098,83.11370490220835,0,60,1.0,7,0.13208717416960833
8.675,7.440535854020571e-05,82.70911920653026,0,60,1.0,7,0.12256751074188849
8.68,5.1260276743925106e-05,82.30982298507394,0,60,1.0,7,0.11317230553115143
8.685,3.503659887882241e-05,81.91920319962112,0,60,1.0,7,0.10398125175579112
8.69,2.375894748103639e-05,81.5402564270607,0,60,1.0,7,0.09506485710731052
8.695,1.5984413869232557e-05,81.1755638270808,0,60,1.0,7,0.0864838547548422
8.7,1.0669166579899869e-05,80.82727799879292,0,60,1.0,7,0.07828889408924523
8.705,7.06526633560511e-06,80.49712108066727,0,60,1.0,7,0.07052049601570047
8.71,4.641847214699205e-06,80.18639313486506,0,60,1.0,7,0.06320925023211899
8.715,3.025641074479182e-06,79.89598960793784,0,60,1.0,7,0.05637622606912554
8.72,1.9566278676921314e-06,79.6264264795071,0,60,1.0,7,0.050033564223696536
8.725,1.2553456560008793e-06,79.37787159987418,0,60,1.0,7,0.04418521411468666
8.73,7.990660428214668e-07,79.15018067413585,0,60,1.0,7,0.03882778056790244
8.735,5.046221251618276e-07,78.94293636900822,0,60,1.0,7,0.03395144397666406
8.74,3.1616527078858815e-07,78.75548909159917,0,60,1.0,7,0.029540919802333494
8.745,1.9652884407760343e-07,78.58699810755667,0,60,1.0,7,0.025576426060156872
8.75,1.2120002189836396e-07,78.43647181909245,0,60,1.0,7,0.022034631037469325
8.755,7.415549848886236e-08,78.30280620070539,0,60,1.0,7,0.018889557663656246
8.76,4.501406988770349e-08,78.18482058158935,0,60,1.0,7,0.01611342544916116
8.765,0.0,78.08129015900583,0,60,1.0,7,0.01367741550601957
8.77,0.0,77.99097481773615,0,60,1.0,7,0.011552348652615178
8.775,0.0,77.91264400989799,0,60,1.0,7,0.00970927082112914
8.78,0.0,77.84509761126496,0,60,1.0,7,0.008119943794469679
8.785,0.0,77.7871828107303,0,60,1.0,7,0.00675724260541883
8.79,0.0,77.73780720624384,0,60,1.0,7,0.005595463676325728
8.795,0.0,77.69594837242065,0,60,1.0,7,0.004610549939309294
8.8,0.0,77.66066023234221,0,60,1.0,7,0.0037802407609931646
8.805,0.0,77.63107661018051,0,60,1.0,7,0.00308415553365916
8.81,0.0,77.60641236432045,0,60,1.0,7,0.0025038203369517225
8.815,0.0,77.58596250536276,0,60,1.0,7,0.002022647185006075
8.82,0.0,77.56909969282334,0,60,1.0,7,0.0016258751252551332
8.825,0.0,77.55527048169948,0,60,1.0,7,0.0013004819223407166
8.83,0.0,77.54399065849753,0,60,1.0,7,0.0010350743175890516
8.835,0.0,77.53483996875943,0,60,1.0,7,0.0008197639708100724
8.84,0.0,77.52745649724005,0,60,1.0,7,0.0006460352291777086
