Time,ECG,Pressure,R_Peaks,mean_hr,hrv_scale,Phase_Bin,Normalized_Pressure
0.0,0.001684486749771458,77.5,0,60,1.0,0,0.0
0.005,0.003097557930867117,77.5,0,60,1.0,0,0.0
0.01,0.005475106668887023,77.5,0,60,1.0,0,0.0
0.015,0.00930222931468658,77.5,0,60,1.0,0,0.0
0.02,0.01519157517868857,77.5,0,60,1.0,0,0.0
0.025,0.023847336626128316,77.5,0,60,1.0,0,0.0
0.03,0.0359830743700859,77.5,0,60,1.0,0,0.0
0.035,0.05218887796857759,77.5,0,60,1.0,0,0.0
0.04,0.0727577001223134,77.5,0,60,1.0,0,0.0
0.045,0.0974992498694751,77.5,0,60,1.0,0,0.0
0.05,0.12558706050443358,77.5,0,60,1.0,0,0.0
0.055,0.15549263588878245,77.5,0,60,1.0,0,0.0
0.06,0.1850529723539114,77.5,0,60,1.0,0,0.0
0.065,0.21169159439317053,77.5,0,60,1.0,0,0.0
0.07,0.23277292922115492,77.5,0,60,1.0,0,0.0
0.075,0.24602692519491282,77.5,0,60,1.0,0,0.0
0.08,0.24995056064839283,77.5,0,60,1.0,0,0.0
0.085,0.24408826520424054,77.5,0,60,1.0,0,0.0
0.09,0.22911894216865275,77.5,0,60,1.0,0,0.0
0.095,0.20672661788705934,77.5,0,60,1.0,0,0.0
0.1,0.17928878030241233,77.5,0,60,1.0,0,0.0
0.105,0.14946211903866036,77.5,0,60,1.0,0,0.0
0.11,0.1197651512573837,77.5,0,60,1.0,0,0.0
0.115,0.09224675744988023,77.5,0,60,1.0,0,0.0
0.12,0.06829565320281596,77.5,0,60,1.0,0,0.0
0.125,0.04860224607515734,77.5,0,60,1.0,0,0.0
0.13,0.03324612389699793,77.5,0,60,1.0,0,0.0
0.135,0.021859876340472782,77.5,0,60,1.0,0,0.0
0.14,0.01381595518554205,77.5,0,60,1.0,0,0.0
0.145,0.008394095110402422,77.5,0,60,1.0,0,0.0
0.15,0.0049052535271608,77.5,0,60,1.0,0,0.0
0.155,0.0027671663551903634,77.5,0,60,1.0,0,0.0
0.16,0.0015425553464444616,77.5,0,60,1.0,0,0.0
0.165,0.0009638206637011801,77.5,0,60,1.0,0,0.0
0.17,0.0009804935156568228,77.5,0,60,1.0,0,0.0
0.175,0.0018793744894085216,77.5,0,60,1.0,0,0.0
0.18,0.004535525206900863,77.5,0,60,1.0,0,0.0
0.185,0.010832767979632273,77.5,0,60,1.0,0,0.0
0.19,0.024208003392322392,77.5,0,60,1.0,0,0.0
0.195,0.0500971897335304,77.5,0,60,1.0,0,0.0
0.2,0.09582894921774403,77.5,0,60,1.0,0,0.0
0.205,0.16937896721820658,77.5,0,60,1.0,0,0.0
0.21,0.27661303008991756,77.5,0,60,1.0,0,0.0
0.215,0.4173782800009149,77.5,0,60,1.0,0,0.0
0.22,0.5818720934538056,77.5,0,60,1.0,0,0.0
0.225,0.7494718801585675,77.5,0,60,1.0,0,0.0
0.23,0.891813020752378,77.5,0,60,1.0,0,0.0
0.235,0.9800361632936612,77.5,0,60,1.0,0,0.0
0.24,0.993574479225126,77.5,0,60,1.0,0,0.0
0.245,0.9263438449375362,77.5,0,60,1.0,0,0.0
0.25,0.7873015962290536,77.5,0,60,1.0,0,0.0
0.255,0.5959516244629897,77.5,0,60,1.0,0,0.0
0.26,0.376910120078773,77.5,0,60,1.0,0,0.0
0.265,0.15739335672107918,77.5,0,60,1.0,0,0.0
0.27,-0.033361226269301235,77.5,0,60,1.0,0,0.0
0.275,-0.1680180840843834,77.5,0,60,1.0,0,0.0
0.28,-0.23069703190837854,77.5,0,60,1.0,0,0.0
0.285,-0.22587267821131068,77.5,0,60,1.0,0,0.0
0.29,-0.17718181630665902,77.5,0,60,1.0,0,0.0
0.295,-0.11494332516451301,77.5,0,60,1.0,0,0.0
0.3,-0.061810214049552864,77.5,0,60,1.0,0,0.0
0.305,-0.026546104631500547,77.5,0,60,1.0,0,0.0
0.31,-0.00719600351942686,77.5,0,60,1.0,0,0.0
0.315,0.0022072757983807078,77.5,0,60,1.0,0,0.0
0.32,0.006917199873730717,77.5,0,60,1.0,0,0.0
0.325,0.01004859748264829,77.5,0,60,1.0,0,0.0
0.33,0.013037082251128167,77.5,0,60,1.0,0,0.0
0.335,0.01645163937690478,77.5,0,60,1.0,0,0.0
0.34,0.020526639934696615,77.5,0,60,1.0,0,0.0
0.345,0.02539629541761738,77.5,0,60,1.0,0,0.0
0.35,0.031171612185577933,77.5,0,60,1.0,0,0.0
0.355,0.03795853426638131,77.5,0,60,1.0,0,0.0
0.36,0.0458588961882057,77.5,0,60,1.0,0,0.0
0.365,0.054966995891435555,77.5,0,60,1.0,0,0.0
0.37,0.06536491004445595,77.5,0,60,1.0,0,0.0
0.375,0.07711726085088699,77.5,0,60,1.0,0,0.0
0.38,0.09026570629555215,77.5,0,60,1.0,0,0.0
0.385,0.10482339848670268,77.5,0,60,1.0,0,0.0
0.39,0.12076968927580028,77.5,0,60,1.0,0,0.0
0.395,0.13804539501007884,77.5,0,60,1.0,0,0.0
0.4,0.15654895051787066,77.5,0,60,1.0,0,0.0
0.405,0.17613378141900526,77.5,0,60,1.0,0,0.0
0.41,0.19660720058055794,77.5,0,60,1.0,0,0.0
0.415,0.21773108748496234,77.5,0,60,1.0,0,0.0
0.42,0.23922453870058807,77.5,0,60,1.0,0,0.0
0.425,0.2607685857914563,77.5,0,60,1.0,0,0.0
0.43,0.2820129681603682,77.5,0,60,1.0,0,0.0
0.435,0.30258482867153996,77.5,0,60,1.0,0,0.0
0.44,0.3220990771751686,77.5,0,60,1.0,0,0.0
0.445,0.3401700499968971,77.5,0,60,1.0,0,0.0
0.45,0.3564239911198326,77.5,0,60,1.0,0,0.0
0.455,0.3705118017738417,77.5,0,60,1.0,0,0.0
0.46,0.3821214567925213,77.5,0,60,1.0,0,0.0
0.465,0.39098947374066967,77.5,0,60,1.0,0,0.0
0.47,0.3969108472035567,77.5,0,60,1.0,0,0.0
0.475,0.3997469255491936,77.5,0,60,1.0,0,0.0
0.48,0.3994308076379137,77.5,0,60,1.0,0,0.0
0.485,0.3959699661768434,77.5,0,60,1.0,0,0.0
0.49,0.38944595408114946,77.5,0,60,1.0,0,0.0
0.495,0.38001120995358023,77.5,0,60,1.0,0,0.0
0.5,0.3678831374098315,77.5,0,60,1.0,0,0.0
0.505,0.35333577933796634,77.5,0,60,1.0,0,0.0
0.51,0.33668953221163944,77.5,0,60,1.0,0,0.0
0.515,0.3182994390982644,77.5,0,60,1.0,0,0.0
0.52,0.29854265738230645,77.5,0,60,1.0,0,0.0
0.525,0.2778057157821067,77.5,0,60,1.0,0,0.0
0.53,0.2564721553719815,77.5,0,60,1.0,0,0.0
0.535,0.23491109433464996,77.5,0,60,1.0,0,0.0
0.54,0.21346717185309805,77.5,0,60,1.0,0,0.0
0.545,0.19245222055656455,77.5,0,60,1.0,0,0.0
0.55,0.17213889801761392,77.5,0,60,1.0,0,0.0
0.555,0.15275638501270183,77.5,0,60,1.0,0,0.0
0.56,0.13448814019607322,77.5,0,60,1.0,0,0.0
0.565,0.11747159495449566,77.5,0,60,1.0,0,0.0
0.57,0.10179958433370105,77.5,0,60,1.0,0,0.0
0.575,0.08752324394101413,77.5,0,60,1.0,0,0.0
0.58,0.07465606047174059,77.5,0,60,1.0,0,0.0
0.585,0.0631787448609295,77.5,0,60,1.0,0,0.0
0.59,0.05304460019959574,77.5,0,60,1.0,0,0.0
0.595,0.044185078305849994,77.5,0,60,1.0,0,0.0
0.6,0.03651525513023255,77.5,0,60,1.0,0,0.0
0.605,0.0299390014708757,77.5,0,60,1.0,0,0.0
0.61,0.024353677220580638,77.5,0,60,1.0,0,0.0
0.615,0.01965423034339045,77.5,0,60,1.0,0,0.0
0.62,0.015736632374757337,77.5,0,60,1.0,0,0.0
0.625,0.012500627640593535,77.5,0,60,1.0,0,0.0
0.63,0.009851811652115898,77.5,0,60,1.0,0,0.0
0.635,0.007703084175428559,77.5,0,60,1.0,0,0.0
0.64,0.005975544002062424,77.5,0,60,1.0,0,0.0
0.645,0.004598905818663047,77.5,0,60,1.0,0,0.0
0.65,0.0035115256454839104,77.5,0,60,1.0,0,0.0
0.655,0.002660121266303676,77.5,0,60,1.0,0,0.0
0.66,0.0019992692560877024,77.5,0,60,1.0,0,0.0
0.665,0.0014907520044639367,77.5,0,60,1.0,0,0.0
0.67,0.0011028178277539807,77.5,0,60,1.0,0,0.0
0.675,0.0008094059938923333,77.5,0,60,1.0,0,0.0
0.68,0.0005893771793717645,77.5,0,60,1.0,0,0.0
0.685,0.0004257792353490551,77.5,0,60,1.0,0,0.0
0.69,0.0003051686392901525,77.5,0,60,1.0,0,0.0
0.695,0.00021699992642659966,77.5,0,60,1.0,0,0.0
0.7,0.00015308884054097838,77.5,0,60,1.0,0,0.0
0.705,0.00010714989329311098,77.5,0,60,1.0,0,0.0
0.71,7.440535854020571e-05,77.5,0,60,1.0,0,0.0
0.715,5.1260276743925106e-05,77.5,0,60,1.0,0,0.0
0.72,3.503659887882241e-05,77.5,0,60,1.0,0,0.0
0.725,2.375894748103639e-05,77.5,0,60,1.0,0,0.0
0.73,1.5984413869232557e-05,77.5,0,60,1.0,0,0.0
0.735,1.0669166579899869e-05,77.5,0,60,1.0,0,0.0
0.74,7.06526633560511e-06,77.5,0,60,1.0,0,0.0
0.745,4.641847214699205e-06,77.5,0,60,1.0,0,0.0
0.75,3.025641074479182e-06,77.5,0,60,1.0,0,0.0
0.755,1.9566278676921314e-06,77.5,0,60,1.0,0,0.0
0.76,1.2553456560008793e-06,77.5,0,60,1.0,0,0.0
0.765,7.990660428214668e-07,77.5,0,60,1.0,0,0.0
0.77,5.046221251618276e-07,77.5,0,60,1.0,0,0.0
0.775,3.1616527078858815e-07,77.5,0,60,1.0,0,0.0
0.78,1.9652884407760343e-07,77.5,0,60,1.0,0,0.0
0.785,1.2120002189836396e-07,77.5,0,60,1.0,0,0.0
0.79,7.415549848886236e-08,77.5,0,60,1.0,0,0.0
0.795,4.501406988770349e-08,77.5,0,60,1.0,0,0.0
0.8,0.0,77.5,0,60,1.0,0,0.0
0.805,0.0,77.5,0,60,1.0,0,0.0
0.81,0.0,77.5,0,60,1.0,0,0.0
0.815,0.0,77.5,0,60,1.0,0,0.0
0.82,0.0,77.5,0,60,1.0,0,0.0
0.825,0.0,77.5,0,60,1.0,0,0.0
0.83,0.0,77.5,0,60,1.0,0,0.0
0.835,0.0,77.5,0,60,1.0,0,0.0
0.84,0.0,77.5,0,60,1.0,0,0.0
0.845,0.0,77.5,0,60,1.0,0,0.0
0.85,0.0,77.5,0,60,1.0,0,0.0
0.855,0.0,77.5,0,60,1.0,0,0.0
0.86,0.0,77.5,0,60,1.0,0,0.0
0.865,0.0,77.5,0,60,1.0,0,0.0
0.87,0.0,77.5,0,60,1.0,0,0.0
0.875,0.0,77.5,0,60,1.0,0,0.0
0.88,0.0,77.5,0,60,1.0,0,0.0
0.885,0.0,77.5,0,60,1.0,0,0.0
0.89,0.0,77.5,0,60,1.0,0,0.0
0.895,0.0,77.5,0,60,1.0,0,0.0
0.9,0.0,77.5,0,60,1.0,0,0.0
0.905,0.0,77.5,0,60,1.0,0,0.0
0.91,0.0,77.5,0,60,1.0,0,0.0
0.915,0.0,77.5,0,60,1.0,0,0.0
0.92,0.0,77.5,0,60,1.0,0,0.0
0.925,0.0,77.5,0,60,1.0,0,0.0
0.93,0.0,77.5,0,60,1.0,0,0.0
0.935,0.0,77.5,0,60,1.0,0,0.0
0.94,0.0,77.5,0,60,1.0,0,0.0
0.945,0.0,77.5,0,60,1.0,0,0.0
0.95,0.0,77.5,0,60,1.0,0,0.0
0.955,0.0,77.5,0,60,1.0,0,0.0
0.96,0.0,77.5,0,60,1.0,0,0.0
0.965,0.0,77.5,0,60,1.0,0,0.0
0.97,0.0,77.5,0,60,1.0,0,0.0
0.975,0.0,77.5,0,60,1.0,0,0.0
0.98,0.0,77.5,0,60,1.0,0,0.0
0.985,0.0,77.5,0,60,1.0,0,0.0
0.99,0.0,77.5,0,60,1.0,0,0.0
0.995,0.0,77.5,0,60,1.0,0,0.0
1.0,0.0,77.5,0,60,1.0,0,0.0
1.005,0.0,77.5,0,60,1.0,0,0.0
1.01,0.0,77.5,0,60,1.0,0,0.0
1.015,0.0,77.5,0,60,1.0,0,0.0
1.02,0.0,77.5,0,60,1.0,0,0.0
1.025,0.0,77.5,0,60,1.0,0,0.0
1.03,0.001684486749771458,77.5,0,60,1.0,0,0.0
1.035,0.003097557930867117,77.5,0,60,1.0,0,0.0
1.04,0.005475106668887023,77.5,0,60,1.0,0,0.0
1.045,0.00930222931468658,77.5,0,60,1.0,0,0.0
1.05,0.01519157517868857,77.5,0,60,1.0,0,0.0
1.055,0.023847336626128316,77.5,0,60,1.0,0,0.0
1.06,0.0359830743700859,77.5,0,60,1.0,0,0.0
1.065,0.05218887796857759,77.5,0,60,1.0,0,0.0
1.07,0.0727577001223134,77.5,0,60,1.0,0,0.0
1.075,0.0974992498694751,77.5,0,60,1.0,0,0.0
1.08,0.12558706050443358,77.5,0,60,1.0,0,0.0
1.085,0.15549263588878245,77.5,0,60,1.0,0,0.0
1.09,0.1850529723539114,77.5,0,60,1.0,0,0.0
1.095,0.21169159439317053,77.5,0,60,1.0,0,0.0
1.1,0.23277292922115492,77.5,0,60,1.0,0,0.0
1.105,0.24602692519491282,77.5,0,60,1.0,0,0.0
1.11,0.24995056064839283,77.5,0,60,1.0,0,0.0
1.115,0.24408826520424054,77.5,0,60,1.0,0,0.0
1.12,0.22911894216865275,77.5,0,60,1.0,0,0.0
1.125,0.20672661788705934,77.5,0,60,1.0,0,0.0
1.13,0.17928878030241233,77.5,0,60,1.0,0,0.0
1.135,0.14946211903866036,77.5,0,60,1.0,0,0.0
1.14,0.1197651512573837,77.5,0,60,1.0,0,0.0
1.145,0.09224675744988023,77.5,0,60,1.0,0,0.0
1.15,0.06829565320281596,77.5,0,60,1.0,0,0.0
1.155,0.04860224607515734,77.5,0,60,1.0,0,0.0
1.16,0.03324612389699793,77.5,0,60,1.0,0,0.0
1.165,0.021859876340472782,77.5,0,60,1.0,0,0.0
1.17,0.01381595518554205,77.5,0,60,1.0,0,0.0
1.175,0.008394095110402422,77.5,0,60,1.0,0,0.0
1.18,0.0049052535271608,77.5,0,60,1.0,0,0.0
1.185,0.0027671663551903634,77.5,0,60,1.0,0,0.0
1.19,0.0015425553464444616,77.5,0,60,1.0,0,0.0
1.195,0.0009638206637011801,77.5,0,60,1.0,0,0.0
1.2,0.0009804935156568228,77.5,0,60,1.0,0,0.0
1.205,0.0018793744894085216,77.5,0,60,1.0,1,0.0
1.21,0.004535525206900863,77.5,0,60,1.0,1,0.0
1.215,0.010832767979632273,77.5,0,60,1.0,1,0.0
1.22,0.024208003392322392,77.5,0,60,1.0,1,0.0
1.225,0.0500971897335304,77.5,0,60,1.0,1,0.0
1.23,0.09582894921774403,77.5,0,60,1.0,1,0.0
1.235,0.16937896721820658,77.5,0,60,1.0,1,0.0
1.24,0.27661303008991756,77.5,0,60,1.0,1,0.0
1.245,0.4173782800009149,77.5,0,60,1.0,1,0.0
1.25,0.5818720934538056,77.5,0,60,1.0,1,0.0
1.255,0.7494718801585675,77.5,0,60,1.0,1,0.0
1.26,0.891813020752378,77.5,0,60,1.0,1,0.0
1.265,0.9800361632936612,77.5,0,60,1.0,1,0.0
1.27,0.993574479225126,77.50000249158927,1,60,1.0,1,5.8625629903604824e-08
1.275,0.9263438449375362,77.50000379993156,0,60,1.0,1,8.941015440701877e-08
1.28,0.7873015962290536,77.50000591356006,0,60,1.0,1,1.3914258963321865e-07
1.285,0.5959516244629897,77.50000948821413,0,60,1.0,1,2.232520972377054e-07
1.29,0.376910120078773,77.50001585275675,0,60,1.0,1,3.730060410923804e-07
1.295,0.15739335672107918,77.50002775258693,0,60,1.0,1,6.530020454299708e-07
1.3,-0.033361226269301235,77.50005088320476,0,60,1.0,1,1.1972518768074865e-06
1.305,-0.1680180840843834,77.50009697753961,0,60,1.0,1,2.2818244614801885e-06
1.31,-0.23069703190837854,77.50018985514251,0,60,1.0,1,4.4671798237312244e-06
1.315,-0.22587267821131068,77.50037693597443,0,60,1.0,1,8.86908175128637e-06
1.32,-0.17718181630665902,77.5007504971461,0,60,1.0,1,1.7658756378830946e-05
1.325,-0.11494332516451301,77.50148568815435,0,60,1.0,1,3.495736833756649e-05
1.33,-0.061810214049552864,77.5029063011008,0,60,1.0,1,6.838355531278787e-05
1.335,-0.026546104631500547,77.50559469328022,0,60,1.0,1,0.0001316398418874301
1.34,-0.00719600351942686,77.51056896157553,0,60,1.0,1,0.00024868144883598953
1.345,0.0022072757983807078,77.51955777873579,0,60,1.0,1,0.00046018302907735713
1.35,0.006917199873730717,77.53540961162948,0,60,1.0,1,0.0008331673324582479
1.355,0.01004859748264829,77.56267550080591,0,60,1.0,1,0.0014747176660213936
1.36,0.013037082251128167,77.60839895060144,0,60,1.0,1,0.0025505635435633047
1.365,0.01645163937690478,77.68312739222574,0,60,1.0,1,0.004308879817076291
1.37,0.020526639934696615,77.80212156747965,0,60,1.0,1,0.007108742764226944
1.375,0.02539629541761738,77.98667804053113,0,60,1.0,1,0.011451248012497217
1.38,0.031171612185577933,78.2653960540608,0,60,1.0,1,0.018009318919077675
1.385,0.03795853426638131,78.67512045415272,0,60,1.0,1,0.0276498930388875
1.39,0.0458588961882057,79.26119444970924,0,60,1.0,1,0.04143986940492322
1.395,0.054966995891435555,80.07658695093733,0,60,1.0,1,0.060625575316172374
1.4,0.06536491004445595,81.17945433275491,0,60,1.0,1,0.08657539606482152
1.405,0.07711726085088699,82.62879178438199,0,60,1.0,1,0.12067745375016443
1.41,0.09026570629555215,84.47805091356526,0,60,1.0,1,0.16418943326035895
1.415,0.10482339848670268,86.76695055985479,0,60,1.0,1,0.2180458955259951
1.42,0.12076968927580028,89.51215426574176,0,60,1.0,1,0.28263892389980605
1.425,0.13804539501007884,92.69795756330784,0,60,1.0,1,0.35759900148959617
1.43,0.15654895051787066,96.26851367759303,0,60,1.0,1,0.44161208653160083
1.435,0.17613378141900526,100.12330495994888,0,60,1.0,1,0.5323130578811501
1.44,0.19660720058055794,104.11743307542135,0,60,1.0,1,0.6262925429510905
1.445,0.21773108748496234,108.0677995687299,0,60,1.0,1,0.7192423427936446
1.45,0.23922453870058807,111.76540786080702,0,60,1.0,1,0.806244890842518
1.455,0.2607685857914563,114.99296001198383,0,60,1.0,1,0.8821872943996194
1.46,0.2820129681603682,117.54584870617109,0,60,1.0,1,0.9422552636746138
1.465,0.30258482867153996,119.2537975193284,0,60,1.0,1,0.9824422945724329
1.47,0.3220990771751686,120.0,0,60,1.0,1,1.0
1.475,0.3401700499968971,119.73478616852705,0,60,1.0,1,0.9937596745535777
1.48,0.3564239911198326,118.48161074436288,0,60,1.0,1,0.964273193985009
1.485,0.3705118017738417,116.33437700317083,0,60,1.0,1,0.9137500471334312
1.49,0.3821214567925213,113.44653664567393,0,60,1.0,1,0.8458008622511513
1.495,0.39098947374066967,110.0137397798626,0,60,1.0,1,0.7650291712908848
1.5,0.3969108472035567,106.25277411123389,0,60,1.0,1,0.6765358614407975
1.505,0.3997469255491936,102.379945660435,0,60,1.0,1,0.5854104861278823
1.51,0.3994308076379137,98.59186644889243,0,60,1.0,1,0.4962792105621749
1.515,0.3959699661768434,95.05091722544557,0,60,1.0,1,0.4129627582457782
1.52,0.38944595408114946,91.87663925411117,0,60,1.0,1,0.33827386480261573
1.525,0.38001120995358023,89.14321850764775,0,60,1.0,1,0.2739580825328881
1.53,0.3678831374098315,86.88228150405848,0,60,1.0,1,0.22075956480137607
1.535,0.35333577933796634,85.08958077085171,0,60,1.0,1,0.1785783710788638
1.54,0.33668953221163944,83.73387384780025,0,60,1.0,1,0.1466793846541236
1.545,0.3182994390982644,82.76636774511343,0,60,1.0,1,0.12391453517913947
1.55,0.29854265738230645,82.12942061521238,0,60,1.0,1,0.10892754388735017
1.555,0.2778057157821067,81.76364371168687,0,60,1.0,1,0.10032102851027924
1.56,0.2564721553719815,81.61301314306044,0,60,1.0,1,0.09677677983671629
1.565,0.23491109433464996,81.62799466338542,0,60,1.0,1,0.09712928619730406
1.57,0.21346717185309805,81.76695761370226,0,60,1.0,1,0.10039900267534729
1.575,0.19245222055656455,81.99629623494059,0,60,1.0,1,0.10579520552801382
1.58,0.17213889801761392,82.28970640800449,0,60,1.0,1,0.11269897430598803
1.585,0.15275638501270183,82.62701710307833,0,60,1.0,1,0.12063569654301953
1.59,0.13448814019607322,82.99288504130256,0,60,1.0,1,0.12924435391300135
1.595,0.11747159495449566,83.37555924692441,0,60,1.0,1,0.13824845286880966
1.6,0.10179958433370105,83.76583043233612,0,60,1.0,1,0.14743130429026158
1.605,0.08752324394101413,84.15620940218066,0,60,1.0,1,0.15661669181601562
1.61,0.07465606047174059,84.54033150564439,0,60,1.0,1,0.16565485895633855
1.615,0.0631787448609295,84.91255790226458,0,60,1.0,1,0.1744131271121078
1.62,0.05304460019959574,85.26773383409369,0,60,1.0,1,0.182770207861028
1.625,0.044185078305849994,85.60106363445495,0,60,1.0,1,0.19061326198717518
1.63,0.03651525513023255,85.90806713082313,0,60,1.0,1,0.19783687366642652
1.635,0.0299390014708757,86.18458904516632,0,60,1.0,1,0.2043432716509722
1.64,0.024353677220580638,86.42683991565524,0,60,1.0,1,0.21004329213306439
1.645,0.01965423034339045,86.63145296320879,0,60,1.0,1,0.2148577167813832
1.65,0.015736632374757337,86.79554590696114,0,60,1.0,1,0.218718727222615
1.655,0.012500627640593535,86.91678008455858,0,60,1.0,1,0.22157129610726076
1.66,0.009851811652115898,86.9934116100258,0,60,1.0,1,0.22337439082413652
1.665,0.007703084175428559,87.0243309843258,0,60,1.0,1,0.22410190551354825
1.67,0.005975544002062424,87.00908880101858,0,60,1.0,1,0.2237432659063195
1.675,0.004598905818663047,86.94790613701386,0,60,1.0,1,0.22230367381209082
1.68,0.0035115256454839104,86.84166899981275,0,60,1.0,1,0.21980397646618244
1.685,0.002660121266303676,86.6919068819151,0,60,1.0,1,0.21628016192741417
1.69,0.0019992692560877024,86.50075607951777,0,60,1.0,1,0.21178249598865342
1.695,0.0014907520044639367,86.27090897359844,0,60,1.0,1,0.20637432879055148
1.7,0.0011028178277539807,86.00555094222749,0,60,1.0,1,0.20013061040535263
1.705,0.0008094059938923333,85.7082869635257,0,60,1.0,1,0.19313616384766338
1.71,0.0005893771793717645,85.38306026845892,0,60,1.0,1,0.1854837710225628
1.715,0.0004257792353490551,85.03406560313258,0,60,1.0,1,0.17727213183841353
1.72,0.0003051686392901525,84.66565975665422,0,60,1.0,1,0.16860375898009933
1.725,0.00021699992642659966,84.2822720027081,0,60,1.0,1,0.15958287065195523
1.73,0.00015308884054097838,83.88831699514871,0,60,1.0,1,0.15031334106232266
1.735,0.00010714989329311098,83.48811245900696,0,60,1.0,1,0.14089676374134014
1.74,7.440535854020571e-05,83.0858037409954,0,60,1.0,1,0.13143067625871535
1.745,5.1260276743925106e-05,82.68529694362411,0,60,1.0,1,0.12200698690880259
1.75,3.503659887882241e-05,82.29020198220566,0,60,1.0,1,0.11271063487542726
1.755,2.375894748103639e-05,81.90378649321408,0,60,1.0,1,0.10361850572268436
1.76,1.5984413869232557e-05,81.52894110457248,0,60,1.0,1,0.09479861422523486
1.765,1.0669166579899869e-05,81.16815617144748,0,60,1.0,1,0.08630955697523478
1.77,7.06526633560511e-06,80.82350970120721,0,60,1.0,1,0.07820022826369917
1.775,4.641847214699205e-06,80.49666585205212,0,60,1.0,1,0.07050978475416748
1.78,3.025641074479182e-06,80.18888310217035,0,60,1.0,1,0.06326783769812591
1.785,1.9566278676921314e-06,79.90103095754084,0,60,1.0,1,0.05649484605978447
1.79,1.2553456560008793e-06,79.63361390077021,0,60,1.0,1,0.05020268001812269
1.795,7.990660428214668e-07,79.38680118140502,0,60,1.0,1,0.04439532191541221
1.8,5.046221251618276e-07,79.16046100780952,0,60,1.0,1,0.03906967077198862
1.805,3.1616527078858815e-07,78.95419771716094,0,60,1.0,1,0.034216416874375
1.81,1.9652884407760343e-07,78.76739056652946,0,60,1.0,1,0.029820954506575455
1.815,1.2120002189836396e-07,78.59923289601649,0,60,1.0,1,0.02586430343568208
1.82,7.415549848886236e-08,78.44877055523571,0,60,1.0,1,0.022324013064369676
1.825,4.501406988770349e-08,78.31493864740304,0,60,1.0,1,0.019175026997718572
1.83,0.0,78.19659582148978,0,60,1.0,1,0.01639048991740658
1.835,0.0,78.09255552344018,0,60,1.0,1,0.013942482904474886
1.84,0.0,78.00161379448677,0,60,1.0,1,0.011802677517335818
1.845,0.0,77.92257337147358,0,60,1.0,1,0.009942902858201772
1.85,0.0,77.85426399556034,0,60,1.0,1,0.00833562342494929
1.855,0.0,77.79555896792559,0,60,1.0,1,0.006954328657072625
1.86,0.0,77.74538810172116,0,60,1.0,1,0.005773837687556739
1.865,0.0,77.70274730749595,0,60,1.0,1,0.004770524882257753
1.87,0.0,77.66670511470362,0,60,1.0,1,0.003922473287143943
1.875,0.0,77.63640647582612,0,60,1.0,1,0.003209564137085194
1.88,0.0,77.61107422393171,0,60,1.0,1,0.002613511151334331
1.885,0.0,77.59000856154358,0,60,1.0,1,0.0021178485069078628
1.89,0.0,77.57258495126403,0,60,1.0,1,0.0017078812062125588
1.895,0.0,77.55825075956768,0,60,1.0,1,0.001370606107474928
1.9,0.0,77.54652097741523,0,60,1.0,1,0.001094611233299461
1.905,0.0,77.53697330756953,0,60,1.0,1,0.0008699601781064731
1.91,0.0,77.52924287118194,0,60,1.0,1,0.000688067557222011
1.915,0.0,77.52301674750609,0,60,1.0,1,0.0005415705295550812
1.92,0.0,77.51802852227003,0,60,1.0,1,0.00042420052400068606
1.925,0.0,77.51405298370467,0,60,1.0,1,0.00033065844010994784
1.93,0.0,77.51090107153125,0,60,1.0,1,0.00025649580073531175
1.935,0.0,77.50841515405568,0,60,1.0,1,0.00019800362483960379
1.94,0.0,77.50646468230802,0,60,1.0,1,0.00015211017195343522
1.945,0.0,77.50494224804716,0,60,1.0,1,0.00011628818934488716
1.95,0.0,77.50376005436644,0,60,1.0,1,8.847186744560531e-05
1.955,0.0,77.50284679336629,0,60,1.0,1,6.698337332442647e-05
1.96,0.0,77.50214491457672,0,60,1.0,1,5.046857827571383e-05
1.965,0.0,77.50160826011297,0,60,1.0,1,3.7841414422914834e-05
1.97,0.0,77.50120003749603,0,60,1.0,1,2.823617637726356e-05
1.975,0.0,77.50089109821971,0,60,1.0,1,2.0967016934371393e-05
1.98,0.0,77.50065848907005,0,60,1.0,1,1.5493860471719124e-05
1.985,0.0,77.50048424350034,0,60,1.0,1,1.1393964713841556e-05
1.99,0.0,77.5003543816815,0,60,1.0,1,8.338392505974673e-06
1.995,0.0,77.5002580898728,0,60,1.0,1,6.072702889442178e-06
2.0,0.0,77.50018705223314,0,60,1.0,1,4.401229015162672e-06
2.005,0.0,77.50013491090827,0,60,1.0,1,3.1743743122928316e-06
2.01,0.0,77.5000968330184,0,60,1.0,1,2.2784239624396672e-06
2.015,0.0,77.50006916591201,0,60,1.0,1,1.627433223749155e-06
2.02,0.0,77.50004916465329,0,60,1.0,1,1.1568153715469474e-06
2.025,0.0,77.50003477811896,0,60,1.0,1,8.183086813861497e-07
2.03,0.0,77.50002448225581,0,60,1.0,1,5.760530778870281e-07
2.035,0.0,77.5000171509827,0,60,1.0,1,4.035525341136878e-07
2.04,0.0,77.50001195690616,0,60,1.0,1,2.81338968561078e-07
2.045,0.0,77.50000829546754,0,60,1.0,1,1.9518747147712395e-07
2.05,0.001684486749771458,77.5000057273688,0,60,1.0,1,1.3476161885752363e-07
2.055,0.003097557930867117,77.5000039351534,0,60,1.0,1,9.259184473782678e-08
2.06,0.005475106668887023,77.50000269066989,0,60,1.0,1,6.33098797125593e-08
2.065,0.00930222931468658,77.50000183084427,0,60,1.0,1,4.3078688684224345e-08
2.07,0.01519157517868857,77.50000123975146,0,60,1.0,1,2.917062247701431e-08
2.075,0.023847336626128316,77.50000083543003,0,60,1.0,1,1.96571771566061e-08
2.08,0.0359830743700859,77.50000056024471,0,60,1.0,1,1.3182228579299751e-08
2.085,0.05218887796857759,77.5000003738847,0,60,1.0,1,8.797287123610765e-09
2.09,0.0727577001223134,77.50000024830751,0,60,1.0,1,5.8425297645632836e-09
2.095,0.0974992498694751,77.5000001641097,0,60,1.0,1,3.861404539908536e-09
2.1,0.12558706050443358,77.50000010793714,0,60,1.0,1,2.53969741446353e-09
2.105,0.15549263588878245,77.50000007064799,0,60,1.0,1,1.662305535051821e-09
2.11,0.1850529723539114,77.50000004601726,0,60,1.0,1,1.082759126802557e-09
2.115,0.21169159439317053,77.50000002982868,0,60,1.0,1,7.018513770162827e-10
2.12,0.23277292922115492,77.50000001924154,0,60,1.0,1,4.5274211569288607e-10
2.125,0.24602692519491282,77.500000012352,0,60,1.0,1,2.906353850395295e-10
2.13,0.24995056064839283,77.50000000789092,0,60,1.0,1,1.856686621442136e-10
2.135,0.24408826520424054,77.5000000050166,0,60,1.0,1,1.180376998758327e-10
2.14,0.22911894216865275,77.50000000317384,0,60,1.0,1,7.467854308796471e-11
2.145,0.20672661788705934,77.50000000199826,0,60,1.0,1,4.701786672419129e-11
2.15,0.17928878030241233,77.50000000125202,0,60,1.0,1,2.9459269011139815e-11
2.155,0.14946211903866036,77.50000000078066,0,60,1.0,1,1.8368449245291926e-11
2.16,0.1197651512573837,77.5000000004844,0,60,1.0,1,1.1397774227696251e-11
2.165,0.09224675744988023,77.50000000029911,0,60,1.0,1,7.037884001072277e-12
2.17,0.06829565320281596,77.5000000001838,0,60,1.0,1,4.3247810561511225e-12
2.175,0.04860224607515734,77.50000000011241,0,60,1.0,1,2.6448908422881848e-12
2.18,0.03324612389699793,77.50000000006841,0,60,1.0,1,1.609671872917234e-12
2.185,0.021859876340472782,77.50000000004142,0,60,1.0,1,9.746974469367963e-13
2.19,0.01381595518554205,77.50000000002497,0,60,1.0,1,5.87493452579057e-13
2.195,0.008394095110402422,77.50000000001498,0,60,1.0,1,3.524291969370097e-13
2.2,0.0049052535271608,77.50000000000894,0,60,1.0,1,2.1032064978498967e-13
2.205,0.0027671663551903634,77.50000000000531,0,60,1.0,1,1.2505552149377764e-13
2.21,0.0015425553464444616,77.50000000000314,0,60,1.0,1,7.389644451905042e-14
2.215,0.0009638206637011801,77.50000000000185,0,60,1.0,1,4.346849677591201e-14
2.22,0.0009804935156568228,77.50000000000108,0,60,1.0,1,2.5412351961302408e-14
2.225,0.0018793744894085216,77.50000000000063,0,60,1.0,1,1.4712414293385605e-14
2.23,0.004535525206900863,77.50000000000037,0,60,1.0,1,8.693699355182403e-15
2.235,0.010832767979632273,77.50000000000021,0,60,1.0,1,5.015595781836002e-15
2.24,0.024208003392322392,77.50000000000011,0,60,1.0,1,2.6749844169792007e-15
2.245,0.0500971897335304,77.50000000000007,0,60,1.0,1,1.6718652606120004e-15
2.25,0.09582894921774403,77.50000000000004,0,60,1.0,1,1.0031191563672002e-15
2.255,0.16937896721820658,77.50000000000003,0,60,1.0,1,6.687461042448002e-16
2.26,0.27661303008991756,77.50000000000001,0,60,1.0,1,3.343730521224001e-16
2.265,0.4173782800009149,77.5,0,60,1.0,1,0.0
2.27,0.5818720934538056,77.5,0,60,1.0,1,0.0
2.275,0.7494718801585675,77.5,0,60,1.0,1,0.0
2.28,0.891813020752378,77.5,0,60,1.0,1,0.0
2.285,0.9800361632936612,77.5,0,60,1.0,1,0.0
2.29,0.993574479225126,77.50000249060646,1,60,1.0,1,5.860250499769309e-08
2.295,0.9263438449375362,77.50000385734029,0,60,1.0,1,9.076094797552179e-08
2.3,0.7873015962290536,77.50000610730334,0,60,1.0,1,1.437012549425109e-07
2.305,0.5959516244629897,77.50000999976028,0,60,1.0,1,2.3528847718272813e-07
2.31,0.376910120078773,77.50001711607312,0,60,1.0,1,4.027311323331078e-07
2.315,0.15739335672107918,77.5000308127143,0,60,1.0,1,7.250050423542288e-07
2.32,-0.033361226269301235,77.50005823243188,0,60,1.0,1,1.3701748678292514e-06
2.325,-0.1680180840843834,77.50011443699209,0,60,1.0,1,2.6926351080526407e-06
2.33,-0.23069703190837854,77.50023065316174,0,60,1.0,1,5.427133217327697e-06
2.335,-0.22587267821131068,77.50047021644501,0,60,1.0,1,1.106391635316333e-05
2.34,-0.17718181630665902,77.5009583966,0,60,1.0,1,2.255050823524631e-05
2.345,-0.11494332516451301,77.50193629964134,0,60,1.0,1,4.5559991561022426e-05
2.35,-0.061810214049552864,77.50385483894526,0,60,1.0,1,9.07020928296146e-05
2.355,-0.026546104631500547,77.50753250751332,0,60,1.0,1,0.0001772354709015979
2.36,-0.00719600351942686,77.51440996954433,0,60,1.0,1,0.00033905810692544944
2.365,0.0022072757983807078,77.52694391670826,0,60,1.0,1,0.0006339745107826435
2.37,0.006917199873730717,77.54918926053296,0,60,1.0,1,0.0011573943654813025
2.375,0.01004859748264829,77.5876176648087,0,60,1.0,1,0.0020615921131459745
2.38,0.013037082251128167,77.65220482613245,0,60,1.0,1,0.003581290026645815
2.385,0.01645163937690478,77.7577808422973,0,60,1.0,1,0.006065431583465732
2.39,0.020526639934696615,77.92557045679185,0,60,1.0,1,0.010013422512749311
2.395,0.02539629541761738,78.1847502601857,0,60,1.0,1,0.016111770827898695
2.4,0.031171612185577933,78.57372412531626,0,60,1.0,1,0.02526409706626496
2.405,0.03795853426638131,79.14068530680169,0,60,1.0,1,0.038604360160039666
2.41,0.0458588961882057,79.94292800606925,0,60,1.0,2,0.05748065896633534
2.415,0.054966995891435555,81.0443400664048,0,60,1.0,2,0.08339623685658352
2.42,0.06536491004445595,82.51060356247285,0,60,1.0,2,0.11789655441112593
2.425,0.07711726085088699,84.4018923138275,0,60,1.0,2,0.16239746620770595
2.43,0.09026570629555215,86.76329520888174,0,60,1.0,2,0.2179598872678057
2.435,0.10482339848670268,89.61377301640115,0,60,1.0,2,0.28502995332708597
2.44,0.12076968927580028,92.93507670582724,0,60,1.0,2,0.3631782754312292
2.445,0.13804539501007884,96.66256820647882,0,60,1.0,2,0.45088395779950174
2.45,0.15654895051787066,100.68011755916041,0,60,1.0,2,0.5454145308037743
2.455,0.17613378141900526,104.82105425803283,0,60,1.0,2,0.6428483354831255
2.46,0.19660720058055794,108.8764532668383,0,60,1.0,2,0.7382694886314893
2.465,0.21773108748496234,112.61088723201624,0,60,1.0,2,0.8261385231062645
2.47,0.23922453870058807,115.78436216317712,0,60,1.0,2,0.9008085214865205
2.475,0.2607685857914563,118.1777713622895,0,60,1.0,2,0.9571240320538708
2.48,0.2820129681603682,119.61819191512663,0,60,1.0,2,0.9910162803559207
2.485,0.30258482867153996,120.0,0,60,1.0,2,1.0
2.49,0.3220990771751686,119.29824545748835,0,60,1.0,2,0.9834881284114906
2.495,0.3401700499968971,117.5719546188641,0,60,1.0,2,0.9428695204438611
2.5,0.3564239911198326,114.95677661133668,0,60,1.0,2,0.8813359202667453
2.505,0.3705118017738417,111.64826619736436,0,60,1.0,2,0.8034886164085733
2.51,0.3821214567925213,107.87868369700878,0,60,1.0,2,0.7147925575766773
2.515,0.39098947374066967,103.89114672130673,0,60,1.0,2,0.6209681581483936
2.52,0.3969108472035567,99.91511507625712,0,60,1.0,2,0.5274144723825206
2.525,0.3997469255491936,96.14656082953842,0,60,1.0,2,0.4387426077538451
2.53,0.3994308076379137,92.73498319976926,0,60,1.0,2,0.3584701929357473
2.535,0.3959699661768434,89.77799372275705,0,60,1.0,2,0.2888939699472246
2.54,0.38944595408114946,87.32285486110474,0,60,1.0,2,0.23112599673187634
2.545,0.38001120995358023,85.37336529966561,0,60,1.0,2,0.185255654109779
2.55,0.3678831374098315,83.89998207819981,0,60,1.0,2,0.15058781360470147
2.555,0.35333577933796634,82.8510525309259,0,60,1.0,2,0.125907118374727
2.56,0.33668953221163944,82.16338984647568,0,60,1.0,2,0.10972681991707485
2.565,0.3182994390982644,81.7710004035094,0,60,1.0,2,0.10049412714139776
2.57,0.29854265738230645,81.61139076399436,0,60,1.0,2,0.0967386062116321
2.575,0.2778057157821067,81.62941598109197,0,60,1.0,2,0.0971627289668698
2.58,0.2564721553719815,81.7790040818856,0,60,1.0,2,0.1006824489855436
2.585,0.23491109433464996,82.02328621441396,0,60,1.0,2,0.1064302638685637
2.59,0.21346717185309805,82.33370255304422,0,60,1.0,2,0.1137341777186875
2.595,0.19245222055656455,82.68858789463043,0,60,1.0,2,0.12208442105012778
2.6,0.17213889801761392,83.07161944197627,0,60,1.0,2,0.13109692804650042
2.605,0.15275638501270183,83.47037548139828,0,60,1.0,2,0.1404794230917242
2.61,0.13448814019607322,83.87513591955003,0,60,1.0,2,0.1500031981070596
2.615,0.11747159495449566,84.27796761085855,0,60,1.0,2,0.15948159084373068
2.62,0.10179958433370105,84.67208126420148,0,60,1.0,2,0.16875485327532896
2.625,0.08752324394101413,85.05141767098016,0,60,1.0,2,0.17768041578776841
2.63,0.07465606047174059,85.41041137477472,0,60,1.0,2,0.18612732646528765
2.635,0.0631787448609295,85.74388204533,0,60,1.0,2,0.1939736951842352
2.64,0.05304460019959574,86.0470116192692,0,60,1.0,2,0.20110615574751056
2.645,0.044185078305849994,86.31537463568876,0,60,1.0,2,0.20742057966326483
2.65,0.03651525513023255,86.54499785256412,0,60,1.0,2,0.21282347888386172
2.655,0.0299390014708757,86.73243223546459,0,60,1.0,2,0.21723369965799025
2.66,0.024353677220580638,86.87482563242001,0,60,1.0,2,0.2205841325275297
2.665,0.01965423034339045,86.96998815607745,0,60,1.0,2,0.22282325073123407
2.67,0.015736632374757337,87.01644488029292,0,60,1.0,2,0.22391635012453937
2.675,0.012500627640593535,87.01347229325384,0,60,1.0,2,0.22384640690009036
2.68,0.009851811652115898,86.96111631870204,0,60,1.0,2,0.22261450161651858
2.685,0.007703084175428559,86.86019081224607,0,60,1.0,2,0.22023978381755469
2.69,0.005975544002062424,86.7122563730027,0,60,1.0,2,0.21675897348241652
2.695,0.004598905818663047,86.51958013614413,0,60,1.0,2,0.21222541496809713
2.7,0.0035115256454839104,86.28507794654647,0,60,1.0,2,0.2067077163893286
2.705,0.002660121266303676,86.01224095394758,0,60,1.0,2,0.20028802244582547
2.71,0.0019992692560877024,85.7050492026738,0,60,1.0,2,0.19305998123938367
2.715,0.0014907520044639367,85.36787519896696,0,60,1.0,2,0.18512647526981074
2.72,0.0011028178277539807,85.00538071378118,0,60,1.0,2,0.1765971932654395
2.725,0.0008094059938923333,84.6224102114667,0,60,1.0,2,0.1675861226227459
2.73,0.0005893771793717645,84.22388428441178,0,60,1.0,2,0.15820904198615957
2.735,0.0004257792353490551,83.81469632673434,0,60,1.0,2,0.14858109004080788
2.74,0.0003051686392901525,83.39961540923211,0,60,1.0,2,0.13881448021722617
2.745,0.00021699992642659966,82.98319794133803,0,60,1.0,2,0.1290164221491302
2.75,0.00015308884054097838,82.5697102464525,0,60,1.0,2,0.11928729991652945
2.755,0.00010714989329311098,82.16306366028918,0,60,1.0,2,0.10971914494798077
2.76,7.440535854020571e-05,81.76676321464303,0,60,1.0,2,0.10039442857983612
2.765,5.1260276743925106e-05,81.3838704178972,0,60,1.0,2,0.09138518630346351
2.77,3.503659887882241e-05,81.01698011357695,0,60,1.0,2,0.08275247326063409
2.775,2.375894748103639e-05,80.66821091136433,0,60,1.0,2,0.07454613909092533
2.78,1.5984413869232557e-05,80.33920825933811,0,60,1.0,2,0.06680490021972017
2.785,1.0669166579899869e-05,80.03115887537963,0,60,1.0,2,0.059556679420697214
2.79,7.06526633560511e-06,79.74481498835964,0,60,1.0,2,0.052819176196697314
2.795,4.641847214699205e-06,79.48052665965687,0,60,1.0,2,0.0466006272860441
2.8,3.025641074479182e-06,79.23828036186586,0,60,1.0,2,0.0409007143968438
2.805,1.9566278676921314e-06,79.01774197921334,0,60,1.0,2,0.03571157598149037
2.81,1.2553456560008793e-06,78.8183024547782,0,60,1.0,2,0.03101888128889895
2.815,7.990660428214668e-07,78.6391244320625,0,60,1.0,2,0.02680292781323534
2.82,5.046221251618276e-07,78.47918841005006,0,60,1.0,2,0.023039727295295454
2.825,3.1616527078858815e-07,78.3373371380437,0,60,1.0,2,0.019702050306910437
2.83,1.9652884407760343e-07,78.21231720572483,0,60,1.0,2,0.016760404840584227
2.835,1.2120002189836396e-07,78.10281702217611,0,60,1.0,2,0.014183929933555566
2.84,7.415549848886236e-08,78.00750061349781,0,60,1.0,2,0.011941190905830849
2.845,4.501406988770349e-08,77.92503689230902,0,60,1.0,2,0.010000868054329965
2.85,0.0,77.85412425603842,0,60,1.0,2,0.008332335436198064
2.855,0.0,77.79351054877074,0,60,1.0,2,0.006906130559311537
2.86,0.0,77.74200856992353,0,60,1.0,2,0.005694319292318288
2.865,0.0,77.69850743053568,0,60,1.0,2,0.004670763071427874
2.87,0.0,77.66198014454383,0,60,1.0,2,0.003811297518678416
2.875,0.0,77.63148789963498,0,60,1.0,2,0.0030938329325876754
2.88,0.0,77.60618148274689,0,60,1.0,2,0.0024983878293386064
2.885,0.0,77.58530034248456,0,60,1.0,2,0.0020070668819896047
2.89,0.0,77.56816975854922,0,60,1.0,2,0.0016039943188051143
2.895,0.0,77.55419656084052,0,60,1.0,2,0.0012752131962476116
2.9,0.0,77.542863802236,0,60,1.0,2,0.0010085600526117426
2.905,0.0,77.53372474296843,0,60,1.0,2,0.0007935233639630844
2.91,0.0,77.52639645440267,0,60,1.0,2,0.0006210930447687535
2.915,0.0,77.52055329875957,0,60,1.0,2,0.0004836070296368475
2.92,0.0,77.51592049130771,0,60,1.0,2,0.00037459979547553997
2.925,0.0,77.5122679045549,0,60,1.0,2,0.0002886565777624342
2.93,0.0,77.50940423131003,0,60,1.0,2,0.00022127603082420887
2.935,0.0,77.50717158596277,0,60,1.0,2,0.0001687431991239036
2.94,0.0,77.50544059134097,0,60,1.0,2,0.00012801391390519925
2.945,0.0,77.50410597211048,0,60,1.0,2,9.661110848188561e-05
2.95,0.0,77.50308265466796,0,60,1.0,2,7.253305101090411e-05
2.955,0.0,77.50230235743923,0,60,1.0,2,5.4173116217270946e-05
2.96,0.0,77.50171064389794,0,60,1.0,2,4.025044465733759e-05
2.965,0.0,77.50126440285658,0,60,1.0,2,2.9750655448879117e-05
2.97,0.0,77.50092971602302,0,60,1.0,2,2.1875671129959407e-05
2.975,0.0,77.50068007084202,0,60,1.0,2,1.6001666871127728e-05
2.98,0.0,77.5004948766761,0,60,1.0,2,1.1644157084714715e-05
2.985,0.0,77.50035824390325,0,60,1.0,2,8.429268311762345e-06
2.99,0.0,77.50025798806918,0,60,1.0,2,6.070307510111995e-06
2.995,0.0,77.50018482445232,0,60,1.0,2,4.348810642795798e-06
3.0,0.0,77.50013172197245,0,60,1.0,2,3.0993405282649347e-06
3.005,0.0,77.50009338906223,0,60,1.0,2,2.1973896995110835e-06
3.01,0.0,77.50006586774495,0,60,1.0,2,1.5498292929591758e-06
3.015,0.0,77.50004621559701,0,60,1.0,2,1.0874258119950836e-06
3.02,0.0,77.5000322584378,0,60,1.0,2,7.590220658424669e-07
3.025,0.001684486749771458,77.5000223994362,0,60,1.0,2,5.270455577534877e-07
3.03,0.003097557930867117,77.50001547283287,0,60,1.0,2,3.6406665578718223e-07
3.035,0.005475106668887023,77.50001063265135,0,60,1.0,2,2.5018003183878834e-07
3.04,0.00930222931468658,77.50000726862568,0,60,1.0,2,1.7102648658852988e-07
3.045,0.01519157517868857,77.50000494312994,0,60,1.0,2,1.1630893970290987e-07
3.05,0.023847336626128316,77.50000334418844,0,60,1.0,2,7.86867868849667e-08
3.055,0.0359830743700859,77.50000225070433,0,60,1.0,2,5.2957748868506956e-08
3.06,0.05218887796857759,77.50000150690246,0,60,1.0,2,3.545652856808053e-08
3.065,0.0727577001223134,77.50000100366974,0,60,1.0,2,2.3615758530414656e-08
3.07,0.0974992498694751,77.50000066502123,0,60,1.0,2,1.564755841761379e-08
3.075,0.12558706050443358,77.50000043834815,0,60,1.0,2,1.0314074175125022e-08
3.08,0.15549263588878245,77.50000028743645,0,60,1.0,2,6.763210582421915e-09
3.085,0.1850529723539114,77.50000018750096,0,60,1.0,2,4.411787264924736e-09
3.09,0.21169159439317053,77.50000012167578,0,60,1.0,2,2.8629595844369546e-09
3.095,0.23277292922115492,77.50000007854956,0,60,1.0,2,1.8482249769851263e-09
3.1,0.24602692519491282,77.5000000504455,0,60,1.0,2,1.1869527792013661e-09
3.105,0.24995056064839283,77.5000000322285,0,60,1.0,2,7.583176230742965e-10
3.11,0.24408826520424054,77.50000002048314,0,60,1.0,2,4.819562892568202e-10
3.115,0.22911894216865275,77.50000001295066,0,60,1.0,2,3.047215186062899e-10
3.12,0.20672661788705934,77.50000000814568,0,60,1.0,2,1.9166296784961186e-10
3.125,0.17928878030241233,77.50000000509684,0,60,1.0,2,1.1992557012811578e-10
3.13,0.14946211903866036,77.50000000317259,0,60,1.0,2,7.464911825937794e-11
3.135,0.1197651512573837,77.50000000196455,0,60,1.0,2,4.622473384455696e-11
3.14,0.09224675744988023,77.5000000012102,0,60,1.0,2,2.847520911874359e-11
3.145,0.06829565320281596,77.50000000074162,0,60,1.0,2,1.7449926471111694e-11
3.15,0.04860224607515734,77.50000000045212,0,60,1.0,2,1.063807865327416e-11
3.155,0.03324612389699793,77.5000000002742,0,60,1.0,2,6.45172804070171e-12
3.16,0.021859876340472782,77.50000000016543,0,60,1.0,2,3.892436699756859e-12
3.165,0.01381595518554205,77.50000000009929,0,60,1.0,2,2.3362645151792095e-12
3.17,0.008394095110402422,77.50000000005929,0,60,1.0,2,1.3950043734546533e-12
3.175,0.0049052535271608,77.50000000003521,0,60,1.0,2,8.285764231593074e-13
3.18,0.0027671663551903634,77.5000000000208,0,60,1.0,2,4.895221483071937e-13
3.185,0.0015425553464444616,77.50000000001224,0,60,1.0,2,2.8789519787738646e-13
3.19,0.0009638206637011801,77.50000000000715,0,60,1.0,2,1.6818964521756725e-13
3.195,0.0009804935156568228,77.50000000000416,0,60,1.0,2,9.797130427186323e-14
3.2,0.0018793744894085216,77.5000000000024,0,60,1.0,2,5.6509045808685616e-14
3.205,0.004535525206900863,77.50000000000138,0,60,1.0,2,3.243418605587281e-14
3.21,0.010832767979632273,77.5000000000008,0,60,1.0,2,1.8724890918854405e-14
3.215,0.024208003392322392,77.50000000000045,0,60,1.0,2,1.0699937667916803e-14
3.22,0.0500971897335304,77.50000000000026,0,60,1.0,2,6.0187149382032015e-15
3.225,0.09582894921774403,77.50000000000014,0,60,1.0,2,3.343730521224001e-15
3.23,0.16937896721820658,77.50000000000009,0,60,1.0,2,2.0062383127344005e-15
3.235,0.27661303008991756,77.50000000000004,0,60,1.0,2,1.0031191563672002e-15
3.24,0.4173782800009149,77.50000000000003,0,60,1.0,2,6.687461042448002e-16
3.245,0.5818720934538056,77.50000000000001,0,60,1.0,2,3.343730521224001e-16
3.25,0.7494718801585675,77.5,0,60,1.0,2,0.0
3.255,0.891813020752378,77.5,0,60,1.0,2,0.0
3.26,0.9800361632936612,77.5,0,60,1.0,2,0.0
3.265,0.993574479225126,77.5,0,60,1.0,2,0.0
3.27,0.9263438449375362,77.5,0,60,1.0,2,0.0
3.275,0.7873015962290536,77.50000249060646,1,60,1.0,2,5.860250499769309e-08
3.28,0.5959516244629897,77.50000385734029,0,60,1.0,2,9.076094797552179e-08
3.285,0.376910120078773,77.50000610730334,0,60,1.0,2,1.437012549425109e-07
3.29,0.15739335672107918,77.50000999976028,0,60,1.0,2,2.3528847718272813e-07
3.295,-0.033361226269301235,77.50001711607312,0,60,1.0,2,4.027311323331078e-07
3.3,-0.1680180840843834,77.5000308127143,0,60,1.0,2,7.250050423542288e-07
3.305,-0.23069703190837854,77.50005823243188,0,60,1.0,2,1.3701748678292514e-06
3.31,-0.22587267821131068,77.50011443699209,0,60,1.0,2,2.6926351080526407e-06
3.315,-0.17718181630665902,77.50023065316174,0,60,1.0,2,5.427133217327697e-06
3.32,-0.11494332516451301,77.50047021644501,0,60,1.0,2,1.106391635316333e-05
3.325,-0.061810214049552864,77.5009583966,0,60,1.0,2,2.255050823524631e-05
3.33,-0.026546104631500547,77.50193629964134,0,60,1.0,2,4.5559991561022426e-05
3.335,-0.00719600351942686,77.50385483894526,0,60,1.0,2,9.07020928296146e-05
3.34,0.0022072757983807078,77.50753250751332,0,60,1.0,2,0.0001772354709015979
3.345,0.006917199873730717,77.51440996954433,0,60,1.0,2,0.00033905810692544944
3.35,0.01004859748264829,77.52694391670826,0,60,1.0,2,0.0006339745107826435
3.355,0.013037082251128167,77.54918926053296,0,60,1.0,2,0.0011573943654813025
3.36,0.01645163937690478,77.5876176648087,0,60,1.0,2,0.0020615921131459745
3.365,0.020526639934696615,77.65220482613245,0,60,1.0,2,0.003581290026645815
3.37,0.02539629541761738,77.7577808422973,0,60,1.0,2,0.006065431583465732
3.375,0.031171612185577933,77.92557045679185,0,60,1.0,2,0.010013422512749311
3.38,0.03795853426638131,78.1847502601857,0,60,1.0,2,0.016111770827898695
3.385,0.0458588961882057,78.57372412531626,0,60,1.0,2,0.02526409706626496
3.39,0.054966995891435555,79.14068530680169,0,60,1.0,2,0.038604360160039666
3.395,0.06536491004445595,79.94292800606925,0,60,1.0,2,0.05748065896633534
3.4,0.07711726085088699,81.0443400664048,0,60,1.0,2,0.08339623685658352
3.405,0.09026570629555215,82.51060356247285,0,60,1.0,2,0.11789655441112593
3.41,0.10482339848670268,84.4018923138275,0,60,1.0,2,0.16239746620770595
3.415,0.12076968927580028,86.76329520888174,0,60,1.0,2,0.2179598872678057
3.42,0.13804539501007884,89.61377301640115,0,60,1.0,2,0.28502995332708597
3.425,0.15654895051787066,92.93507670582724,0,60,1.0,2,0.3631782754312292
3.43,0.17613378141900526,96.66256820647882,0,60,1.0,2,0.45088395779950174
3.435,0.19660720058055794,100.68011755916041,0,60,1.0,2,0.5454145308037743
3.44,0.21773108748496234,104.82105425803283,0,60,1.0,2,0.6428483354831255
3.445,0.23922453870058807,108.8764532668383,0,60,1.0,2,0.7382694886314893
3.45,0.2607685857914563,112.61088723201624,0,60,1.0,2,0.8261385231062645
3.455,0.2820129681603682,115.78436216317712,0,60,1.0,2,0.9008085214865205
3.46,0.30258482867153996,118.1777713622895,0,60,1.0,2,0.9571240320538708
3.465,0.3220990771751686,119.61819191512663,0,60,1.0,2,0.9910162803559207
3.47,0.3401700499968971,120.0,0,60,1.0,2,1.0
3.475,0.3564239911198326,119.29824545748835,0,60,1.0,2,0.9834881284114906
3.48,0.3705118017738417,117.5719546188641,0,60,1.0,2,0.9428695204438611
3.485,0.3821214567925213,114.95677661133668,0,60,1.0,2,0.8813359202667453
3.49,0.39098947374066967,111.64826619736436,0,60,1.0,2,0.8034886164085733
3.495,0.3969108472035567,107.87868369700878,0,60,1.0,2,0.7147925575766773
3.5,0.3997469255491936,103.89114672130673,0,60,1.0,2,0.6209681581483936
3.505,0.3994308076379137,99.91511507625712,0,60,1.0,2,0.5274144723825206
3.51,0.3959699661768434,96.14656082953842,0,60,1.0,2,0.4387426077538451
3.515,0.38944595408114946,92.73498319976926,0,60,1.0,2,0.3584701929357473
3.52,0.38001120995358023,89.77799372275705,0,60,1.0,2,0.2888939699472246
3.525,0.3678831374098315,87.32285486110474,0,60,1.0,2,0.23112599673187634
3.53,0.35333577933796634,85.37336529966561,0,60,1.0,2,0.185255654109779
3.535,0.33668953221163944,83.89998207819981,0,60,1.0,2,0.15058781360470147
3.54,0.3182994390982644,82.8510525309259,0,60,1.0,2,0.125907118374727
3.545,0.29854265738230645,82.16338984647568,0,60,1.0,2,0.10972681991707485
3.55,0.2778057157821067,81.7710004035094,0,60,1.0,2,0.10049412714139776
3.555,0.2564721553719815,81.61139076399436,0,60,1.0,2,0.0967386062116321
3.56,0.23491109433464996,81.62941598109197,0,60,1.0,2,0.0971627289668698
3.565,0.21346717185309805,81.7790040818856,0,60,1.0,2,0.1006824489855436
3.57,0.19245222055656455,82.02328621441396,0,60,1.0,2,0.1064302638685637
3.575,0.17213889801761392,82.33370255304422,0,60,1.0,2,0.1137341777186875
3.58,0.15275638501270183,82.68858789463043,0,60,1.0,2,0.12208442105012778
3.585,0.13448814019607322,83.07161944197627,0,60,1.0,2,0.13109692804650042
3.59,0.11747159495449566,83.47037548139828,0,60,1.0,2,0.1404794230917242
3.595,0.10179958433370105,83.87513591955003,0,60,1.0,2,0.1500031981070596
3.6,0.08752324394101413,84.27796761085855,0,60,1.0,2,0.15948159084373068
3.605,0.07465606047174059,84.67208126420148,0,60,1.0,2,0.16875485327532896
3.61,0.0631787448609295,85.05141767098016,0,60,1.0,2,0.17768041578776841
3.615,0.05304460019959574,85.41041137477472,0,60,1.0,3,0.18612732646528765
3.62,0.044185078305849994,85.74388204533,0,60,1.0,3,0.1939736951842352
3.625,0.03651525513023255,86.0470116192692,0,60,1.0,3,0.20110615574751056
3.63,0.0299390014708757,86.31537463568876,0,60,1.0,3,0.20742057966326483
3.635,0.024353677220580638,86.54499785256412,0,60,1.0,3,0.21282347888386172
3.64,0.01965423034339045,86.73243223546459,0,60,1.0,3,0.21723369965799025
3.645,0.015736632374757337,86.87482563242001,0,60,1.0,3,0.2205841325275297
3.65,0.012500627640593535,86.96998815607745,0,60,1.0,3,0.22282325073123407
3.655,0.009851811652115898,87.01644488029292,0,60,1.0,3,0.22391635012453937
3.66,0.007703084175428559,87.01347229325384,0,60,1.0,3,0.22384640690009036
3.665,0.005975544002062424,86.96111631870204,0,60,1.0,3,0.22261450161651858
3.67,0.004598905818663047,86.86019081224607,0,60,1.0,3,0.22023978381755469
3.675,0.0035115256454839104,86.7122563730027,0,60,1.0,3,0.21675897348241652
3.68,0.002660121266303676,86.51958013614413,0,60,1.0,3,0.21222541496809713
3.685,0.0019992692560877024,86.28507794654647,0,60,1.0,3,0.2067077163893286
3.69,0.0014907520044639367,86.01224095394758,0,60,1.0,3,0.20028802244582547
3.695,0.0011028178277539807,85.7050492026738,0,60,1.0,3,0.19305998123938367
3.7,0.0008094059938923333,85.36787519896696,0,60,1.0,3,0.18512647526981074
3.705,0.0005893771793717645,85.00538071378118,0,60,1.0,3,0.1765971932654395
3.71,0.0004257792353490551,84.6224102114667,0,60,1.0,3,0.1675861226227459
3.715,0.0003051686392901525,84.22388428441178,0,60,1.0,3,0.15820904198615957
3.72,0.00021699992642659966,83.81469632673434,0,60,1.0,3,0.14858109004080788
3.725,0.00015308884054097838,83.39961540923211,0,60,1.0,3,0.13881448021722617
3.73,0.00010714989329311098,82.98319794133803,0,60,1.0,3,0.1290164221491302
3.735,7.440535854020571e-05,82.5697102464525,0,60,1.0,3,0.11928729991652945
3.74,5.1260276743925106e-05,82.16306366028918,0,60,1.0,3,0.10971914494798077
3.745,3.503659887882241e-05,81.76676321464303,0,60,1.0,3,0.10039442857983612
3.75,2.375894748103639e-05,81.3838704178972,0,60,1.0,3,0.09138518630346351
3.755,1.5984413869232557e-05,81.01698011357695,0,60,1.0,3,0.08275247326063409
3.76,1.0669166579899869e-05,80.66821091136433,0,60,1.0,3,0.07454613909092533
3.765,7.06526633560511e-06,80.33920825933811,0,60,1.0,3,0.06680490021972017
3.77,4.641847214699205e-06,80.03115887537963,0,60,1.0,3,0.059556679420697214
3.775,3.025641074479182e-06,79.74481498835964,0,60,1.0,3,0.052819176196697314
3.78,1.9566278676921314e-06,79.48052665965687,0,60,1.0,3,0.0466006272860441
3.785,1.2553456560008793e-06,79.23828036186586,0,60,1.0,3,0.0409007143968438
3.79,7.990660428214668e-07,79.01774197921334,0,60,1.0,3,0.03571157598149037
3.795,5.046221251618276e-07,78.8183024547782,0,60,1.0,3,0.03101888128889895
3.8,3.1616527078858815e-07,78.6391244320625,0,60,1.0,3,0.02680292781323534
3.805,1.9652884407760343e-07,78.47918841005006,0,60,1.0,3,0.023039727295295454
3.81,1.2120002189836396e-07,78.3373371380437,0,60,1.0,3,0.019702050306910437
3.815,7.415549848886236e-08,78.21231720572483,0,60,1.0,3,0.016760404840584227
3.82,4.501406988770349e-08,78.10281702217611,0,60,1.0,3,0.014183929933555566
3.825,0.0,78.00750061349781,0,60,1.0,3,0.011941190905830849
3.83,0.0,77.92503689230902,0,60,1.0,3,0.010000868054329965
3.835,0.0,77.85412425603842,0,60,1.0,3,0.008332335436198064
3.84,0.0,77.79351054877074,0,60,1.0,3,0.006906130559311537
3.845,0.0,77.74200856992353,0,60,1.0,3,0.005694319292318288
3.85,0.0,77.69850743053568,0,60,1.0,3,0.004670763071427874
3.855,0.0,77.66198014454383,0,60,1.0,3,0.003811297518678416
3.86,0.0,77.63148789963498,0,60,1.0,3,0.0030938329325876754
3.865,0.0,77.60618148274689,0,60,1.0,3,0.0024983878293386064
3.87,0.0,77.58530034248456,0,60,1.0,3,0.0020070668819896047
3.875,0.0,77.56816975854922,0,60,1.0,3,0.0016039943188051143
3.88,0.0,77.55419656084052,0,60,1.0,3,0.0012752131962476116
3.885,0.0,77.542863802236,0,60,1.0,3,0.0010085600526117426
3.89,0.0,77.53372474296843,0,60,1.0,3,0.0007935233639630844
3.895,0.0,77.52639645440267,0,60,1.0,3,0.0006210930447687535
3.9,0.0,77.52055329875957,0,60,1.0,3,0.0004836070296368475
3.905,0.0,77.51592049130771,0,60,1.0,3,0.00037459979547553997
3.91,0.0,77.5122679045549,0,60,1.0,3,0.0002886565777624342
3.915,0.0,77.50940423131003,0,60,1.0,3,0.00022127603082420887
3.92,0.0,77.50717158596277,0,60,1.0,3,0.0001687431991239036
3.925,0.0,77.50544059134097,0,60,1.0,3,0.00012801391390519925
3.93,0.0,77.50410597211048,0,60,1.0,3,9.661110848188561e-05
3.935,0.0,77.50308265466796,0,60,1.0,3,7.253305101090411e-05
3.94,0.0,77.50230235743923,0,60,1.0,3,5.4173116217270946e-05
3.945,0.0,77.50171064389794,0,60,1.0,3,4.025044465733759e-05
3.95,0.0,77.50126440285658,0,60,1.0,3,2.9750655448879117e-05
3.955,0.0,77.50092971602302,0,60,1.0,3,2.1875671129959407e-05
3.96,0.0,77.50068007084202,0,60,1.0,3,1.6001666871127728e-05
3.965,0.0,77.5004948766761,0,60,1.0,3,1.1644157084714715e-05
3.97,0.0,77.50035824390325,0,60,1.0,3,8.429268311762345e-06
3.975,0.0,77.50025798806918,0,60,1.0,3,6.070307510111995e-06
3.98,0.0,77.50018482445232,0,60,1.0,3,4.348810642795798e-06
3.985,0.0,77.50013172197245,0,60,1.0,3,3.0993405282649347e-06
3.99,0.0,77.50009338906223,0,60,1.0,3,2.1973896995110835e-06
3.995,0.0,77.50006586774495,0,60,1.0,3,1.5498292929591758e-06
4.0,0.0,77.50004621559701,0,60,1.0,3,1.0874258119950836e-06
4.005,0.0,77.5000322584378,0,60,1.0,3,7.590220658424669e-07
4.01,0.0,77.5000223994362,0,60,1.0,3,5.270455577534877e-07
4.015,0.0,77.50001547283287,0,60,1.0,3,3.6406665578718223e-07
4.02,0.001684486749771458,77.50001063265135,0,60,1.0,3,2.5018003183878834e-07
4.025,0.003097557930867117,77.50000726862568,0,60,1.0,3,1.7102648658852988e-07
4.03,0.005475106668887023,77.50000494312994,0,60,1.0,3,1.1630893970290987e-07
4.035,0.00930222931468658,77.50000334418844,0,60,1.0,3,7.86867868849667e-08
4.04,0.01519157517868857,77.50000225070433,0,60,1.0,3,5.2957748868506956e-08
4.045,0.023847336626128316,77.50000150690246,0,60,1.0,3,3.545652856808053e-08
4.05,0.0359830743700859,77.50000100366974,0,60,1.0,3,2.3615758530414656e-08
4.055,0.05218887796857759,77.50000066502123,0,60,1.0,3,1.564755841761379e-08
4.06,0.0727577001223134,77.50000043834815,0,60,1.0,3,1.0314074175125022e-08
4.065,0.0974992498694751,77.50000028743645,0,60,1.0,3,6.763210582421915e-09
4.07,0.12558706050443358,77.50000018750096,0,60,1.0,3,4.411787264924736e-09
4.075,0.15549263588878245,77.50000012167578,0,60,1.0,3,2.8629595844369546e-09
4.08,0.1850529723539114,77.50000007854956,0,60,1.0,3,1.8482249769851263e-09
4.085,0.21169159439317053,77.5000000504455,0,60,1.0,3,1.1869527792013661e-09
4.09,0.23277292922115492,77.5000000322285,0,60,1.0,3,7.583176230742965e-10
4.095,0.24602692519491282,77.50000002048314,0,60,1.0,3,4.819562892568202e-10
4.1,0.24995056064839283,77.50000001295066,0,60,1.0,3,3.047215186062899e-10
4.105,0.24408826520424054,77.50000000814568,0,60,1.0,3,1.9166296784961186e-10
4.11,0.22911894216865275,77.50000000509684,0,60,1.0,3,1.1992557012811578e-10
4.115,0.20672661788705934,77.50000000317259,0,60,1.0,3,7.464911825937794e-11
4.12,0.17928878030241233,77.50000000196455,0,60,1.0,3,4.622473384455696e-11
4.125,0.14946211903866036,77.5000000012102,0,60,1.0,3,2.847520911874359e-11
4.13,0.1197651512573837,77.50000000074162,0,60,1.0,3,1.7449926471111694e-11
4.135,0.09224675744988023,77.50000000045212,0,60,1.0,3,1.063807865327416e-11
4.14,0.06829565320281596,77.5000000002742,0,60,1.0,3,6.45172804070171e-12
4.145,0.04860224607515734,77.50000000016543,0,60,1.0,3,3.892436699756859e-12
4.15,0.03324612389699793,77.50000000009929,0,60,1.0,3,2.3362645151792095e-12
4.155,0.021859876340472782,77.50000000005929,0,60,1.0,3,1.3950043734546533e-12
4.16,0.01381595518554205,77.50000000003521,0,60,1.0,3,8.285764231593074e-13
4.165,0.008394095110402422,77.5000000000208,0,60,1.0,3,4.895221483071937e-13
4.17,0.0049052535271608,77.50000000001224,0,60,1.0,3,2.8789519787738646e-13
4.175,0.0027671663551903634,77.50000000000715,0,60,1.0,3,1.6818964521756725e-13
4.18,0.0015425553464444616,77.50000000000416,0,60,1.0,3,9.797130427186323e-14
4.185,0.0009638206637011801,77.5000000000024,0,60,1.0,3,5.6509045808685616e-14
4.19,0.0009804935156568228,77.50000000000138,0,60,1.0,3,3.243418605587281e-14
4.195,0.0018793744894085216,77.5000000000008,0,60,1.0,3,1.8724890918854405e-14
4.2,0.004535525206900863,77.50000000000045,0,60,1.0,3,1.0699937667916803e-14
4.205,0.010832767979632273,77.50000000000026,0,60,1.0,3,6.0187149382032015e-15
4.21,0.024208003392322392,77.50000000000014,0,60,1.0,3,3.343730521224001e-15
4.215,0.0500971897335304,77.50000000000009,0,60,1.0,3,2.0062383127344005e-15
4.22,0.09582894921774403,77.50000000000004,0,60,1.0,3,1.0031191563672002e-15
4.225,0.16937896721820658,77.50000000000003,0,60,1.0,3,6.687461042448002e-16
4.23,0.27661303008991756,77.50000000000001,0,60,1.0,3,3.343730521224001e-16
4.235,0.4173782800009149,77.5,0,60,1.0,3,0.0
4.24,0.5818720934538056,77.5,0,60,1.0,3,0.0
4.245,0.7494718801585675,77.5,0,60,1.0,3,0.0
4.25,0.891813020752378,77.5,0,60,1.0,3,0.0
4.255,0.9800361632936612,77.5,0,60,1.0,3,0.0
4.26,0.993574479225126,77.5000024966485,1,60,1.0,3,5.874467072263702e-08
4.265,0.9263438449375362,77.50000388454893,0,60,1.0,3,9.140115132729132e-08
4.27,0.7873015962290536,77.50000618232913,0,60,1.0,3,1.454665677743726e-07
4.275,0.5959516244629897,77.5000101847726,0,60,1.0,3,2.396417083700191e-07
4.28,0.376910120078773,77.50001756083037,0,60,1.0,3,4.1319600875474007e-07
4.285,0.15739335672107918,77.50003188149957,0,60,1.0,3,7.501529309780274e-07
4.29,-0.033361226269301235,77.50006080365405,0,60,1.0,3,1.4306742129707239e-06
4.295,-0.1680180840843834,77.50012058486693,0,60,1.0,3,2.8372909866902773e-06
4.3,-0.23069703190837854,77.50024513995355,0,60,1.0,3,5.7679989070306076e-06
4.305,-0.22587267821131068,77.50050363241509,0,60,1.0,3,1.1850174472690068e-05
4.31,-0.17718181630665902,77.50103350758017,0,60,1.0,3,2.4317825415878626e-05
4.315,-0.11494332516451301,77.50210036935763,0,60,1.0,3,4.942045547375742e-05
4.32,-0.061810214049552864,77.50420258594323,0,60,1.0,3,9.888437513489087e-05
4.325,-0.026546104631500547,77.50824711533218,0,60,1.0,3,0.00019404977252192754
4.33,-0.00719600351942686,77.51583324529174,0,60,1.0,3,0.0003725469480410565
4.335,0.0022072757983807078,77.52969102922935,0,60,1.0,3,0.0006986124524554029
4.34,0.006917199873730717,77.55432766935884,0,60,1.0,3,0.0012782981025609656
4.345,0.01004859748264829,77.5969322368778,0,60,1.0,3,0.0022807585147718865
4.35,0.013037082251128167,77.66856909864642,0,60,1.0,3,0.003966331732856829
4.355,0.01645163937690478,77.78564441251984,0,60,1.0,3,0.006721045000466909
4.36,0.020526639934696615,77.97155076923681,0,60,1.0,3,0.011095312217336789
4.365,0.02539629541761738,78.2582808201053,0,60,1.0,3,0.017841901649536432
4.37,0.031171612185577933,78.68766052792253,0,60,1.0,3,0.027944953598177214
4.375,0.03795853426638131,79.31171075246023,0,60,1.0,3,0.04262848829318186
4.38,0.0458588961882057,80.19154347445966,0,60,1.0,3,0.06333043469316856
4.385,0.054966995891435555,81.39419054317591,0,60,1.0,3,0.09162801278060964
4.39,0.06536491004445595,82.9869047835598,0,60,1.0,3,0.1291036419661128
4.395,0.07711726085088699,85.02880519220997,0,60,1.0,3,0.17714835746376406
4.4,0.09026570629555215,87.56025991780172,0,60,1.0,3,0.23671199806592272
4.405,0.10482339848670268,90.59105402879193,0,60,1.0,3,0.3080248006774572
4.41,0.12076968927580028,94.08904924277502,0,60,1.0,3,0.3903305704182357
4.415,0.13804539501007884,97.97153364558193,0,60,1.0,3,0.48168314460192774
4.42,0.15654895051787066,102.10159121830677,0,60,1.0,3,0.5788609698425121
4.425,0.17613378141900526,106.29144711748273,0,60,1.0,3,0.6774458145290054
4.43,0.19660720058055794,110.31382182199403,0,60,1.0,3,0.7720899252233888
4.435,0.21773108748496234,113.92095766616347,0,60,1.0,3,0.8569637097920817
4.44,0.23922453870058807,116.86941633089845,0,60,1.0,3,0.9263392077858458
4.445,0.2607685857914563,118.94734075580467,0,60,1.0,3,0.9752315471954041
4.45,0.2820129681603682,120.0,0,60,1.0,3,1.0
4.455,0.30258482867153996,119.94936806517826,0,60,1.0,3,0.9988086603571356
4.46,0.3220990771751686,118.80431883209974,0,60,1.0,3,0.9718663254611704
4.465,0.3401700499968971,116.65961054384493,0,60,1.0,3,0.9214026010316455
4.47,0.3564239911198326,113.6838413525704,0,60,1.0,3,0.8513845024134211
4.475,0.3705118017738417,110.09852371838782,0,60,1.0,3,0.7670240874914782
4.48,0.3821214567925213,106.15190294941635,0,60,1.0,3,0.6741624223392083
4.485,0.39098947374066967,102.09182171295444,0,60,1.0,3,0.5786310991283398
4.49,0.3969108472035567,98.14171008969322,0,60,1.0,3,0.48568729622807577
4.495,0.3997469255491936,94.48278858522536,0,60,1.0,3,0.39959502553471443
4.5,0.3994308076379137,91.24411073570738,0,60,1.0,3,0.32339084084017367
4.505,0.3959699661768434,88.50051791606685,0,60,1.0,3,0.2588357156721613
4.51,0.38944595408114946,86.27727400892925,0,60,1.0,3,0.20652409432774715
4.515,0.38001120995358023,84.55931872476093,0,60,1.0,3,0.1661016170531983
4.52,0.3678831374098315,83.3028005744429,0,60,1.0,3,0.13653648410453878
4.525,0.35333577933796634,82.44675842842192,0,60,1.0,3,0.1163943159628686
4.53,0.33668953221163944,81.9233555217599,0,60,1.0,3,0.10407895345317417
4.535,0.3182994390982644,81.6657405782961,0,60,1.0,3,0.09801742537167282
4.54,0.29854265738230645,81.61324823680155,0,60,1.0,3,0.0967823114541542
4.545,0.2778057157821067,81.71414190823803,0,60,1.0,3,0.09915628019383609
4.55,0.2564721553719815,81.92639917335062,0,60,1.0,3,0.10415056878472041
4.555,0.23491109433464996,82.21715152529522,0,60,1.0,3,0.1109918005951817
4.56,0.21346717185309805,82.56136080468661,0,60,1.0,3,0.11909084246321447
4.565,0.19245222055656455,82.94020128362216,0,60,1.0,3,0.12800473608522728
4.57,0.17213889801761392,83.33947177339249,0,60,1.0,3,0.13739933584452915
4.575,0.15275638501270183,83.74822470521731,0,60,1.0,3,0.14701705188746614
4.58,0.13448814019607322,84.1576901961562,0,60,1.0,3,0.1566515340272046
4.585,0.11747159495449566,84.56049942906901,0,60,1.0,3,0.16612939833103557
4.59,0.10179958433370105,84.95017025612171,0,60,1.0,3,0.17529812367345196
4.595,0.08752324394101413,85.32080099438407,0,60,1.0,3,0.18401884692668405
4.6,0.07465606047174059,85.66691715781909,0,60,1.0,3,0.19216275665456672
4.605,0.0631787448609295,85.98342289070791,0,60,1.0,3,0.19960995036959797
4.61,0.05304460019959574,86.26561884786955,0,60,1.0,3,0.20624985524398934
4.615,0.044185078305849994,86.50925808244908,0,60,1.0,3,0.21198254311644893
4.62,0.03651525513023255,86.71061970560895,0,60,1.0,3,0.21672046366138703
4.625,0.0299390014708757,86.86658630913784,0,60,1.0,3,0.22039026609736104
4.63,0.024353677220580638,86.97471559675341,0,60,1.0,3,0.22293448462949206
4.635,0.01965423034339045,87.03329977142683,0,60,1.0,3,0.22431293579827827
4.64,0.015736632374757337,87.04140840180983,0,60,1.0,3,0.2245037271014078
4.645,0.012500627640593535,86.99891208474476,0,60,1.0,3,0.2235038137587002
4.65,0.009851811652115898,86.90648547061232,0,60,1.0,3,0.22132906989676057
4.655,0.007703084175428559,86.76558926724239,0,60,1.0,3,0.21801386511158566
4.66,0.005975544002062424,86.5784317591195,0,60,1.0,3,0.2136101590381058
4.665,0.004598905818663047,86.34791119812435,0,60,1.0,3,0.20818614583822
4.67,0.0035115256454839104,86.07754113966531,0,60,1.0,3,0.20182449740388975
4.675,0.002660121266303676,85.77136140052126,0,60,1.0,3,0.19462026824755901
4.68,0.0019992692560877024,85.43383778522907,0,60,1.0,3,0.18667853612303703
4.685,0.0014907520044639367,85.06975405182008,0,60,1.0,3,0.1781118600428255
4.69,0.0011028178277539807,84.68409975610096,0,60,1.0,3,0.16903764132002266
4.695,0.0008094059938923333,84.2819576246531,0,60,1.0,3,0.15957547352124948
4.7,0.0005893771793717645,83.86839396614698,0,60,1.0,3,0.14984456390934076
4.705,0.0004257792353490551,83.44835535165316,0,60,1.0,3,0.13996130239183913
4.71,0.0003051686392901525,83.02657439701731,0,60,1.0,3,0.13003704463570148
4.715,0.00021699992642659966,82.6074869887465,0,60,1.0,3,0.12017616444109415
4.72,0.00015308884054097838,82.19516273734413,0,60,1.0,3,0.11047441734927374
4.725,0.00010714989329311098,81.7932498483948,0,60,1.0,3,0.1010176434916422
4.73,7.440535854020571e-05,81.40493500158567,0,60,1.0,3,0.09188082356672166
4.735,5.1260276743925106e-05,81.03291824914021,0,60,1.0,3,0.08312748821506374
4.74,3.503659887882241e-05,80.6794024125245,0,60,1.0,3,0.07480946852998814
4.745,2.375894748103639e-05,80.34609599014749,0,60,1.0,3,0.06696696447405857
4.75,1.5984413869232557e-05,80.03422820440662,0,60,1.0,3,0.05962889892721451
4.755,1.0669166579899869e-05,79.74457452363798,0,60,1.0,3,0.05281351820324657
4.76,7.06526633560511e-06,79.4774907976045,0,60,1.0,3,0.04652919523775301
4.765,4.641847214699205e-06,79.23295404316598,0,60,1.0,3,0.04077538925096412
4.77,3.025641074479182e-06,79.01060790415472,0,60,1.0,3,0.035543715391875876
4.775,1.9566278676921314e-06,78.80981087682954,0,60,1.0,3,0.030819079454812815
4.78,1.2553456560008793e-06,78.62968552729907,0,60,1.0,3,0.0265808359364488
4.785,7.990660428214668e-07,78.4691671158064,0,60,1.0,3,0.022803932136621168
4.79,5.046221251618276e-07,78.32705026967079,0,60,1.0,3,0.01946000634519511
4.795,3.1616527078858815e-07,78.2020325969465,0,60,1.0,3,0.01651841404579988
4.8,1.9652884407760343e-07,78.0927543922857,0,60,1.0,3,0.013947162171428197
4.805,1.2120002189836396e-07,77.99783384238104,0,60,1.0,3,0.011713737467789209
4.81,7.415549848886236e-08,77.91589737998032,0,60,1.0,3,0.009785820705419343
4.815,4.501406988770349e-08,77.84560505434425,0,60,1.0,3,0.008131883631629347
4.82,0.0,77.78567097606587,0,60,1.0,4,0.006721670025079367
4.825,0.0,77.73487905164139,0,60,1.0,4,0.0055265659209737805
4.83,0.0,77.69209434649721,0,60,1.0,4,0.004519866976405036
4.835,0.0,77.65627050466959,0,60,1.0,4,0.0036769530510492344
4.84,0.0,77.62645371089663,0,60,1.0,4,0.0029753814328618024
4.845,0.0,77.60178370962433,0,60,1.0,4,0.0023949108146900794
4.85,0.0,77.58149239927823,0,60,1.0,4,0.0019174682183113552
4.855,0.0,77.5649005035173,0,60,1.0,4,0.001527070670995138
4.86,0.0,77.55141278863067,0,60,1.0,4,0.001209712673662847
4.865,0.0,77.5405122522104,0,60,1.0,4,0.0009532294637742379
4.87,0.0,77.53175365686594,0,60,1.0,4,0.0007471448674339974
4.875,0.0,77.5247567276939,0,60,1.0,4,0.0005825112398564242
4.88,0.0,77.51919927656837,0,60,1.0,4,0.0004517476839616981
4.885,0.0,77.51481046255032,0,60,1.0,4,0.0003484814717721212
4.89,0.0,77.51136434769356,0,60,1.0,4,0.0002673964163190088
4.895,0.0,77.50867386254117,0,60,1.0,4,0.00020409088332170916
4.9,0.0,77.50658525642717,0,60,1.0,4,0.0001549472100511112
4.905,0.0,77.50497307465665,0,60,1.0,4,0.00011701352133286491
4.91,0.0,77.50373567769842,0,60,1.0,4,8.78982987862454e-05
4.915,0.0,77.50279129638474,0,60,1.0,4,6.567756199394674e-05
4.92,0.0,77.50207460126839,0,60,1.0,4,4.88141474915317e-05
4.925,0.0,77.50153375311476,0,60,1.0,4,3.608830858250739e-05
4.93,0.0,77.50112789431837,0,60,1.0,4,2.653868984406044e-05
4.935,0.0,77.50082503712781,0,60,1.0,4,1.9412638301432976e-05
4.94,0.0,77.50060030327039,0,60,1.0,4,1.4124782832676133e-05
4.945,0.0,77.50043447026465,0,60,1.0,4,1.022282975648469e-05
4.95,0.0,77.50031278184728,0,60,1.0,4,7.35957287728899e-06
4.955,0.0,77.50022398305025,0,60,1.0,4,5.270189417588507e-06
4.96,0.0,77.50015954415629,0,60,1.0,4,3.753980147995903e-06
4.965,0.0,77.50011304172635,0,60,1.0,4,2.659805325907548e-06
4.97,0.0,77.50007966889501,0,60,1.0,4,1.8745622355709203e-06
4.975,0.0,77.50005585099808,0,60,1.0,4,1.3141411313079194e-06
4.98,0.0,77.50003894621133,0,60,1.0,4,9.163814431357263e-07
4.985,0.0,77.50002701416986,0,60,1.0,4,6.356275261008276e-07
4.99,0.0,77.50001863846614,0,60,1.0,4,4.3855214458102745e-07
4.995,0.001684486749771458,77.50001279148142,0,60,1.0,4,3.00976033512972e-07
5.0,0.003097557930867117,77.50000873219956,0,60,1.0,4,2.0546351907689635e-07
5.005,0.005475106668887023,77.5000059295071,0,60,1.0,4,1.3951781404423802e-07
5.01,0.00930222931468658,77.50000400502901,0,60,1.0,4,9.42359767631227e-08
5.015,0.01519157517868857,77.50000269082139,0,60,1.0,4,6.331344446366797e-08
5.02,0.023847336626128316,77.50000179827543,0,60,1.0,4,4.231236316092477e-08
5.025,0.0359830743700859,77.5000011954177,0,60,1.0,4,2.8127475188204484e-08
5.03,0.05218887796857759,77.50000079045161,0,60,1.0,4,1.8598861368659796e-08
5.035,0.0727577001223134,77.50000051990384,0,60,1.0,4,1.2233031424436965e-08
5.04,0.0974992498694751,77.50000034014406,0,60,1.0,4,8.003389532806229e-09
5.045,0.12558706050443358,77.50000022135784,0,60,1.0,4,5.208419692922582e-09
5.05,0.15549263588878245,77.50000014329103,0,60,1.0,4,3.3715537028911058e-09
5.055,0.1850529723539114,77.50000009226464,0,60,1.0,4,2.170932756438132e-09
5.06,0.21169159439317053,77.50000005909403,0,60,1.0,4,1.3904478718733812e-09
5.065,0.23277292922115492,77.5000000376482,0,60,1.0,4,8.858401489466333e-10
5.07,0.24602692519491282,77.50000002385815,0,60,1.0,4,5.613682172706296e-10
5.075,0.24995056064839283,77.50000001503909,0,60,1.0,4,3.538609823461978e-10
5.08,0.24408826520424054,77.50000000942971,0,60,1.0,4,2.2187557934718345e-10
5.085,0.22911894216865275,77.50000000588122,0,60,1.0,4,1.3838162511306377e-10
5.09,0.20672661788705934,77.50000000364862,0,60,1.0,4,8.58499467593741e-11
5.095,0.17928878030241233,77.50000000225155,0,60,1.0,4,5.297773200522095e-11
5.1,0.14946211903866036,77.50000000138206,0,60,1.0,4,3.25191168111119e-11
5.105,0.1197651512573837,77.50000000084385,0,60,1.0,4,1.985540620808024e-11
5.11,0.09224675744988023,77.5000000005125,0,60,1.0,4,1.2058829751742238e-11
5.115,0.06829565320281596,77.50000000030961,0,60,1.0,4,7.28498568659073e-12
5.12,0.04860224607515734,77.50000000018605,0,60,1.0,4,4.377611998386462e-12
5.125,0.03324612389699793,77.50000000011121,0,60,1.0,4,2.6168035059099033e-12
5.13,0.021859876340472782,77.50000000006612,0,60,1.0,4,1.5558378115255276e-12
5.135,0.01381595518554205,77.50000000003911,0,60,1.0,4,9.20194639440845e-13
5.14,0.008394095110402422,77.50000000002301,0,60,1.0,4,5.413499713861657e-13
5.145,0.0049052535271608,77.50000000001346,0,60,1.0,4,3.1665128035991287e-13
5.15,0.0027671663551903634,77.50000000000783,0,60,1.0,4,1.8423955171944245e-13
5.155,0.0015425553464444616,77.50000000000453,0,60,1.0,4,1.0666500362704563e-13
5.16,0.0009638206637011801,77.50000000000261,0,60,1.0,4,6.152464159052161e-14
5.165,0.0009804935156568228,77.50000000000149,0,60,1.0,4,3.510917047285201e-14
5.17,0.0018793744894085216,77.50000000000085,0,60,1.0,4,2.0062383127344007e-14
5.175,0.004535525206900863,77.50000000000048,0,60,1.0,4,1.1368683772161604e-14
5.18,0.010832767979632273,77.50000000000027,0,60,1.0,4,6.353087990325602e-15
5.185,0.024208003392322392,77.50000000000016,0,60,1.0,4,3.678103573346401e-15
5.19,0.0500971897335304,77.50000000000009,0,60,1.0,4,2.0062383127344005e-15
5.195,0.09582894921774403,77.50000000000004,0,60,1.0,4,1.0031191563672002e-15
5.2,0.16937896721820658,77.50000000000003,0,60,1.0,4,6.687461042448002e-16
5.205,0.27661303008991756,77.50000000000001,0,60,1.0,4,3.343730521224001e-16
5.21,0.4173782800009149,77.50000000000001,0,60,1.0,4,3.343730521224001e-16
5.215,0.5818720934538056,77.5,0,60,1.0,4,0.0
5.22,0.7494718801585675,77.5,0,60,1.0,4,0.0
5.225,0.891813020752378,77.5,0,60,1.0,4,0.0
5.23,0.9800361632936612,77.5,0,60,1.0,4,0.0
5.235,0.993574479225126,77.5000024966485,1,60,1.0,4,5.874467072263702e-08
5.24,0.9263438449375362,77.50000388454893,0,60,1.0,4,9.140115132729132e-08
5.245,0.7873015962290536,77.50000618232913,0,60,1.0,4,1.454665677743726e-07
5.25,0.5959516244629897,77.5000101847726,0,60,1.0,4,2.396417083700191e-07
5.255,0.376910120078773,77.50001756083037,0,60,1.0,4,4.1319600875474007e-07
5.26,0.15739335672107918,77.50003188149957,0,60,1.0,4,7.501529309780274e-07
5.265,-0.033361226269301235,77.50006080365405,0,60,1.0,4,1.4306742129707239e-06
5.27,-0.1680180840843834,77.50012058486693,0,60,1.0,4,2.8372909866902773e-06
5.275,-0.23069703190837854,77.50024513995355,0,60,1.0,4,5.7679989070306076e-06
5.28,-0.22587267821131068,77.50050363241509,0,60,1.0,4,1.1850174472690068e-05
5.285,-0.17718181630665902,77.50103350758017,0,60,1.0,4,2.4317825415878626e-05
5.29,-0.11494332516451301,77.50210036935763,0,60,1.0,4,4.942045547375742e-05
5.295,-0.061810214049552864,77.50420258594323,0,60,1.0,4,9.888437513489087e-05
5.3,-0.026546104631500547,77.50824711533218,0,60,1.0,4,0.00019404977252192754
5.305,-0.00719600351942686,77.51583324529174,0,60,1.0,4,0.0003725469480410565
5.31,0.0022072757983807078,77.52969102922935,0,60,1.0,4,0.0006986124524554029
5.315,0.006917199873730717,77.55432766935884,0,60,1.0,4,0.0012782981025609656
5.32,0.01004859748264829,77.5969322368778,0,60,1.0,4,0.0022807585147718865
5.325,0.013037082251128167,77.66856909864642,0,60,1.0,4,0.003966331732856829
5.33,0.01645163937690478,77.78564441251984,0,60,1.0,4,0.006721045000466909
5.335,0.020526639934696615,77.97155076923681,0,60,1.0,4,0.011095312217336789
5.34,0.02539629541761738,78.2582808201053,0,60,1.0,4,0.017841901649536432
5.345,0.031171612185577933,78.68766052792253,0,60,1.0,4,0.027944953598177214
5.35,0.03795853426638131,79.31171075246023,0,60,1.0,4,0.04262848829318186
5.355,0.0458588961882057,80.19154347445966,0,60,1.0,4,0.06333043469316856
5.36,0.054966995891435555,81.39419054317591,0,60,1.0,4,0.09162801278060964
5.365,0.06536491004445595,82.9869047835598,0,60,1.0,4,0.1291036419661128
5.37,0.07711726085088699,85.02880519220997,0,60,1.0,4,0.17714835746376406
5.375,0.09026570629555215,87.56025991780172,0,60,1.0,4,0.23671199806592272
5.38,0.10482339848670268,90.59105402879193,0,60,1.0,4,0.3080248006774572
5.385,0.12076968927580028,94.08904924277502,0,60,1.0,4,0.3903305704182357
5.39,0.13804539501007884,97.97153364558193,0,60,1.0,4,0.48168314460192774
5.395,0.15654895051787066,102.10159121830677,0,60,1.0,4,0.5788609698425121
5.4,0.17613378141900526,106.29144711748273,0,60,1.0,4,0.6774458145290054
5.405,0.19660720058055794,110.31382182199403,0,60,1.0,4,0.7720899252233888
5.41,0.21773108748496234,113.92095766616347,0,60,1.0,4,0.8569637097920817
5.415,0.23922453870058807,116.86941633089845,0,60,1.0,4,0.9263392077858458
5.42,0.2607685857914563,118.94734075580467,0,60,1.0,4,0.9752315471954041
5.425,0.2820129681603682,120.0,0,60,1.0,4,1.0
5.43,0.30258482867153996,119.94936806517826,0,60,1.0,4,0.9988086603571356
5.435,0.3220990771751686,118.80431883209974,0,60,1.0,4,0.9718663254611704
5.44,0.3401700499968971,116.65961054384493,0,60,1.0,4,0.9214026010316455
5.445,0.3564239911198326,113.6838413525704,0,60,1.0,4,0.8513845024134211
5.45,0.3705118017738417,110.09852371838782,0,60,1.0,4,0.7670240874914782
5.455,0.3821214567925213,106.15190294941635,0,60,1.0,4,0.6741624223392083
5.46,0.39098947374066967,102.09182171295444,0,60,1.0,4,0.5786310991283398
5.465,0.3969108472035567,98.14171008969322,0,60,1.0,4,0.48568729622807577
5.47,0.3997469255491936,94.48278858522536,0,60,1.0,4,0.39959502553471443
5.475,0.3994308076379137,91.24411073570738,0,60,1.0,4,0.32339084084017367
5.48,0.3959699661768434,88.50051791606685,0,60,1.0,4,0.2588357156721613
5.485,0.38944595408114946,86.27727400892925,0,60,1.0,4,0.20652409432774715
5.49,0.38001120995358023,84.55931872476093,0,60,1.0,4,0.1661016170531983
5.495,0.3678831374098315,83.3028005744429,0,60,1.0,4,0.13653648410453878
5.5,0.35333577933796634,82.44675842842192,0,60,1.0,4,0.1163943159628686
5.505,0.33668953221163944,81.9233555217599,0,60,1.0,4,0.10407895345317417
5.51,0.3182994390982644,81.6657405782961,0,60,1.0,4,0.09801742537167282
5.515,0.29854265738230645,81.61324823680155,0,60,1.0,4,0.0967823114541542
5.52,0.2778057157821067,81.71414190823803,0,60,1.0,4,0.09915628019383609
5.525,0.2564721553719815,81.92639917335062,0,60,1.0,4,0.10415056878472041
5.53,0.23491109433464996,82.21715152529522,0,60,1.0,4,0.1109918005951817
5.535,0.21346717185309805,82.56136080468661,0,60,1.0,4,0.11909084246321447
5.54,0.19245222055656455,82.94020128362216,0,60,1.0,4,0.12800473608522728
5.545,0.17213889801761392,83.33947177339249,0,60,1.0,4,0.13739933584452915
5.55,0.15275638501270183,83.74822470521731,0,60,1.0,4,0.14701705188746614
5.555,0.13448814019607322,84.1576901961562,0,60,1.0,4,0.1566515340272046
5.56,0.11747159495449566,84.56049942906901,0,60,1.0,4,0.16612939833103557
5.565,0.10179958433370105,84.95017025612171,0,60,1.0,4,0.17529812367345196
5.57,0.08752324394101413,85.32080099438407,0,60,1.0,4,0.18401884692668405
5.575,0.07465606047174059,85.66691715781909,0,60,1.0,4,0.19216275665456672
5.58,0.0631787448609295,85.98342289070791,0,60,1.0,4,0.19960995036959797
5.585,0.05304460019959574,86.26561884786955,0,60,1.0,4,0.20624985524398934
5.59,0.044185078305849994,86.50925808244908,0,60,1.0,4,0.21198254311644893
5.595,0.03651525513023255,86.71061970560895,0,60,1.0,4,0.21672046366138703
5.6,0.0299390014708757,86.86658630913784,0,60,1.0,4,0.22039026609736104
5.605,0.024353677220580638,86.97471559675341,0,60,1.0,4,0.22293448462949206
5.61,0.01965423034339045,87.03329977142683,0,60,1.0,4,0.22431293579827827
5.615,0.015736632374757337,87.04140840180983,0,60,1.0,4,0.2245037271014078
5.62,0.012500627640593535,86.99891208474476,0,60,1.0,4,0.2235038137587002
5.625,0.009851811652115898,86.90648547061232,0,60,1.0,4,0.22132906989676057
5.63,0.007703084175428559,86.76558926724239,0,60,1.0,4,0.21801386511158566
5.635,0.005975544002062424,86.5784317591195,0,60,1.0,4,0.2136101590381058
5.64,0.004598905818663047,86.34791119812435,0,60,1.0,4,0.20818614583822
5.645,0.0035115256454839104,86.07754113966531,0,60,1.0,4,0.20182449740388975
5.65,0.002660121266303676,85.77136140052126,0,60,1.0,4,0.19462026824755901
5.655,0.0019992692560877024,85.43383778522907,0,60,1.0,4,0.18667853612303703
5.66,0.0014907520044639367,85.06975405182008,0,60,1.0,4,0.1781118600428255
5.665,0.0011028178277539807,84.68409975610096,0,60,1.0,4,0.16903764132002266
5.67,0.0008094059938923333,84.2819576246531,0,60,1.0,4,0.15957547352124948
5.675,0.0005893771793717645,83.86839396614698,0,60,1.0,4,0.14984456390934076
5.68,0.0004257792353490551,83.44835535165316,0,60,1.0,4,0.13996130239183913
5.685,0.0003051686392901525,83.02657439701731,0,60,1.0,4,0.13003704463570148
5.69,0.00021699992642659966,82.6074869887465,0,60,1.0,4,0.12017616444109415
5.695,0.00015308884054097838,82.19516273734413,0,60,1.0,4,0.11047441734927374
5.7,0.00010714989329311098,81.7932498483948,0,60,1.0,4,0.1010176434916422
5.705,7.440535854020571e-05,81.40493500158567,0,60,1.0,4,0.09188082356672166
5.71,5.1260276743925106e-05,81.03291824914021,0,60,1.0,4,0.08312748821506374
5.715,3.503659887882241e-05,80.6794024125245,0,60,1.0,4,0.07480946852998814
5.72,2.375894748103639e-05,80.34609599014749,0,60,1.0,4,0.06696696447405857
5.725,1.5984413869232557e-05,80.03422820440662,0,60,1.0,4,0.05962889892721451
5.73,1.0669166579899869e-05,79.74457452363798,0,60,1.0,4,0.05281351820324657
5.735,7.06526633560511e-06,79.4774907976045,0,60,1.0,4,0.04652919523775301
5.74,4.641847214699205e-06,79.23295404316598,0,60,1.0,4,0.04077538925096412
5.745,3.025641074479182e-06,79.01060790415472,0,60,1.0,4,0.035543715391875876
5.75,1.9566278676921314e-06,78.80981087682954,0,60,1.0,4,0.030819079454812815
5.755,1.2553456560008793e-06,78.62968552729907,0,60,1.0,4,0.0265808359364488
5.76,7.990660428214668e-07,78.4691671158064,0,60,1.0,4,0.022803932136621168
5.765,5.046221251618276e-07,78.32705026967079,0,60,1.0,4,0.01946000634519511
5.77,3.1616527078858815e-07,78.2020325969465,0,60,1.0,4,0.01651841404579988
5.775,1.9652884407760343e-07,78.0927543922857,0,60,1.0,4,0.013947162171428197
5.78,1.2120002189836396e-07,77.99783384238104,0,60,1.0,4,0.011713737467789209
5.785,7.415549848886236e-08,77.91589737998032,0,60,1.0,4,0.009785820705419343
5.79,4.501406988770349e-08,77.84560505434425,0,60,1.0,4,0.008131883631629347
5.795,0.0,77.78567097606587,0,60,1.0,4,0.006721670025079367
5.8,0.0,77.73487905164139,0,60,1.0,4,0.0055265659209737805
5.805,0.0,77.69209434649721,0,60,1.0,4,0.004519866976405036
5.81,0.0,77.65627050466959,0,60,1.0,4,0.0036769530510492344
5.815,0.0,77.62645371089663,0,60,1.0,4,0.0029753814328618024
5.82,0.0,77.60178370962433,0,60,1.0,4,0.0023949108146900794
5.825,0.0,77.58149239927823,0,60,1.0,4,0.0019174682183113552
5.83,0.0,77.5649005035173,0,60,1.0,4,0.001527070670995138
5.835,0.0,77.55141278863067,0,60,1.0,4,0.001209712673662847
5.84,0.0,77.5405122522104,0,60,1.0,4,0.0009532294637742379
5.845,0.0,77.53175365686594,0,60,1.0,4,0.0007471448674339974
5.85,0.0,77.5247567276939,0,60,1.0,4,0.0005825112398564242
5.855,0.0,77.51919927656837,0,60,1.0,4,0.0004517476839616981
5.86,0.0,77.51481046255032,0,60,1.0,4,0.0003484814717721212
5.865,0.0,77.51136434769356,0,60,1.0,4,0.0002673964163190088
5.87,0.0,77.50867386254117,0,60,1.0,4,0.00020409088332170916
5.875,0.0,77.50658525642717,0,60,1.0,4,0.0001549472100511112
5.88,0.0,77.50497307465665,0,60,1.0,4,0.00011701352133286491
5.885,0.0,77.50373567769842,0,60,1.0,4,8.78982987862454e-05
5.89,0.0,77.50279129638474,0,60,1.0,4,6.567756199394674e-05
5.895,0.0,77.50207460126839,0,60,1.0,4,4.88141474915317e-05
5.9,0.0,77.50153375311476,0,60,1.0,4,3.608830858250739e-05
5.905,0.0,77.50112789431837,0,60,1.0,4,2.653868984406044e-05
5.91,0.0,77.50082503712781,0,60,1.0,4,1.9412638301432976e-05
5.915,0.0,77.50060030327039,0,60,1.0,4,1.4124782832676133e-05
5.92,0.0,77.50043447026465,0,60,1.0,4,1.022282975648469e-05
5.925,0.0,77.50031278184728,0,60,1.0,4,7.35957287728899e-06
5.93,0.0,77.50022398305025,0,60,1.0,4,5.270189417588507e-06
5.935,0.0,77.50015954415629,0,60,1.0,4,3.753980147995903e-06
5.94,0.0,77.50011304172635,0,60,1.0,4,2.659805325907548e-06
5.945,0.0,77.50007966889501,0,60,1.0,4,1.8745622355709203e-06
5.95,0.0,77.50005585099808,0,60,1.0,4,1.3141411313079194e-06
5.955,0.0,77.50003894621133,0,60,1.0,4,9.163814431357263e-07
5.96,0.0,77.50002701416986,0,60,1.0,4,6.356275261008276e-07
5.965,0.0,77.50001863846614,0,60,1.0,4,4.3855214458102745e-07
5.97,0.001684486749771458,77.50001279148142,0,60,1.0,4,3.00976033512972e-07
5.975,0.003097557930867117,77.50000873219956,0,60,1.0,4,2.0546351907689635e-07
5.98,0.005475106668887023,77.5000059295071,0,60,1.0,4,1.3951781404423802e-07
5.985,0.00930222931468658,77.50000400502901,0,60,1.0,4,9.42359767631227e-08
5.99,0.01519157517868857,77.50000269082139,0,60,1.0,4,6.331344446366797e-08
5.995,0.023847336626128316,77.50000179827543,0,60,1.0,4,4.231236316092477e-08
6.0,0.0359830743700859,77.5000011954177,0,60,1.0,4,2.8127475188204484e-08
6.005,0.05218887796857759,77.50000079045161,0,60,1.0,4,1.8598861368659796e-08
6.01,0.0727577001223134,77.50000051990384,0,60,1.0,4,1.2233031424436965e-08
6.015,0.0974992498694751,77.50000034014406,0,60,1.0,4,8.003389532806229e-09
6.02,0.12558706050443358,77.50000022135784,0,60,1.0,4,5.208419692922582e-09
6.025,0.15549263588878245,77.50000014329103,0,60,1.0,5,3.3715537028911058e-09
6.03,0.1850529723539114,77.50000009226464,0,60,1.0,5,2.170932756438132e-09
6.035,0.21169159439317053,77.50000005909403,0,60,1.0,5,1.3904478718733812e-09
6.04,0.23277292922115492,77.5000000376482,0,60,1.0,5,8.858401489466333e-10
6.045,0.24602692519491282,77.50000002385815,0,60,1.0,5,5.613682172706296e-10
6.05,0.24995056064839283,77.50000001503909,0,60,1.0,5,3.538609823461978e-10
6.055,0.24408826520424054,77.50000000942971,0,60,1.0,5,2.2187557934718345e-10
6.06,0.22911894216865275,77.50000000588122,0,60,1.0,5,1.3838162511306377e-10
6.065,0.20672661788705934,77.50000000364862,0,60,1.0,5,8.58499467593741e-11
6.07,0.17928878030241233,77.50000000225155,0,60,1.0,5,5.297773200522095e-11
6.075,0.14946211903866036,77.50000000138206,0,60,1.0,5,3.25191168111119e-11
6.08,0.1197651512573837,77.50000000084385,0,60,1.0,5,1.985540620808024e-11
6.085,0.09224675744988023,77.5000000005125,0,60,1.0,5,1.2058829751742238e-11
6.09,0.06829565320281596,77.50000000030961,0,60,1.0,5,7.28498568659073e-12
6.095,0.04860224607515734,77.50000000018605,0,60,1.0,5,4.377611998386462e-12
6.1,0.03324612389699793,77.50000000011121,0,60,1.0,5,2.6168035059099033e-12
6.105,0.021859876340472782,77.50000000006612,0,60,1.0,5,1.5558378115255276e-12
6.11,0.01381595518554205,77.50000000003911,0,60,1.0,5,9.20194639440845e-13
6.115,0.008394095110402422,77.50000000002301,0,60,1.0,5,5.413499713861657e-13
6.12,0.0049052535271608,77.50000000001346,0,60,1.0,5,3.1665128035991287e-13
6.125,0.0027671663551903634,77.50000000000783,0,60,1.0,5,1.8423955171944245e-13
6.13,0.0015425553464444616,77.50000000000453,0,60,1.0,5,1.0666500362704563e-13
6.135,0.0009638206637011801,77.50000000000261,0,60,1.0,5,6.152464159052161e-14
6.14,0.0009804935156568228,77.50000000000149,0,60,1.0,5,3.510917047285201e-14
6.145,0.0018793744894085216,77.50000000000085,0,60,1.0,5,2.0062383127344007e-14
6.15,0.004535525206900863,77.50000000000048,0,60,1.0,5,1.1368683772161604e-14
6.155,0.010832767979632273,77.50000000000027,0,60,1.0,5,6.353087990325602e-15
6.16,0.024208003392322392,77.50000000000016,0,60,1.0,5,3.678103573346401e-15
6.165,0.0500971897335304,77.50000000000009,0,60,1.0,5,2.0062383127344005e-15
6.17,0.09582894921774403,77.50000000000004,0,60,1.0,5,1.0031191563672002e-15
6.175,0.16937896721820658,77.50000000000003,0,60,1.0,5,6.687461042448002e-16
6.18,0.27661303008991756,77.50000000000001,0,60,1.0,5,3.343730521224001e-16
6.185,0.4173782800009149,77.50000000000001,0,60,1.0,5,3.343730521224001e-16
6.19,0.5818720934538056,77.5,0,60,1.0,5,0.0
6.195,0.7494718801585675,77.5,0,60,1.0,5,0.0
6.2,0.891813020752378,77.5,0,60,1.0,5,0.0
6.205,0.9800361632936612,77.5,0,60,1.0,5,0.0
6.21,0.993574479225126,77.50000249606323,1,60,1.0,5,5.8730899568485364e-08
6.215,0.9263438449375362,77.5000038398575,0,60,1.0,5,9.034958820313264e-08
6.22,0.7873015962290536,77.500006033868,0,60,1.0,5,1.4197336480826967e-07
6.225,0.5959516244629897,77.50000979196264,0,60,1.0,5,2.303991209373635e-07
6.23,0.376910120078773,77.50001658325932,0,60,1.0,5,3.9019433703448587e-07
6.235,0.15739335672107918,77.50002948944842,0,60,1.0,5,6.938693746526362e-07
6.24,-0.033361226269301235,77.50005499618474,0,60,1.0,5,1.2940278763300524e-06
6.245,-0.1680180840843834,77.50010664152244,0,60,1.0,5,2.509212292606582e-06
6.25,-0.23069703190837854,77.50021223841208,0,60,1.0,5,4.993844990006919e-06
6.255,-0.22587267821131068,77.50042774487464,0,60,1.0,5,1.006458528569751e-05
6.26,-0.17718181630665902,77.50086306382961,0,60,1.0,5,2.0307384226177473e-05
6.265,-0.11494332516451301,77.50172846110615,0,60,1.0,5,4.0669673085978825e-05
6.27,-0.061810214049552864,77.5034152292072,0,60,1.0,5,8.035833428721162e-05
6.275,-0.026546104631500547,77.5066308676186,0,60,1.0,5,0.00015602041455522073
6.28,-0.00719600351942686,77.51261714788687,0,60,1.0,5,0.0002968740679263834
6.285,0.0022072757983807078,77.5234879390857,0,60,1.0,5,0.000552657390251705
6.29,0.006917199873730717,77.5427303078502,0,60,1.0,5,0.00100541900824015
6.295,0.01004859748264829,77.57591328443115,0,60,1.0,5,0.001786194927791819
6.3,0.013037082251128167,77.63163821024733,0,60,1.0,5,0.0030973696528783824
6.305,0.01645163937690478,77.7227359889992,0,60,1.0,5,0.005240846799981281
6.31,0.020526639934696615,77.86766338596527,0,60,1.0,5,0.008650903199182882
6.315,0.02539629541761738,78.09196918540792,0,60,1.0,5,0.013928686715480447
6.32,0.031171612185577933,78.42959438652437,0,60,1.0,5,0.021872809094691092
6.325,0.03795853426638131,78.9236517302522,0,60,1.0,5,0.03349768777064007
6.33,0.0458588961882057,79.62622444184039,0,60,1.0,5,0.05002881039624453
6.335,0.054966995891435555,80.5966700411891,0,60,1.0,5,0.07286282449856706
6.34,0.06536491004445595,81.89795705296187,0,60,1.0,5,0.10348134242263227
6.345,0.07711726085088699,83.590740736457,0,60,1.0,5,0.14331154674016455
6.35,0.09026570629555215,85.72521884287897,0,60,1.0,5,0.19353456100891703
6.355,0.10482339848670268,88.3312835786459,0,60,1.0,5,0.25485373126225636
6.36,0.12076968927580028,91.40803681418913,0,60,1.0,5,0.32724792503974426
6.365,0.13804539501007884,94.91424919828907,0,60,1.0,5,0.4097470399597428
6.37,0.15654895051787066,98.7616754538298,0,60,1.0,5,0.5002747165607011
6.375,0.17613378141900526,102.81314459839467,0,60,1.0,5,0.5956034023151687
6.38,0.19660720058055794,106.88692793605124,0,60,1.0,5,0.6914571279070879
6.385,0.21773108748496234,110.76804090701927,0,60,1.0,5,0.7827774331063357
6.39,0.23922453870058807,114.22596317855158,0,60,1.0,5,0.8641403100835666
6.395,0.2607685857914563,117.0369802382121,0,60,1.0,5,0.9302818879579317
6.4,0.2820129681603682,119.00824368351186,0,60,1.0,5,0.9766645572591027
6.405,0.30258482867153996,120.0,0,60,1.0,5,1.0
6.41,0.3220990771751686,119.94245116636986,0,60,1.0,5,0.998645909796938
6.415,0.3401700499968971,118.84443995887491,0,60,1.0,5,0.9728103519735274
6.42,0.3564239911198326,116.79247804582917,0,60,1.0,5,0.9245288951959805
6.425,0.3705118017738417,113.94028233815197,0,60,1.0,5,0.857418407956517
6.43,0.3821214567925213,110.4905961503334,0,60,1.0,5,0.7762493211843153
6.435,0.39098947374066967,106.67229771772733,0,60,1.0,5,0.686407005122996
6.44,0.3969108472035567,102.71639188641603,0,60,1.0,5,0.5933268679156714
6.445,0.3997469255491936,98.83435529010902,0,60,1.0,5,0.5019848303555062
6.45,0.3994308076379137,95.20154861737079,0,60,1.0,5,0.4165070262910774
6.455,0.3959699661768434,91.94724589020063,0,60,1.0,5,0.3399351974164855
6.46,0.38944595408114946,89.1515501373611,0,60,1.0,5,0.2741541208790847
6.465,0.38001120995358023,86.84834318674413,0,60,1.0,5,0.21996101615868544
6.47,0.3678831374098315,85.03265064487029,0,60,1.0,5,0.17723883870283028
6.475,0.35333577933796634,83.67047424017679,0,60,1.0,5,0.1451876291806303
6.48,0.33668953221163944,82.70922389874646,0,60,1.0,5,0.12256997408815196
6.485,0.3182994390982644,82.08726133343396,0,60,1.0,5,0.10793556078668136
6.49,0.29854265738230645,81.74159879534122,0,60,1.0,5,0.09980232459626397
6.495,0.2778057157821067,81.61334027722147,0,60,1.0,5,0.09678447711109336
6.5,0.2564721553719815,81.6509036668351,0,60,1.0,5,0.09766832157259073
6.505,0.23491109433464996,81.81136644357802,0,60,1.0,5,0.10144391631948291
6.51,0.21346717185309805,82.06042651697676,0,60,1.0,5,0.10730415334062968
6.515,0.19245222055656455,82.37148928088116,0,60,1.0,5,0.11462327719720386
6.52,0.17213889801761392,82.72432417484066,0,60,1.0,5,0.12292527470213319
6.525,0.15275638501270183,83.10362302191093,0,60,1.0,5,0.13184995345672787
6.53,0.13448814019607322,83.49767392349987,0,60,1.0,5,0.14112173937646763
6.535,0.11747159495449566,83.89726171789964,0,60,1.0,5,0.15052380512705033
6.54,0.10179958433370105,84.29482974674242,0,60,1.0,5,0.15987834698217465
6.545,0.08752324394101413,84.68388923933297,0,60,1.0,5,0.16903268798430518
6.55,0.07465606047174059,85.05863764443257,0,60,1.0,5,0.17785029751606035
6.555,0.0631787448609295,85.41373904216793,0,60,1.0,5,0.18620562452159842
6.56,0.05304460019959574,85.74422176195922,0,60,1.0,5,0.19398168851668762
6.565,0.044185078305849994,86.0454552613927,0,60,1.0,5,0.20106953556218127
6.57,0.03651525513023255,86.31317664893982,0,60,1.0,5,0.20736886232799567
6.575,0.0299390014708757,86.54354497329876,0,60,1.0,5,0.2127892934893827
6.58,0.024353677220580638,86.73320770957436,0,60,1.0,5,0.21725194610763196
6.585,0.01965423034339045,86.87936861096367,0,60,1.0,5,0.22069102614032157
6.59,0.015736632374757337,86.97984948291244,0,60,1.0,5,0.223055281950881
6.595,0.012500627640593535,87.03314081261668,0,60,1.0,5,0.2243091955909807
6.6,0.009851811652115898,87.03843787511315,0,60,1.0,5,0.22443383235560344
6.605,0.007703084175428559,86.99566019345913,0,60,1.0,5,0.2234272986696266
6.61,0.005975544002062424,86.90545322943116,0,60,1.0,5,0.22130478186896846
6.615,0.004598905818663047,86.76917202771214,0,60,1.0,5,0.2180981653579328
6.62,0.0035115256454839104,86.58884728386485,0,60,1.0,5,0.21385523020858474
6.625,0.002660121266303676,86.36713497361453,0,60,1.0,5,0.2086384699674006
6.63,0.0019992692560877024,86.10725126733229,0,60,1.0,5,0.20252355923134793
6.635,0.0014907520044639367,85.81289494876535,0,60,1.0,5,0.19559752820624346
6.64,0.0011028178277539807,85.48815994788507,0,60,1.0,5,0.1879567046561192
6.645,0.0008094059938923333,85.13744087266727,0,60,1.0,5,0.17970449112158282
6.65,0.0005893771793717645,84.76533457621503,0,60,1.0,5,0.17094904885211823
6.655,0.0004257792353490551,84.37654082180066,0,60,1.0,5,0.1618009605129567
6.66,0.0003051686392901525,83.97576501288177,0,60,1.0,5,0.15237094147957095
6.665,0.00021699992642659966,83.5676257473155,0,60,1.0,5,0.14276766464271773
6.67,0.00015308884054097838,83.1565696492459,0,60,1.0,5,0.1330957564528446
6.675,0.00010714989329311098,82.74679554691296,0,60,1.0,5,0.12345401286854031
6.68,7.440535854020571e-05,82.34218962124325,0,60,1.0,5,0.11393387344101764
6.685,5.1260276743925106e-05,81.94627267143458,0,60,1.0,5,0.10461818050434317
6.69,3.503659887882241e-05,81.5621601530088,0,60,1.0,5,0.0955802388943248
6.695,2.375894748103639e-05,81.19253516317026,0,60,1.0,5,0.08688318030988854
6.7,1.5984413869232557e-05,80.83963409787519,0,60,1.0,5,0.07857962583235743
6.705,1.0669166579899869e-05,80.5052443018934,0,60,1.0,5,0.07071163063278585
6.71,7.06526633560511e-06,80.19071269077197,0,60,1.0,5,0.06331088684169352
6.715,4.641847214699205e-06,79.89696405136633,0,60,1.0,5,0.056399154149795884
6.72,3.025641074479182e-06,79.6245275306656,0,60,1.0,5,0.04998888307448477
6.725,1.9566278676921314e-06,79.37356970210506,0,60,1.0,5,0.044083992990707255
6.73,1.2553456560008793e-06,79.14393255178399,0,60,1.0,5,0.03868076592432919
6.735,7.990660428214668e-07,78.93517474813203,0,60,1.0,5,0.03376881760310653
6.74,5.046221251618276e-07,78.74661463915068,0,60,1.0,5,0.029332109156486548
6.745,3.1616527078858815e-07,78.57737355111618,0,60,1.0,5,0.02534996590861604
6.75,1.9652884407760343e-07,78.42641813017309,0,60,1.0,5,0.021798073651131532
6.755,1.2120002189836396e-07,78.29260066180315,0,60,1.0,5,0.01864942733654469
6.76,7.415549848886236e-08,78.17469651121884,0,60,1.0,5,0.0158752120286786
6.765,4.501406988770349e-08,78.07143803963184,0,60,1.0,5,0.013445600932513959
6.77,0.0,77.98154455767332,0,60,1.0,5,0.011330460180548632
6.775,0.0,77.9037480701592,0,60,1.0,5,0.009499954591981082
6.78,0.0,77.83681473981095,0,60,1.0,5,0.00792505270143405
6.785,0.0,77.7795621471775,0,60,1.0,5,0.006577932874764723
6.79,0.0,77.730872547324,0,60,1.0,5,0.005432295231152881
6.795,0.0,77.68970241993146,0,60,1.0,5,0.0044635863513285716
6.8,0.0,77.65508867876439,0,60,1.0,5,0.0036491453826914388
6.805,0.0,77.62615195063168,0,60,1.0,5,0.002968281191333651
6.81,0.0,77.60209735548692,0,60,1.0,5,0.0024022907173392627
6.815,0.0,77.58221322128246,0,60,1.0,5,0.001934428736057846
6.82,0.0,77.56586815304183,0,60,1.0,5,0.001549838895101964
6.825,0.0,77.5525068488899,0,60,1.0,5,0.0012354552679977695
6.83,0.0,77.54164501992928,0,60,1.0,5,0.0009798828218653371
6.835,0.0,77.53286372908609,0,60,1.0,5,0.0007732642137903119
6.84,0.0,77.52580341921859,0,60,1.0,5,0.0006071392757315366
6.845,0.0,77.5201578553129,0,60,1.0,5,0.0004743024779506467
6.85,0.0,77.51566816144691,0,60,1.0,5,0.0003686626222802528
6.855,0.0,77.51211709188321,0,60,1.0,5,0.0002851080443108725
6.86,0.0,77.50932363821491,0,60,1.0,5,0.0002193797227037334
6.865,0.0,77.50713804159365,0,60,1.0,5,0.00016795391985056086
6.87,0.0,77.50543725103012,0,60,1.0,5,0.00012793531835567966
6.875,0.0,77.5041208456039,0,60,1.0,5,9.69610730327772e-05
6.88,0.0,77.5031074199587,0,60,1.0,5,7.311576373400813e-05
6.885,0.0,77.50233141833475,0,60,1.0,5,5.485690199407145e-05
6.89,0.0,77.50174039213948,0,60,1.0,5,4.095040328192066e-05
6.895,0.0,77.501292649158,0,60,1.0,5,3.0415274305957664e-05
6.9,0.0,77.50095525841263,0,60,1.0,5,2.2476668532496712e-05
6.905,0.0,77.50070237286243,0,60,1.0,5,1.6526420292580843e-05
6.91,0.0,77.50051383209139,0,60,1.0,5,1.2090166856135992e-05
6.915,0.0,77.50037400841595,0,60,1.0,5,8.800198022259686e-06
6.92,0.0,77.50027086205799,0,60,1.0,5,6.37322489383758e-06
6.925,0.0,77.50019517384675,0,60,1.0,5,4.5923258058417775e-06
6.93,0.0,77.50013992706306,0,60,1.0,5,3.292401483764372e-06
6.935,0.0,77.50009981331155,0,60,1.0,5,2.348548507063028e-06
6.94,0.0,77.5000708405394,0,60,1.0,5,1.6668362210272307e-06
6.945,0.0,77.50005002440169,0,60,1.0,5,1.177044745592117e-06
6.95,0.0,77.50003514702703,0,60,1.0,5,8.269888714012803e-07
6.955,0.0,77.50002456981785,0,60,1.0,5,5.781133612505501e-07
6.96,0.0,77.50001708920767,0,60,1.0,5,4.0209900409054705e-07
6.965,0.0,77.50001182629116,0,60,1.0,5,2.782656742831879e-07
6.97,0.001684486749771458,77.50000814295163,0,60,1.0,5,1.9159886184805894e-07
6.975,0.003097557930867117,77.50000557855593,0,60,1.0,5,1.312601394896346e-07
6.98,0.005475106668887023,77.5000038024926,0,60,1.0,5,8.947041411535312e-08
6.985,0.00930222931468658,77.50000257882347,0,60,1.0,5,6.067819928081436e-08
6.99,0.01519157517868857,77.5000017401292,0,60,1.0,5,4.0944216634135744e-08
6.995,0.023847336626128316,77.50000116828292,0,60,1.0,5,2.748900990755989e-08
7.0,0.0359830743700859,77.50000078040709,0,60,1.0,5,1.836251980795864e-08
7.005,0.05218887796857759,77.50000051868184,0,60,1.0,5,1.220427868568496e-08
7.01,0.0727577001223134,77.50000034299478,0,60,1.0,5,8.070465435808086e-09
7.015,0.0974992498694751,77.50000022567355,0,60,1.0,5,5.3099657794946855e-09
7.02,0.12558706050443358,77.50000014773399,0,60,1.0,5,3.4760937657719136e-09
7.025,0.15549263588878245,77.50000009622477,0,60,1.0,5,2.2641121605000295e-09
7.03,0.1850529723539114,77.5000000623591,0,60,1.0,5,1.4672730899559718e-09
7.035,0.21169159439317053,77.50000004020866,0,60,1.0,5,9.460861479858388e-10
7.04,0.23277292922115492,77.50000002579563,0,60,1.0,5,6.069559704508933e-10
7.045,0.24602692519491282,77.50000001646566,0,60,1.0,5,3.874273555565571e-10
7.05,0.24995056064839283,77.50000001045728,0,60,1.0,5,2.460537603731021e-10
7.055,0.24408826520424054,77.50000000660792,0,60,1.0,5,1.5548045987944693e-10
7.06,0.22911894216865275,77.50000000415449,0,60,1.0,5,9.775262429577518e-11
7.065,0.20672661788705934,77.50000000259882,0,60,1.0,5,6.114880627993604e-11
7.07,0.17928878030241233,77.5000000016175,0,60,1.0,5,3.80586751656237e-11
7.075,0.14946211903866036,77.50000000100165,0,60,1.0,5,2.356828457884737e-11
7.08,0.1197651512573837,77.50000000061716,0,60,1.0,5,1.4521487280623714e-11
7.085,0.09224675744988023,77.50000000037834,0,60,1.0,5,8.902013766654657e-12
7.09,0.06829565320281596,77.50000000023077,0,60,1.0,5,5.4298839934156554e-12
7.095,0.04860224607515734,77.50000000014005,0,60,1.0,5,3.2952464286662528e-12
7.1,0.03324612389699793,77.50000000008457,0,60,1.0,5,1.989854033180403e-12
7.105,0.021859876340472782,77.5000000000508,0,60,1.0,5,1.1953836613375804e-12
7.11,0.01381595518554205,77.50000000003037,0,60,1.0,5,7.14555212385569e-13
7.115,0.008394095110402422,77.50000000001806,0,60,1.0,5,4.249881492475705e-13
7.12,0.0049052535271608,77.50000000001069,0,60,1.0,5,2.514485351960449e-13
7.125,0.0027671663551903634,77.5000000000063,0,60,1.0,5,1.4812726209022324e-13
7.13,0.0015425553464444616,77.50000000000368,0,60,1.0,5,8.660262049970162e-14
7.135,0.0009638206637011801,77.50000000000215,0,60,1.0,5,5.049033087048241e-14
7.14,0.0009804935156568228,77.50000000000125,0,60,1.0,5,2.942482858677121e-14
7.145,0.0018793744894085216,77.50000000000072,0,60,1.0,5,1.7053025658242404e-14
7.15,0.004535525206900863,77.50000000000041,0,60,1.0,5,9.696818511549603e-15
7.155,0.010832767979632273,77.50000000000024,0,60,1.0,5,5.684341886080802e-15
7.16,0.024208003392322392,77.50000000000013,0,60,1.0,5,3.0093574691016007e-15
7.165,0.0500971897335304,77.50000000000007,0,60,1.0,5,1.6718652606120004e-15
7.17,0.09582894921774403,77.50000000000004,0,60,1.0,5,1.0031191563672002e-15
7.175,0.16937896721820658,77.50000000000003,0,60,1.0,5,6.687461042448002e-16
7.18,0.27661303008991756,77.50000000000001,0,60,1.0,5,3.343730521224001e-16
7.185,0.4173782800009149,77.5,0,60,1.0,5,0.0
7.19,0.5818720934538056,77.5,0,60,1.0,5,0.0
7.195,0.7494718801585675,77.5,0,60,1.0,5,0.0
7.2,0.891813020752378,77.5,0,60,1.0,5,0.0
7.205,0.9800361632936612,77.5,0,60,1.0,5,0.0
7.21,0.993574479225126,77.50000249139023,1,60,1.0,5,5.8620946674636797e-08
7.215,0.9263438449375362,77.50000376052796,0,60,1.0,5,8.848301082680872e-08
7.22,0.7873015962290536,77.50000578513924,0,60,1.0,5,1.3612092322332234e-07
7.225,0.5959516244629897,77.5000091579802,0,60,1.0,5,2.154818870996464e-07
7.23,0.376910120078773,77.50001505836897,0,60,1.0,6,3.543145640726246e-07
7.235,0.15739335672107918,77.50002587869582,0,60,1.0,6,6.089104899461638e-07
7.24,-0.033361226269301235,77.50004649699626,0,60,1.0,6,1.0940469708737725e-06
7.245,-0.1680180840843834,77.50008680317602,0,60,1.0,6,2.0424276710052845e-06
7.25,-0.23069703190837854,77.50016658731606,0,60,1.0,6,3.919701554329603e-06
7.255,-0.22587267821131068,77.50032474291724,0,60,1.0,6,7.641009817488714e-06
7.26,-0.17718181630665902,77.50063610135163,0,60,1.0,6,1.4967090626615734e-05
7.265,-0.11494332516451301,77.50124131258302,0,60,1.0,6,2.9207354894571623e-05
7.27,-0.061810214049552864,77.50239824825009,0,60,1.0,6,5.642937059031497e-05
7.275,-0.026546104631500547,77.50456759257776,0,60,1.0,6,0.00010747276653546577
7.28,-0.00719600351942686,77.50855058142282,0,60,1.0,6,0.0002011901511252745
7.285,0.0022072757983807078,77.51570284384508,0,60,1.0,6,0.00036947867870768436
7.29,0.006917199873730717,77.52825395493905,0,60,1.0,6,0.0006647989397422675
7.295,0.01004859748264829,77.54976569421956,0,60,1.0,6,0.0011709575110484473
7.3,0.013037082251128167,77.5857601339296,0,60,1.0,6,0.002017885504225807
7.305,0.01645163937690478,77.64453758522743,0,60,1.0,6,0.0034008843582923605
7.31,0.020526639934696615,77.73817965091258,0,60,1.0,6,0.005604227080296114
7.315,0.02539629541761738,77.88369031720576,0,60,1.0,6,0.009028007463664982
7.32,0.031171612185577933,78.10416663980739,0,60,1.0,6,0.014215685642526791
7.325,0.03795853426638131,78.42981313776151,0,60,1.0,6,0.021877956182623847
7.33,0.0458588961882057,78.89853018034714,0,60,1.0,6,0.03290659247875617
7.335,0.054966995891435555,79.55573409317718,0,60,1.0,6,0.048370213957110095
7.34,0.06536491004445595,80.45303044725968,0,60,1.0,6,0.06948306934728654
7.345,0.07711726085088699,81.64539097427853,0,60,1.0,6,0.09753861115949476
7.35,0.09026570629555215,83.18660494373995,0,60,1.0,6,0.13380246926446943
7.355,0.10482339848670268,85.12300174645496,0,60,1.0,6,0.17936474697541083
7.36,0.12076968927580028,87.48576495824913,0,60,1.0,6,0.23495917548821493
7.365,0.13804539501007884,90.28254200263947,0,60,1.0,6,0.30076569417975235
7.37,0.15654895051787066,93.48942975254927,0,60,1.0,6,0.37622187653057104
7.375,0.17613378141900526,97.04469433904943,0,60,1.0,6,0.4598751609188101
7.38,0.19660720058055794,100.84566747931606,0,60,1.0,6,0.5493098230427309
7.385,0.21773108748496234,104.75007651205806,0,60,1.0,6,0.6411782708719543
7.39,0.23922453870058807,108.58258275619238,0,60,1.0,6,0.7313548883809972
7.395,0.2607685857914563,112.14656143441806,0,60,1.0,6,0.8152132102216014
7.4,0.2820129681603682,115.24026680811104,0,60,1.0,6,0.888006277837907
7.405,0.30258482867153996,117.67565593817305,0,60,1.0,6,0.9453095514864247
7.41,0.3220990771751686,119.29748398220576,0,60,1.0,6,0.983470211346018
7.415,0.3401700499968971,120.0,0,60,1.0,6,1.0
7.42,0.3564239911198326,119.7387621706832,0,60,1.0,6,0.9938532275454871
7.425,0.3705118017738417,118.53575115235756,0,60,1.0,6,0.965547085937825
7.43,0.3821214567925213,116.47697822420253,0,60,1.0,6,0.9171053699812359
7.435,0.39098947374066967,113.70296361884692,0,60,1.0,6,0.8518344380905158
7.44,0.3969108472035567,110.393563775345,0,60,1.0,6,0.773966206478706
7.445,0.3997469255491936,106.74943620103264,0,60,1.0,6,0.6882220282595914
7.45,0.3994308076379137,102.97279990086051,0,60,1.0,6,0.5993599976673061
7.455,0.3959699661768434,99.25003347332596,0,60,1.0,6,0.5117654934900225
7.46,0.38944595408114946,95.7381145482657,0,60,1.0,6,0.42913210701801646
7.465,0.38001120995358023,92.55608938589815,0,60,1.0,6,0.35426092672701526
7.47,0.3678831374098315,89.7818575440192,0,60,1.0,6,0.28898488338868716
7.475,0.35333577933796634,87.453744354679,0,60,1.0,6,0.23420574952185888
7.48,0.33668953221163944,85.57574792628522,0,60,1.0,6,0.19001759826553452
7.485,0.3182994390982644,84.12505302927431,0,60,1.0,6,0.15588360068880736
7.49,0.29854265738230645,83.0603961912281,0,60,1.0,6,0.1308328515583081
7.495,0.2778057157821067,82.3300836902668,0,60,1.0,6,0.11364902800627774
7.5,0.2564721553719815,81.87881559630338,0,60,1.0,6,0.10303095520713842
7.505,0.23491109433464996,81.6528595246467,0,60,1.0,6,0.09771434175639296
7.51,0.21346717185309805,81.60346956710463,0,60,1.0,6,0.09655222510834412
7.515,0.19245222055656455,81.68871007401282,0,60,1.0,6,0.09855788409441923
7.52,0.17213889801761392,81.8740024653264,0,60,1.0,6,0.1029177050665035
7.525,0.15275638501270183,82.13177315412165,0,60,1.0,6,0.10898289774403873
7.53,0.13448814019607322,82.44056487187486,0,60,1.0,6,0.11624858522058483
7.535,0.11747159495449566,82.78391106045508,0,60,1.0,6,0.12432731906953136
7.54,0.10179958433370105,83.14919058750824,0,60,1.0,6,0.13292213147078222
7.545,0.08752324394101413,83.52659842945575,0,60,1.0,6,0.141802315987194
7.55,0.07465606047174059,83.90829969926973,0,60,1.0,6,0.15078352233575842
7.555,0.0631787448609295,84.28778471462469,0,60,1.0,6,0.159712581520581
7.56,0.05304460019959574,84.6594115909344,0,60,1.0,6,0.16845674331610347
7.565,0.044185078305849994,85.01810688863257,0,60,1.0,6,0.17689663267370762
7.57,0.03651525513023255,85.35918976400232,0,60,1.0,6,0.1849221120941723
7.575,0.0299390014708757,85.67828664677916,0,60,1.0,6,0.1924302740418625
7.58,0.024353677220580638,85.97130833376747,0,60,1.0,6,0.19932490197099922
7.585,0.01965423034339045,86.23446725046394,0,60,1.0,6,0.20551687648150438
7.59,0.015736632374757337,86.46431816357024,0,60,1.0,6,0.21092513326047624
7.595,0.012500627640593535,86.6578102252437,0,60,1.0,6,0.2154778876527928
7.6,0.009851811652115898,86.81234176074898,0,60,1.0,6,0.2191139237823289
7.605,0.007703084175428559,86.92581178965028,0,60,1.0,6,0.22178380681530077
7.61,0.005975544002062424,86.99666410829799,0,60,1.0,6,0.22345092019524687
7.615,0.004598905818663047,87.02392107591099,0,60,1.0,6,0.22409226060967039
7.62,0.0035115256454839104,87.00720521894391,0,60,1.0,6,0.22369894632809198
7.625,0.002660121266303676,86.94674752968146,0,60,1.0,6,0.22227641246309318
7.63,0.0019992692560877024,86.84338196946146,0,60,1.0,6,0.21984428163438732
7.635,0.0014907520044639367,86.6985262420936,0,60,1.0,6,0.2164359115786731
7.64,0.0011028178277539807,86.51414940052827,0,60,1.0,6,0.2120976329536063
7.645,0.0008094059938923333,86.2927272948836,0,60,1.0,6,0.2068877010560848
7.65,0.0005893771793717645,86.03718725870674,0,60,1.0,6,0.20087499432251146
7.655,0.0004257792353490551,85.75084375499246,0,60,1.0,6,0.19413750011746964
7.66,0.0003051686392901525,85.43732695560648,0,60,1.0,6,0.18676063424956424
7.665,0.00021699992642659966,85.10050640050792,0,60,1.0,6,0.17883544471783352
7.67,0.00015308884054097838,84.74441197249001,0,60,1.0,6,0.17045675229388266
7.675,0.00010714989329311098,84.37315442842772,0,60,1.0,6,0.16172128066888763
7.68,7.440535854020571e-05,83.990847652195,0,60,1.0,6,0.1527258271104706
7.685,5.1260276743925106e-05,83.60153464388802,0,60,1.0,6,0.14356552103265918
7.69,3.503659887882241e-05,83.20911904419712,0,60,1.0,6,0.1343322128046382
7.695,2.375894748103639e-05,82.81730372360528,0,60,1.0,6,0.12511302879071243
7.7,1.5984413869232557e-05,82.42953765722115,0,60,1.0,6,0.11598912134637993
7.705,1.0669166579899869e-05,82.04897197215526,0,60,1.0,6,0.10703463463894723
7.71,7.06526633560511e-06,81.67842571032831,0,60,1.0,6,0.09831589906654853
7.715,4.641847214699205e-06,81.32036150986512,0,60,1.0,6,0.08989085905564995
7.72,3.025641074479182e-06,80.9768710860047,0,60,1.0,6,0.08180873143540486
7.725,1.9566278676921314e-06,80.64967009924027,0,60,1.0,6,0.0741098846880063
7.73,1.2553456560008793e-06,80.34010174352517,0,60,1.0,6,0.06682592337706277
7.735,7.990660428214668e-07,80.0491481777292,0,60,1.0,6,0.059979957123039856
7.74,5.046221251618276e-07,79.77744876342132,0,60,1.0,6,0.053587029727560444
7.745,3.1616527078858815e-07,79.52532396325225,0,60,1.0,6,0.047654681488288185
7.75,1.9652884407760343e-07,79.29280369606559,0,60,1.0,6,0.042183616378013884
7.755,1.2120002189836396e-07,79.07965893459514,0,60,1.0,6,0.037168445519885754
7.76,7.415549848886236e-08,78.88543536461921,0,60,1.0,6,0.03259847916751088
7.765,4.501406988770349e-08,78.7094879947671,0,60,1.0,6,0.028458541053343573
7.77,0.0,78.55101570687602,0,60,1.0,6,0.024729781338259177
7.775,0.0,78.40909486042811,0,60,1.0,6,0.02139046730419088
7.78,0.0,78.28271120360175,0,60,1.0,6,0.01841673420239411
7.785,0.0,78.1707894905581,0,60,1.0,6,0.01578328213077899
7.79,0.0,78.07222035303835,0,60,1.0,6,0.013464008306784628
7.795,0.0,77.98588411827141,0,60,1.0,6,0.011432567488739163
7.8,0.0,77.91067139967868,0,60,1.0,6,0.009662856463027685
7.805,0.0,77.84550040808058,0,60,1.0,6,0.008129421366601932
7.81,0.0,77.78933103634455,0,60,1.0,6,0.006807789090459986
7.815,0.0,77.74117585802009,0,60,1.0,6,0.005674726071060831
7.82,0.0,77.70010824983648,0,60,1.0,6,0.004708429407917065
7.825,0.0,77.6652678992138,0,60,1.0,6,0.003888656452089462
7.83,0.0,77.63586399210544,0,60,1.0,6,0.003196799814245691
7.835,0.0,77.61117639506554,0,60,1.0,6,0.0026159151780127425
7.84,0.0,77.59055515033116,0,60,1.0,6,0.0021307094195566045
7.845,0.0,77.57341859609244,0,60,1.0,6,0.0017274963786455962
7.85,0.0,77.55925040826212,0,60,1.0,6,0.001394127253226262
7.855,0.0,77.54759583719981,0,60,1.0,6,0.0011199020517601772
7.86,0.0,77.53805738513302,0,60,1.0,6,0.0008954678854827174
7.865,0.0,77.53029013938476,0,60,1.0,6,0.0007127091619943659
7.87,0.0,77.52399694466563,0,60,1.0,6,0.0005646339921323782
7.875,0.0,77.51892356603511,0,60,1.0,6,0.0004452603772967771
7.88,0.0,77.51485396381696,0,60,1.0,6,0.0003495050309873156
7.885,0.0,77.51160577361915,0,60,1.0,6,0.000273077026332992
7.89,0.0,77.50902605925005,0,60,1.0,6,0.00021237786470698988
7.895,0.0,77.50698738409156,0,60,1.0,6,0.00016440903744844893
7.9,0.0,77.50538422754116,0,60,1.0,6,0.00012668770685074967
7.905,0.0,77.50412975744989,0,60,1.0,6,9.717076352678626e-05
7.91,0.0,77.5031529569217,0,60,1.0,6,7.418722168695774e-05
7.915,0.0,77.50239609415969,0,60,1.0,6,5.637868611041299e-05
7.92,0.0,77.50181251694646,0,60,1.0,6,4.264745756372309e-05
7.925,0.0,77.50136474849062,0,60,1.0,6,3.211172919096123e-05
7.93,0.0,77.50102285841216,0,60,1.0,6,2.40672567566194e-05
7.935,0.0,77.50076308123074,0,60,1.0,6,1.7954852488093607e-05
7.94,0.0,77.50056665454103,0,60,1.0,6,1.333304802428489e-05
7.945,0.0,77.50041884981417,0,60,1.0,6,9.85528974511266e-06
7.95,0.0,77.50030817019447,0,60,1.0,6,7.251063399347485e-06
7.955,0.0,77.50022569154495,0,60,1.0,6,5.310389293058774e-06
7.96,0.0,77.50016452515105,0,60,1.0,6,3.871180024696193e-06
7.965,0.0,77.50011938277196,0,60,1.0,6,2.809006398967326e-06
7.97,0.0,77.50008622701871,0,60,1.0,6,2.0288710285352436e-06
7.975,0.0,77.50006199225503,0,60,1.0,6,1.458641294755794e-06
7.98,0.0,77.50004436330062,0,60,1.0,6,1.0438423674606704e-06
7.985,0.0,77.50003160113035,0,60,1.0,6,7.435560081269025e-07
7.99,0.0,77.5000224064852,0,60,1.0,6,5.272114164841589e-07
7.995,0.0,77.50001581383513,0,60,1.0,6,3.720902384429792e-07
8.0,0.0,77.50001110946202,0,60,1.0,6,2.613991064074927e-07
8.005,0.0,77.50000776857213,0,60,1.0,6,1.8278993252351938e-07
8.01,0.0,77.50000540731573,0,60,1.0,6,1.2723095825522785e-07
8.015,0.001684486749771458,77.50000374640398,0,60,1.0,6,8.815068179715394e-08
8.02,0.003097557930867117,77.50000258368661,0,60,1.0,6,6.079262608610032e-08
8.025,0.005475106668887023,77.50000177360708,0,60,1.0,6,4.1731931332833484e-08
8.03,0.00930222931468658,77.50000121190156,0,60,1.0,6,2.851533087564081e-08
8.035,0.01519157517868857,77.50000082427026,0,60,1.0,6,1.939459433314743e-08
8.04,0.023847336626128316,77.50000055803864,0,60,1.0,6,1.313032084106132e-08
8.045,0.0359830743700859,77.5000003760549,0,60,1.0,6,8.848350569892586e-09
8.05,0.05218887796857759,77.50000025224966,0,60,1.0,6,5.935286186714246e-09
8.055,0.0727577001223134,77.50000016842334,0,60,1.0,6,3.962902142388082e-09
8.06,0.0974992498694751,77.50000011193511,0,60,1.0,6,2.6337672539632287e-09
8.065,0.12558706050443358,77.5000000740496,0,60,1.0,6,1.7423434094192035e-09
8.07,0.15549263588878245,77.50000004876087,0,60,1.0,6,1.1473145257375161e-09
8.075,0.1850529723539114,77.50000003196043,0,60,1.0,6,7.520100098190596e-10
8.08,0.21169159439317053,77.50000002085191,0,60,1.0,6,4.906332699593965e-10
8.085,0.23277292922115492,77.50000001354165,0,60,1.0,6,3.1862709072490415e-10
8.09,0.24602692519491282,77.50000000875366,0,60,1.0,6,2.059684501385645e-10
8.095,0.24995056064839283,77.50000000563249,0,60,1.0,6,1.325290935817654e-10
8.1,0.24408826520424054,77.50000000360747,0,60,1.0,6,8.488160240042763e-11
8.105,0.22911894216865275,77.50000000229984,0,60,1.0,6,5.4113931636332864e-11
8.11,0.20672661788705934,77.50000000145944,0,60,1.0,6,3.433977807991837e-11
8.115,0.17928878030241233,77.50000000092186,0,60,1.0,6,2.1690779891180092e-11
8.12,0.14946211903866036,77.50000000057962,0,60,1.0,6,1.3638073676916333e-11
8.125,0.1197651512573837,77.50000000036275,0,60,1.0,6,8.535206528476385e-12
8.13,0.09224675744988023,77.50000000022598,0,60,1.0,6,5.3172002748504065e-12
8.135,0.06829565320281596,77.50000000014012,0,60,1.0,6,3.296918293926865e-12
8.14,0.04860224607515734,77.50000000008649,0,60,1.0,6,2.0349943952169268e-12
8.145,0.03324612389699793,77.50000000005313,0,60,1.0,6,1.2502208418856538e-12
8.15,0.021859876340472782,77.5000000000325,0,60,1.0,6,7.64711170203929e-13
8.155,0.01381595518554205,77.50000000001978,0,60,1.0,6,4.654472885543809e-13
8.16,0.008394095110402422,77.50000000001198,0,60,1.0,6,2.818764829391833e-13
8.165,0.0049052535271608,77.50000000000723,0,60,1.0,6,1.7019588353030165e-13
8.17,0.0027671663551903634,77.50000000000433,0,60,1.0,6,1.0198378089733203e-13
8.175,0.0015425553464444616,77.50000000000259,0,60,1.0,6,6.085589548627681e-14
8.18,0.0009638206637011801,77.50000000000153,0,60,1.0,6,3.611228962921921e-14
8.185,0.0009804935156568228,77.50000000000091,0,60,1.0,6,2.1399875335833605e-14
8.19,0.0018793744894085216,77.50000000000054,0,60,1.0,6,1.2706175980651204e-14
8.195,0.004535525206900863,77.50000000000031,0,60,1.0,6,7.356207146692803e-15
8.2,0.010832767979632273,77.50000000000018,0,60,1.0,6,4.3468496775912015e-15
8.205,0.024208003392322392,77.5000000000001,0,60,1.0,6,2.3406113648568006e-15
8.21,0.0500971897335304,77.50000000000006,0,60,1.0,6,1.3374922084896003e-15
8.215,0.09582894921774403,77.50000000000003,0,60,1.0,6,6.687461042448002e-16
8.22,0.16937896721820658,77.50000000000001,0,60,1.0,6,3.343730521224001e-16
8.225,0.27661303008991756,77.50000000000001,0,60,1.0,6,3.343730521224001e-16
8.23,0.4173782800009149,77.5,0,60,1.0,6,0.0
8.235,0.5818720934538056,77.5,0,60,1.0,6,0.0
8.24,0.7494718801585675,77.5,0,60,1.0,6,0.0
8.245,0.891813020752378,77.5,0,60,1.0,6,0.0
8.25,0.9800361632936612,77.5,0,60,1.0,6,0.0
8.255,0.993574479225126,77.50000249065474,1,60,1.0,6,5.860364086295115e-08
8.26,0.9263438449375362,77.50000381481783,0,60,1.0,6,8.976041954156244e-08
8.265,0.7873015962290536,77.50000596523532,0,60,1.0,6,1.4035847805323155e-07
8.27,0.5959516244629897,77.50000962503476,0,60,1.0,6,2.2647140620874244e-07
8.275,0.376910120078773,77.50001618917643,0,60,1.0,6,3.809217984700594e-07
8.28,0.15739335672107918,77.5000285614158,0,60,1.0,6,6.720333130140395e-07
8.285,-0.033361226269301235,77.50005280883279,0,60,1.0,6,1.2425607715559796e-06
8.29,-0.1680180840843834,77.50010151190543,0,60,1.0,6,2.388515421818524e-06
8.295,-0.23069703190837854,77.50020036214238,0,60,1.0,6,4.714403350108649e-06
8.3,-0.22587267821131068,77.50040077561245,0,60,1.0,6,9.430014410541202e-06
8.305,-0.17718181630665902,77.50080326727193,0,60,1.0,6,1.8900406398442475e-05
8.31,-0.11494332516451301,77.50159937912407,0,60,1.0,6,3.763244997819182e-05
8.315,-0.061810214049552864,77.50314438198903,0,60,1.0,6,7.398545856544308e-05
8.32,-0.026546104631500547,77.5060789517361,0,60,1.0,6,0.00014303415849647481
8.325,-0.00719600351942686,77.5115253796782,0,60,1.0,6,0.00027118540419304043
8.33,0.0022072757983807078,77.5213917627598,0,60,1.0,6,0.0005033355943483537
8.335,0.006917199873730717,77.53882411894206,0,60,1.0,6,0.0009135086809896406
8.34,0.01004859748264829,77.56884815932884,0,60,1.0,6,0.0016199566900902884
8.345,0.013037082251128167,77.6192346558676,0,60,1.0,6,0.002805521314531782
8.35,0.01645163937690478,77.70159894500465,0,60,1.0,6,0.004743504588344649
8.355,0.020526639934696615,77.83270008287926,0,60,1.0,6,0.007828237244217797
8.36,0.02539629541761738,78.03583465142736,0,60,1.0,6,0.012607874151232115
8.365,0.031171612185577933,78.34212553437393,0,60,1.0,6,0.019814718455857288
8.37,0.03795853426638131,78.79139701937089,0,60,1.0,6,0.030385812220491543
8.375,0.0458588961882057,79.43222533468237,0,60,1.0,6,0.045464125521938153
8.38,0.054966995891435555,80.32069048739088,0,60,1.0,6,0.06636918793860887
8.385,0.06536491004445595,81.5173707975343,0,60,1.0,6,0.09452637170668936
8.39,0.07711726085088699,83.08225427174436,0,60,1.0,6,0.13134715933516145
8.395,0.09026570629555215,85.06751487992965,0,60,1.0,6,0.17805917364540344
8.4,0.10482339848670268,87.50851138218808,0,60,1.0,6,0.23549438546324883
8.405,0.12076968927580028,90.41386466435996,0,60,1.0,6,0.3038556391614109
8.41,0.13804539501007884,93.75596504105044,0,60,1.0,6,0.38249329508353985
8.415,0.15654895051787066,97.4636280918179,0,60,1.0,6,0.4697324256898328
8.42,0.17613378141900526,101.41872257270964,0,60,1.0,6,0.5627934722990504
8.425,0.19660720058055794,105.45833242352343,0,60,1.0,6,0.6578431158476101
8.43,0.21773108748496234,109.38335163215552,0,60,1.0,6,0.7501965089918947
8.435,0.23922453870058807,112.9734084393601,0,60,1.0,7,0.8346684338672965
8.44,0.2607685857914563,116.00683982528938,0,60,1.0,7,0.9060432900068088
8.445,0.2820129681603682,118.28333120453613,0,60,1.0,7,0.9596077930479089
8.45,0.30258482867153996,119.646064803065,0,60,1.0,7,0.9916721130132942
8.455,0.3220990771751686,120.0,0,60,1.0,7,1.0
8.46,0.3401700499968971,119.32334270778719,0,60,1.0,7,0.9840786519479339
8.465,0.3564239911198326,117.6702984466819,0,60,1.0,7,0.9451834928631034
8.47,0.3705118017738417,115.1646448291192,0,60,1.0,7,0.8862269371557459
8.475,0.3821214567925213,111.9851997850634,0,60,1.0,7,0.8114164655309035
8.48,0.39098947374066967,108.34557221481842,0,60,1.0,7,0.7257781697604334
8.485,0.3969108472035567,104.47139174943496,0,60,1.0,7,0.634620982339646
8.49,0.3997469255491936,100.57838099842344,0,60,1.0,7,0.5430207293746692
8.495,0.3994308076379137,96.85417087272945,0,60,1.0,7,0.45539225582892834
8.5,0.3959699661768434,93.44582268957237,0,60,1.0,7,0.37519582798993806
8.505,0.38944595408114946,90.45385471397468,0,60,1.0,7,0.30479658150528655
8.51,0.38001120995358023,87.93243962502166,0,60,1.0,7,0.24546916764756843
8.515,0.3678831374098315,85.89455992933536,0,60,1.0,7,0.19751905716083196
8.52,0.35333577933796634,84.32040601189054,0,60,1.0,7,0.160480141456248
8.525,0.33668953221163944,83.16719725117376,0,60,1.0,7,0.13334581767467674
8.53,0.3182994390982644,82.37883285219493,0,60,1.0,7,0.114796067110469
8.535,0.29854265738230645,81.89421459224894,0,60,1.0,7,0.10339328452350455
8.54,0.2778057157821067,81.65359406235096,0,60,1.0,7,0.09773162499649321
8.545,0.2564721553719815,81.60276811068044,0,60,1.0,7,0.09653572025130455
8.55,0.23491109433464996,81.6953041114732,0,60,1.0,7,0.0987130379170166
8.555,0.21346717185309805,81.89319219750705,0,60,1.0,7,0.10336922817663642
8.56,0.19245222055656455,82.16640283127366,0,60,1.0,7,0.10979771367702724
8.565,0.17213889801761392,82.49180664386697,0,60,1.0,7,0.11745427397334036
8.57,0.15275638501270183,82.85182970057085,0,60,1.0,7,0.12592540471931402
8.575,0.13448814019607322,83.23310877819486,0,60,1.0,7,0.13489667713399672
8.58,0.11747159495449566,83.62530580186197,0,60,1.0,7,0.14412484239675222
8.585,0.10179958433370105,84.02015461343919,0,60,1.0,7,0.15341540266915737
8.59,0.08752324394101413,84.41075278688982,0,60,1.0,7,0.1626059479268192
8.595,0.07465606047174059,84.79107511020709,0,60,1.0,7,0.17155470847546092
8.6,0.0631787448609295,85.15566858139451,0,60,1.0,7,0.18013337838575313
8.605,0.05304460019959574,85.49948511358731,0,60,1.0,7,0.18822317914323086
8.61,0.044185078305849994,85.81781198508382,0,60,1.0,7,0.19571322317844286
8.615,0.03651525513023255,86.1062671685372,0,60,1.0,7,0.2025004039655812
8.62,0.0299390014708757,86.36083432317702,0,60,1.0,7,0.20849021936887097
8.625,0.024353677220580638,86.57791901100559,0,60,1.0,7,0.21359809437660213
8.63,0.01965423034339045,86.75441307651025,0,60,1.0,7,0.21775089591788815
8.635,0.015736632374757337,86.88775811124916,0,60,1.0,7,0.22088842614703896
8.64,0.012500627640593535,86.97600175641713,0,60,1.0,7,0.2229647472098149
8.645,0.009851811652115898,87.017842589161,0,60,1.0,7,0.2239492373920237
8.65,0.007703084175428559,87.012660771883,0,60,1.0,7,0.22382731227960015
8.655,0.005975544002062424,86.96053273007563,0,60,1.0,7,0.22260077011942653
8.66,0.004598905818663047,86.86222900437889,0,60,1.0,7,0.2202877412795033
8.665,0.0035115256454839104,86.719195178689,0,60,1.0,7,0.21692223949856484
8.67,0.002660121266303676,86.53351645798008,0,60,1.0,7,0.21255332842306082
8.675,0.0019992692560877024,86.30786706938648,0,60,1.0,7,0.20724393104438765
8.68,0.0014907520044639367,86.04544618487417,0,60,1.0,7,0.2010693219970392
8.685,0.0011028178277539807,85.74990250322291,0,60,1.0,7,0.19411535301700972
8.69,0.0008094059938923333,85.42524997119911,0,60,1.0,7,0.18647646991056724
8.695,0.0005893771793717645,85.0757773587906,0,60,1.0,7,0.17825358491272006
8.7,0.0004257792353490551,84.70595452519278,0,60,1.0,7,0.1695518711810066
8.705,0.0003051686392901525,84.32033821979824,0,60,1.0,7,0.160478546348194
8.71,0.00021699992642659966,83.92348015988665,0,60,1.0,7,0.1511407096443918
8.715,0.00015308884054097838,83.51983992315786,0,60,1.0,7,0.1416432923095967
8.72,0.00010714989329311098,83.11370490220835,0,60,1.0,7,0.13208717416960833
8.725,7.440535854020571e-05,82.70911920653026,0,60,1.0,7,0.12256751074188849
8.73,5.1260276743925106e-05,82.30982298507394,0,60,1.0,7,0.11317230553115143
8.735,3.503659887882241e-05,81.91920319962112,0,60,1.0,7,0.10398125175579112
8.74,2.375894748103639e-05,81.5402564270607,0,60,1.0,7,0.09506485710731052
8.745,1.5984413869232557e-05,81.1755638270808,0,60,1.0,7,0.0864838547548422
8.75,1.0669166579899869e-05,80.82727799879292,0,60,1.0,7,0.07828889408924523
8.755,7.06526633560511e-06,80.49712108066727,0,60,1.0,7,0.07052049601570047
8.76,4.641847214699205e-06,80.18639313486506,0,60,1.0,7,0.06320925023211899
8.765,3.025641074479182e-06,79.89598960793784,0,60,1.0,7,0.05637622606912554
8.77,1.9566278676921314e-06,79.6264264795071,0,60,1.0,7,0.050033564223696536
8.775,1.2553456560008793e-06,79.37787159987418,0,60,1.0,7,0.04418521411468666
8.78,7.990660428214668e-07,79.15018067413585,0,60,1.0,7,0.03882778056790244
8.785,5.046221251618276e-07,78.94293636900822,0,60,1.0,7,0.03395144397666406
8.79,3.1616527078858815e-07,78.75548909159917,0,60,1.0,7,0.029540919802333494
8.795,1.9652884407760343e-07,78.58699810755667,0,60,1.0,7,0.025576426060156872
8.8,1.2120002189836396e-07,78.43647181909245,0,60,1.0,7,0.022034631037469325
8.805,7.415549848886236e-08,78.30280620070539,0,60,1.0,7,0.018889557663656246
8.81,4.501406988770349e-08,78.18482058158935,0,60,1.0,7,0.01611342544916116
8.815,0.0,78.08129015900583,0,60,1.0,7,0.01367741550601957
8.82,0.0,77.99097481773615,0,60,1.0,7,0.011552348652615178
8.825,0.0,77.91264400989799,0,60,1.0,7,0.00970927082112914
8.83,0.0,77.84509761126496,0,60,1.0,7,0.008119943794469679
8.835,0.0,77.7871828107303,0,60,1.0,7,0.00675724260541883
8.84,0.0,77.73780720624384,0,60,1.0,7,0.005595463676325728
8.845,0.0,77.69594837242065,0,60,1.0,7,0.004610549939309294
