Time,ECG,Pressure,R_Peaks,mean_hr,hrv_scale,Phase_Bin,Normalized_Pressure
0.0,0.001684486749771458,77.5,0,100,3.0,0,0.0
0.005,0.00456624331333666,77.5,0,100,3.0,0,0.0
0.01,0.011079731271581421,77.5,0,100,3.0,0,0.0
0.015,0.024064571490409,77.5,0,100,3.0,0,0.0
0.02,0.046784906529573234,77.5,0,100,3.0,0,0.0
0.025,0.08141644351188804,77.5,0,100,3.0,0,0.0
0.03,0.12682276464025305,77.5,0,100,3.0,0,0.0
0.035,0.1768320708657512,77.5,0,100,3.0,0,0.0
0.04,0.22070063230473494,77.5,0,100,3.0,0,0.0
0.045,0.24656126505113576,77.5,0,100,3.0,0,0.0
0.05,0.24656126505724016,77.5,0,100,3.0,0,0.0
0.055,0.220700632329898,77.5,0,100,3.0,0,0.0
0.06,0.17683207093748562,77.5,0,100,3.0,0,0.0
0.065,0.12682276483597799,77.5,0,100,3.0,0,0.0
0.07,0.08141644409447898,77.5,0,100,3.0,0,0.0
0.075,0.04678490952598309,77.5,0,100,3.0,0,0.0
0.08,0.024064605020532023,77.5,0,100,3.0,0,0.0
0.085,0.011080171739334697,77.5,0,100,3.0,0,0.0
0.09,0.004571212771509492,77.5,0,100,3.0,0,0.0
0.095,0.0017299316936037438,77.5,0,100,3.0,0,0.0
0.1,0.0008899431850697582,77.5,0,100,3.0,0,0.0
0.105,0.002128806368910263,77.5,0,100,3.0,0,0.0
0.11,0.009309664818487698,77.5,0,100,3.0,0,0.0
0.115,0.03503263543368747,77.5,0,100,3.0,0,0.0
0.12,0.10606267793605692,77.5,0,100,3.0,0,0.0
0.125,0.25734927343160535,77.5,0,100,3.0,0,0.0
0.13,0.5003202479539708,77.5,0,100,3.0,0,0.0
0.135,0.7793067891790435,77.5,0,100,3.0,0,0.0
0.14,0.9720477407234077,77.5,0,100,3.0,0,0.0
0.145,0.967267334488097,77.5,0,100,3.0,0,0.0
0.15,0.7505869905515209,77.5,0,100,3.0,0,0.0
0.155,0.4028369574773956,77.5,0,100,3.0,0,0.0
0.16,0.04553881263121314,77.5,0,100,3.0,0,0.0
0.165,-0.189138810908105,77.5,0,100,3.0,0,0.0
0.17,-0.22868072635956738,77.5,0,100,3.0,0,0.0
0.175,-0.14104670682394166,77.5,0,100,3.0,0,0.0
0.18,-0.051158381651102834,77.5,0,100,3.0,0,0.0
0.185,-0.008206426846427752,77.5,0,100,3.0,0,0.0
0.19,0.005350271385530505,77.5,0,100,3.0,0,0.0
0.195,0.01084668799215426,77.5,0,100,3.0,0,0.0
0.2,0.016256859896386415,77.5,0,100,3.0,0,0.0
0.205,0.02345021205790711,77.5,0,100,3.0,0,0.0
0.21,0.0330621597308209,77.5,0,100,3.0,0,0.0
0.215,0.04559141319943196,77.5,0,100,3.0,0,0.0
0.22,0.06149084917446989,77.5,0,100,3.0,0,0.0
0.225,0.08111733445924295,77.5,0,100,3.0,0,0.0
0.23,0.1046628598272375,77.5,0,100,3.0,0,0.0
0.235,0.1320831047748631,77.5,0,100,3.0,0,0.0
0.24,0.16303381314489318,77.5,0,100,3.0,0,0.0
0.245,0.19682662652900276,77.5,0,100,3.0,0,0.0
0.25,0.23241585813229,77.5,0,100,3.0,0,0.0
0.255,0.26842527782774417,77.5,0,100,3.0,0,0.0
0.26,0.30321927900592993,77.5,0,100,3.0,0,0.0
0.265,0.3350163137995362,77.5,0,100,3.0,0,0.0
0.27,0.3620352400956416,77.5,0,100,3.0,0,0.0
0.275,0.3826586036805073,77.5,0,100,3.0,0,0.0
0.28,0.39559233134833227,77.5,0,100,3.0,0,0.0
0.285,0.4,77.5,0,100,3.0,0,0.0
0.29,0.39559233134833227,77.5,0,100,3.0,0,0.0
0.295,0.3826586036805073,77.5,0,100,3.0,0,0.0
0.3,0.3620352400956416,77.5,0,100,3.0,0,0.0
0.305,0.3350163137995362,77.5,0,100,3.0,0,0.0
0.31,0.3032192790059296,77.5,0,100,3.0,0,0.0
0.315,0.26842527782774417,77.5,0,100,3.0,0,0.0
0.32,0.23241585813229,77.5,0,100,3.0,0,0.0
0.325,0.19682662652900276,77.5,0,100,3.0,0,0.0
0.33,0.16303381314489318,77.5,0,100,3.0,0,0.0
0.335,0.13208310477486307,77.5,0,100,3.0,0,0.0
0.34,0.10466285982723562,77.5,0,100,3.0,0,0.0
0.345,0.08111733445917907,77.5,0,100,3.0,0,0.0
0.35,0.06149084917398798,77.5,0,100,3.0,0,0.0
0.355,0.04559141333598128,77.5,0,100,3.0,0,0.0
0.36,0.03306217087257399,77.5,0,100,3.0,0,0.0
0.365,0.02345067901074276,77.5,0,100,3.0,0,0.0
0.37,0.016268788896435526,77.5,0,100,3.0,0,0.0
0.375,0.011039026374860051,77.5,0,100,3.0,0,0.0
0.38,0.007326255555493689,77.5,0,100,3.0,0,0.0
0.385,0.0047556414315231815,77.5,0,100,3.0,0,0.0
0.39,0.0030193390635632803,77.5,0,100,3.0,0,0.0
0.395,0.001874953127946523,77.5,0,100,3.0,0,0.0
0.4,0.0011387927410965778,77.5,0,100,3.0,0,0.0
0.405,0.0006765107634274089,77.5,0,100,3.0,0,0.0
0.41,0.00039307957404427924,77.5,0,100,3.0,0,0.0
0.415,0.00022338910511776318,77.5,0,100,3.0,0,0.0
0.42,0.00012417073320013317,77.5,0,100,3.0,0,0.0
0.425,6.750753468904987e-05,77.5,0,100,3.0,0,0.0
0.43,3.5897234866245036e-05,77.5,0,100,3.0,0,0.0
0.435,1.8670050400879738e-05,77.5,0,100,3.0,0,0.0
0.44,9.497421874143672e-06,77.5,0,100,3.0,0,0.0
0.445,4.725434140340885e-06,77.5,0,100,3.0,0,0.0
0.45,2.299606063738814e-06,77.5,0,100,3.0,0,0.0
0.455,1.0945633976635486e-06,77.5,0,100,3.0,0,0.0
0.46,5.095703414287532e-07,77.5,0,100,3.0,0,0.0
0.465,2.3202944964797243e-07,77.5,0,100,3.0,0,0.0
0.47,1.0333746954038608e-07,77.5,0,100,3.0,0,0.0
0.475,4.501406988770349e-08,77.5,0,100,3.0,0,0.0
0.48,0.0,77.5,0,100,3.0,0,0.0
0.485,0.0,77.5,0,100,3.0,0,0.0
0.49,0.0,77.5,0,100,3.0,0,0.0
0.495,0.0,77.5,0,100,3.0,0,0.0
0.5,0.0,77.5,0,100,3.0,0,0.0
0.505,0.0,77.5,0,100,3.0,0,0.0
0.51,0.0,77.5,0,100,3.0,0,0.0
0.515,0.0,77.5,0,100,3.0,0,0.0
0.52,0.0,77.5,0,100,3.0,0,0.0
0.525,0.0,77.5,0,100,3.0,0,0.0
0.53,0.0,77.5,0,100,3.0,0,0.0
0.535,0.0,77.5,0,100,3.0,0,0.0
0.54,0.0,77.5,0,100,3.0,0,0.0
0.545,0.0,77.5,0,100,3.0,0,0.0
0.55,0.0,77.5,0,100,3.0,0,0.0
0.555,0.0,77.5,0,100,3.0,0,0.0
0.56,0.0,77.5,0,100,3.0,0,0.0
0.565,0.0,77.5,0,100,3.0,0,0.0
0.57,0.0,77.5,0,100,3.0,0,0.0
0.575,0.0,77.5,0,100,3.0,0,0.0
0.58,0.0,77.5,0,100,3.0,0,0.0
0.585,0.001684486749771458,77.5,0,100,3.0,0,0.0
0.59,0.00456624331333666,77.5,0,100,3.0,0,0.0
0.595,0.011079731271581421,77.5,0,100,3.0,0,0.0
0.6,0.024064571490409,77.5,0,100,3.0,0,0.0
0.605,0.046784906529573234,77.5,0,100,3.0,0,0.0
0.61,0.08141644351188804,77.5,0,100,3.0,0,0.0
0.615,0.12682276464025305,77.5,0,100,3.0,0,0.0
0.62,0.1768320708657512,77.5,0,100,3.0,0,0.0
0.625,0.22070063230473494,77.5,0,100,3.0,0,0.0
0.63,0.24656126505113576,77.5,0,100,3.0,0,0.0
0.635,0.24656126505724016,77.5,0,100,3.0,0,0.0
0.64,0.220700632329898,77.5,0,100,3.0,0,0.0
0.645,0.17683207093748562,77.5,0,100,3.0,0,0.0
0.65,0.12682276483597799,77.5,0,100,3.0,0,0.0
0.655,0.08141644409447898,77.5,0,100,3.0,0,0.0
0.66,0.04678490952598309,77.5,0,100,3.0,0,0.0
0.665,0.024064605020532023,77.5,0,100,3.0,0,0.0
0.67,0.011080171739334697,77.5,0,100,3.0,0,0.0
0.675,0.004571212771509492,77.5,0,100,3.0,0,0.0
0.68,0.0017299316936037438,77.5,0,100,3.0,0,0.0
0.685,0.0008899431850697582,77.5,0,100,3.0,0,0.0
0.69,0.002128806368910263,77.5,0,100,3.0,0,0.0
0.695,0.009309664818487698,77.5,0,100,3.0,0,0.0
0.7,0.03503263543368747,77.5,0,100,3.0,0,0.0
0.705,0.10606267793605692,77.5,0,100,3.0,0,0.0
0.71,0.25734927343160535,77.5,0,100,3.0,0,0.0
0.715,0.5003202479539708,77.5,0,100,3.0,0,0.0
0.72,0.7793067891790435,77.5,0,100,3.0,0,0.0
0.725,0.9720477407234077,77.5000029632167,1,100,3.0,0,5.867755844249559e-08
0.73,0.967267334488097,77.50000632443192,0,100,3.0,0,1.252362756864692e-07
0.735,0.7505869905515209,77.50001473324576,0,100,3.0,0,2.917474408505849e-07
0.74,0.4028369574773956,77.50003930345265,0,100,3.0,0,7.782861911378535e-07
0.745,0.04553881263121314,77.50012007178523,0,100,3.0,0,2.37765911352014e-06
0.75,-0.189138810908105,77.50039768906025,0,100,3.0,0,7.875030896043021e-06
0.755,-0.22868072635956738,77.50133813309903,0,100,3.0,0,2.6497685129220596e-05
0.76,-0.14104670682394166,77.50437429970992,0,100,3.0,0,8.661979623609861e-05
0.765,-0.051158381651102834,77.51356283545961,0,100,3.0,0,0.0002685709992001851
0.77,-0.008206426846427752,77.539423280672,0,100,3.0,0,0.0007806590232078606
0.775,0.005350271385530505,77.60683292766095,0,100,3.0,0,0.0021155035180385365
0.78,0.01084668799215426,77.7691843879838,0,100,3.0,0,0.005330383920471266
0.785,0.016256859896386415,78.1298195737859,0,100,3.0,0,0.012471674728433559
0.79,0.02345021205790711,78.8674564682652,0,100,3.0,0,0.027078345906241648
0.795,0.0330621597308209,80.25416185836706,0,100,3.0,0,0.05453785858152585
0.8,0.04559141319943196,82.64472323642266,0,100,3.0,0,0.10187570765193393
0.805,0.06149084917446989,86.41224109374863,0,100,3.0,0,0.17648002165838877
0.81,0.08111733445924295,91.81665598492147,0,100,3.0,0,0.2834981383152766
0.815,0.1046628598272375,98.826395638257,0,100,3.0,0,0.42230486412390095
0.82,0.1320831047748631,106.95895384922622,0,100,3.0,0,0.5833456207767568
0.825,0.16303381314489318,115.23602411394728,0,100,3.0,0,0.7472480022563818
0.83,0.19682662652900276,122.32971667135199,0,100,3.0,0,0.8877171618089502
0.835,0.23241585813229,126.89775582948093,0,100,3.0,0,0.9781733827619986
0.84,0.26842527782774417,128.0,0,100,3.0,0,1.0
0.845,0.30321927900592993,125.42125272540896,0,100,3.0,0,0.9489356975328508
0.85,0.3350163137995362,119.74965133212939,0,100,3.0,0,0.8366267590520671
0.855,0.3620352400956416,112.17257946470455,0,100,3.0,0,0.6865857319743476
0.86,0.3826586036805073,104.08785511981466,0,100,3.0,0,0.5264921805903894
0.865,0.39559233134833227,96.70488803956961,0,100,3.0,0,0.38029481266474474
0.87,0.4,90.78889417401182,0,100,3.0,0,0.2631464192873627
0.875,0.39559233134833227,86.60772759605685,0,100,3.0,0,0.18035104150607617
0.88,0.3826586036805073,84.04089578195409,0,100,3.0,0,0.12952268875156617
0.885,0.3620352400956416,82.75786879881116,0,100,3.0,0,0.10411621383784475
0.89,0.3350163137995362,82.37959366821764,0,100,3.0,0,0.09662561719242846
0.895,0.3032192790059296,82.57856812118584,0,100,3.0,0,0.1005657053700166
0.9,0.26842527782774417,83.11531036543767,0,100,3.0,0,0.11119426466213198
0.905,0.23241585813229,83.83263983129649,0,100,3.0,0,0.12539880854052454
0.91,0.19682662652900276,84.63250912217958,0,100,3.0,0,0.14123780439959574
0.915,0.16303381314489318,85.45226040314074,0,100,3.0,0,0.1574705030324899
0.92,0.13208310477486307,86.2475629773933,0,100,3.0,0,0.1732190688592733
0.925,0.10466285982723562,86.98281595132833,0,100,3.0,0,0.18777853368966999
0.93,0.08111733445917907,87.62707318852279,0,100,3.0,0,0.20053610274302547
0.935,0.06149084917398798,88.15320332098976,0,100,3.0,0,0.21095452120771804
0.94,0.04559141333598128,88.5385782151131,0,100,3.0,0,0.21858570722996248
0.945,0.03306217087257399,88.76624892522591,0,100,3.0,0,0.22309403812328532
0.95,0.02345067901074276,88.82603771663241,0,100,3.0,0,0.22427797458678045
0.955,0.016268788896435526,88.71524935893723,0,100,3.0,0,0.22208414572152926
0.96,0.011039026374860051,88.43886075670979,0,100,3.0,0,0.2166111040932631
0.965,0.007326255555493689,88.00914720955005,0,100,3.0,0,0.20810192494158516
0.97,0.0047556414315231815,87.44477763798974,0,100,3.0,0,0.19692628986118307
0.975,0.0030193390635632803,86.76946988444872,0,100,3.0,0,0.18355385909799454
0.98,0.001874953127946523,86.0103405328122,0,100,3.0,0,0.16852159470915234
0.985,0.0011387927410965778,85.1961087935566,0,100,3.0,0,0.15239819393181395
0.99,0.0006765107634274089,84.35531914558466,0,100,3.0,0,0.13574889397197343
0.995,0.00039307957404427924,83.51473332893123,0,100,3.0,0,0.11910363027586592
1.0,0.00022338910511776318,82.69801221580293,0,100,3.0,0,0.10293093496639472
1.005,0.00012417073320013317,81.92476728085217,0,100,3.0,0,0.08761915407628051
1.01,6.750753468904987e-05,81.2100160794701,0,100,3.0,0,0.07346566494000187
1.015,3.5897234866245036e-05,80.56403251225963,0,100,3.0,0,0.06067391113385405
1.02,1.8670050400879738e-05,79.99254590939884,0,100,3.0,0,0.04935734474057114
1.025,9.497421874143672e-06,79.49721667177356,0,100,3.0,0,0.039548844985615
1.03,4.725434140340885e-06,79.07630197143015,0,100,3.0,0,0.031213900424359505
1.035,2.299606063738814e-06,78.72542256815419,0,100,3.0,0,0.024265793428795777
1.04,1.0945633976635486e-06,78.43834933264405,0,100,3.0,0,0.018581174903842604
1.045,5.095703414287532e-07,78.20774277436361,0,100,3.0,0,0.01401470840323979
1.05,2.3202944964797243e-07,78.02579755035103,0,100,3.0,0,0.010411832680218405
1.055,1.0333746954038608e-07,77.88476352268945,0,100,3.0,0,0.007619079657216909
1.06,4.501406988770349e-08,77.77733293361308,0,100,3.0,0,0.005491741259664978
1.065,0.0,77.69689796089891,0,100,3.0,0,0.0038989695227506687
1.07,0.0,77.63769342762592,0,100,3.0,0,0.0027266025272459243
1.075,0.0,77.59484565128201,0,100,3.0,0,0.0018781317085547404
1.08,0.0,77.56435078582085,0,100,3.0,0,0.0012742729865514734
1.085,0.0,77.54300535190977,0,100,3.0,0,0.0008515911269261333
1.09,0.0,77.52830892491497,0,100,3.0,0,0.0005605727705934027
1.095,0.0,77.5183550878223,0,100,3.0,0,0.0003634670855901034
1.1,0.0,77.51172254143796,0,100,3.0,0,0.0002321295334249863
1.105,0.0,77.50737427460564,0,100,3.0,0,0.00014602523971560832
1.11,0.0,77.50456929349846,0,100,3.0,0,9.04810593755032e-05
1.115,0.0,77.5027887592473,0,100,3.0,0,5.522295539198113e-05
1.12,0.0,77.50167650638357,0,100,3.0,0,3.319814620940318e-05
1.125,0.0,77.50099273108047,0,100,3.0,0,1.9658041197479378e-05
1.13,0.0,77.50057901557518,0,100,3.0,0,1.1465654954136962e-05
1.135,0.0,77.50033264507117,0,100,3.0,0,6.587031112242738e-06
1.14,0.0,77.50018823663869,0,100,3.0,0,3.727458191926218e-06
1.145,0.0,77.50010492028098,0,100,3.0,0,2.0776293262437016e-06
1.15,0.0,77.50005760324511,0,100,3.0,0,1.1406583190242906e-06
1.155,0.0,77.50003115061858,0,100,3.0,0,6.168439323245015e-07
1.16,0.0,77.50001659275955,0,100,3.0,0,3.285694960465149e-07
1.165,0.001684486749771458,77.5000087056817,0,100,3.0,0,1.7238973650999488e-07
1.17,0.00456624331333666,77.50000449903288,0,100,3.0,0,8.908976006201592e-08
1.175,0.011079731271581421,77.50000229017026,0,100,3.0,0,4.5349906096618887e-08
1.18,0.024064571490409,77.5000011482821,0,100,3.0,0,2.2738259310631967e-08
1.185,0.046784906529573234,77.50000056710259,0,100,3.0,0,1.1229754235419834e-08
1.19,0.08141644351188804,77.50000027587154,0,100,3.0,0,5.4628028217596484e-09
1.195,0.12682276464025305,77.50000013218568,0,100,3.0,0,2.617538133437289e-09
1.2,0.1768320708657512,77.500000062387,0,100,3.0,0,1.235386182790787e-09
1.205,0.22070063230473494,77.50000002900254,0,100,3.0,1,5.743076333529454e-10
1.21,0.24656126505113576,77.50000001328037,0,100,3.0,1,2.629776352676183e-10
1.215,0.24656126505724016,77.50000000598986,0,100,3.0,1,1.1861110993273127e-10
1.22,0.220700632329898,77.50000000266107,0,100,3.0,1,5.2694412090096365e-11
1.225,0.17683207093748562,77.50000000116447,0,100,3.0,1,2.3058729843031337e-11
1.23,0.12682276483597799,77.50000000050191,0,100,3.0,1,9.938874805667714e-12
1.235,0.08141644409447898,77.50000000021309,0,100,3.0,1,4.219638939692159e-12
1.24,0.04678490952598309,77.50000000008912,0,100,3.0,1,1.7646786122580548e-12
1.245,0.024064605020532023,77.5000000000367,0,100,3.0,1,7.268641134528074e-13
1.25,0.011080171739334697,77.5000000000149,0,100,3.0,1,2.949104107234e-13
1.255,0.004571212771509492,77.50000000000595,0,100,3.0,1,1.1790788367662653e-13
1.26,0.0017299316936037438,77.50000000000234,0,100,3.0,1,4.6431505505115455e-14
1.265,0.0008899431850697582,77.50000000000091,0,100,3.0,1,1.800979607471145e-14
1.27,0.002128806368910263,77.50000000000034,0,100,3.0,1,6.7536735280167935e-15
1.275,0.009309664818487698,77.50000000000013,0,100,3.0,1,2.5326275730062976e-15
1.28,0.03503263543368747,77.50000000000004,0,100,3.0,1,8.442091910020992e-16
1.285,0.10606267793605692,77.50000000000001,0,100,3.0,1,2.814030636673664e-16
1.29,0.25734927343160535,77.5,0,100,3.0,1,0.0
1.295,0.5003202479539708,77.5,0,100,3.0,1,0.0
1.3,0.7793067891790435,77.5,0,100,3.0,1,0.0
1.305,0.9720477407234077,77.50000295858096,1,100,3.0,1,5.85857616676936e-08
1.31,0.967267334488097,77.50000649780915,0,100,3.0,1,1.2866948817744662e-07
1.315,0.7505869905515209,77.50001571079831,0,100,3.0,1,3.111049170006436e-07
1.32,0.4028369574773956,77.50004401685699,0,100,3.0,1,8.716209304854448e-07
1.325,0.04553881263121314,77.50014199796655,0,100,3.0,1,2.8118409218087877e-06
1.33,-0.189138810908105,77.50049432191162,0,100,3.0,1,9.7885527052898e-06
1.335,-0.22868072635956738,77.50173211644027,0,100,3.0,1,3.42993354508107e-05
1.34,-0.14104670682394166,77.50584288582245,0,100,3.0,1,0.00011570070935536563
1.345,-0.051158381651102834,77.51854730297484,0,100,3.0,1,0.00036727332623441534
1.35,-0.008206426846427752,77.55481496280055,0,100,3.0,1,0.001085444807931663
1.355,0.005350271385530505,77.65008419708057,0,100,3.0,1,0.0029719642986252228
1.36,0.01084668799215426,77.87981851286148,0,100,3.0,1,0.00752115867052428
1.365,0.016256859896386415,78.38742298606793,0,100,3.0,1,0.017572732397384796
1.37,0.02345021205790711,79.41315942805718,0,100,3.0,1,0.03788434511004326
1.375,0.0330621597308209,81.30460163111171,0,100,3.0,1,0.0753386461606279
1.38,0.04559141319943196,84.47809489490693,0,100,3.0,1,0.1381800969288501
1.385,0.06149084917446989,89.30317826768169,0,100,3.0,1,0.23372630233033045
1.39,0.08111733445924295,95.91109716494718,0,100,3.0,1,0.36457618148410254
1.395,0.1046628598272375,103.98360250134391,0,100,3.0,1,0.5244277723038397
1.4,0.1320831047748631,112.63196549089727,0,100,3.0,1,0.6956824849682628
1.405,0.16303381314489318,120.48176915990015,0,100,3.0,1,0.851124141780201
1.41,0.19682662652900276,126.00411814452141,0,100,3.0,1,0.960477587020226
1.415,0.23241585813229,128.0,0,100,3.0,1,1.0
1.42,0.26842527782774417,126.03166825490115,0,100,3.0,1,0.9610231337604188
1.425,0.30321927900592993,120.59024835370354,0,100,3.0,1,0.8532722446277929
1.43,0.3350163137995362,112.91318697147013,0,100,3.0,1,0.7012512271578243
1.435,0.3620352400956416,104.54533238728061,0,100,3.0,1,0.5355511363817943
1.44,0.3826586036805073,96.85710937740994,0,100,3.0,1,0.38330909658237505
1.445,0.39559233134833227,90.72270386050883,0,100,3.0,1,0.2618357200100758
1.45,0.4,86.44535081746378,0,100,3.0,1,0.17713565975175793
1.455,0.39559233134833227,83.88417312505604,0,100,3.0,1,0.12641926980308985
1.46,0.3826586036805073,82.66571321886003,0,100,3.0,1,0.10229135086851553
1.465,0.3620352400956416,82.37202450792604,0,100,3.0,1,0.09647573283021865
1.47,0.3350163137995362,82.65192834843367,0,100,3.0,1,0.10201838313730041
1.475,0.3032192790059296,83.25634189984378,0,100,3.0,1,0.11398696831373813
1.48,0.26842527782774417,84.0264242558057,0,100,3.0,1,0.12923612387734046
1.485,0.23241585813229,84.86484526486245,0,100,3.0,1,0.1458385200962862
1.49,0.19682662652900276,85.70909511705845,0,100,3.0,1,0.16255633895165253
1.495,0.16303381314489318,86.51374059129739,0,100,3.0,1,0.17848991269895825
1.5,0.13208310477486307,87.24132622835091,0,100,3.0,1,0.19289754907625573
1.505,0.10466285982723562,87.85911768203138,0,100,3.0,1,0.20513104320854222
1.51,0.08111733445917907,88.33897458047528,0,100,3.0,1,0.2146331600094115
1.515,0.06149084917398798,88.65851542478347,0,100,3.0,1,0.22096070148086086
1.52,0.04559141333598128,88.80252600599808,0,100,3.0,1,0.22381239615837772
1.525,0.03306217087257399,88.76406271594287,0,100,3.0,1,0.22305074685035386
1.53,0.02345067901074276,88.5449807473852,0,100,3.0,1,0.21871249004723162
1.535,0.016268788896435526,88.15577906783629,0,100,3.0,1,0.21100552609576817
1.54,0.011039026374860051,87.61476482243962,0,100,3.0,1,0.20029237272157674
1.545,0.007326255555493689,86.94662571979583,0,100,3.0,1,0.18706189544150165
1.55,0.0047556414315231815,86.18056443389439,0,100,3.0,1,0.17189236502761168
1.555,0.0030193390635632803,85.34819090517139,0,100,3.0,1,0.15540972089448302
1.56,0.001874953127946523,84.48138340308783,0,100,3.0,1,0.13824521590272937
1.565,0.0011387927410965778,83.61031721315373,0,100,3.0,1,0.1209963804584898
1.57,0.0006765107634274089,82.7618245365926,0,100,3.0,1,0.10419454527906136
1.575,0.00039307957404427924,81.9581974975489,0,100,3.0,1,0.08828113856532464
1.58,0.00022338910511776318,81.21648669901883,0,100,3.0,1,0.07359379602017485
1.585,0.00012417073320013317,80.54828942211552,0,100,3.0,1,0.06036216677456468
1.59,6.750753468904987e-05,79.95997193468784,0,100,3.0,1,0.04871231553837313
1.595,3.5897234866245036e-05,79.45323475258576,0,100,3.0,1,0.038677915892787275
1.6,1.8670050400879738e-05,79.02591053115628,0,100,3.0,1,0.030216050121906632
1.605,9.497421874143672e-06,78.67288122682059,0,100,3.0,1,0.023225370828130552
1.61,4.725434140340885e-06,78.38701167635604,0,100,3.0,1,0.01756458765061463
1.615,2.299606063738814e-06,78.16001677799984,0,100,3.0,1,0.013069639168313722
1.62,1.0945633976635486e-06,77.98320447949557,0,100,3.0,1,0.009568405534565727
1.625,5.095703414287532e-07,77.84806252373428,0,100,3.0,1,0.0068923272026591076
1.63,2.3202944964797243e-07,77.74667998599702,0,100,3.0,1,0.0048847521979607815
1.635,1.0333746954038608e-07,77.6720128543322,0,100,3.0,1,0.0034061951352909866
1.64,4.501406988770349e-08,77.61801527615162,0,100,3.0,1,0.002336936161418297
1.645,0.0,77.5796646933126,0,100,3.0,1,0.0015775186794573105
1.65,0.0,77.5529107463042,0,100,3.0,1,0.0010477375505783498
1.655,0.0,77.53457579886194,0,100,3.0,1,0.000684669284394789
1.66,0.0,77.52223058524193,0,100,3.0,1,0.00044020960875105396
1.665,0.0,77.51406306247611,0,100,3.0,1,0.00027847648467547634
1.67,0.0,77.50875304685681,0,100,3.0,1,0.00017332766053089986
1.675,0.0,77.50536029803884,0,100,3.0,1,0.00010614451562054735
1.68,0.0,77.50322975038792,0,100,3.0,1,6.395545322606727e-05
1.685,0.0,77.501914693741,0,100,3.0,1,3.791472754455348e-05
1.69,0.0,77.50111681184963,0,100,3.0,1,2.211508613123163e-05
1.695,0.0,77.50064093065815,0,100,3.0,1,1.2691696200995961e-05
1.7,0.0,77.50036190319393,0,100,3.0,1,7.166399879875231e-06
1.705,0.0,77.50020105927997,0,100,3.0,1,3.981371880663213e-06
1.71,0.0,77.50010990214456,0,100,3.0,1,2.1762800902634618e-06
1.715,0.0,77.5000591069498,0,100,3.0,1,1.1704346496180103e-06
1.72,0.0,77.50003127672464,0,100,3.0,1,6.193410820062559e-07
1.725,0.001684486749771458,77.5000162837461,0,100,3.0,1,3.2245041794421114e-07
1.73,0.00456624331333666,77.50000834137632,0,100,3.0,1,1.651757686139006e-07
1.735,0.011079731271581421,77.50000420408458,0,100,3.0,1,8.324919951636469e-08
1.74,0.024064571490409,77.50000208475734,0,100,3.0,1,4.128232358378245e-08
1.745,0.046784906529573234,77.50000101716151,0,100,3.0,1,2.0141812055413483e-08
1.75,0.08141644351188804,77.50000048828643,0,100,3.0,1,9.669038252126268e-09
1.755,0.12682276464025305,77.50000023062678,0,100,3.0,1,4.5668669638034055e-09
1.76,0.1768320708657512,77.50000010717541,0,100,3.0,1,2.1222853441634805e-09
1.765,0.22070063230473494,77.50000004900393,0,100,3.0,1,9.703748475820447e-10
1.77,0.24656126505113576,77.50000002204536,0,100,3.0,1,4.365416982794402e-10
1.775,0.24656126505724016,77.50000000975783,0,100,3.0,1,1.9322428805494247e-10
1.78,0.220700632329898,77.50000000424953,0,100,3.0,1,8.414908374070725e-11
1.785,0.17683207093748562,77.50000000182087,0,100,3.0,1,3.605673735382699e-11
1.79,0.12682276483597799,77.50000000076766,0,100,3.0,1,1.5201112096247465e-11
1.795,0.08141644409447898,77.50000000031842,0,100,3.0,1,6.305398447594679e-12
1.8,0.04678490952598309,77.50000000012996,0,100,3.0,1,2.573431017238066e-12
1.805,0.024064605020532023,77.50000000005218,0,100,3.0,1,1.0333120497865694e-12
1.81,0.011080171739334697,77.50000000002062,0,100,3.0,1,4.0831584538134865e-13
1.815,0.004571212771509492,77.50000000000801,0,100,3.0,1,1.5871132790839464e-13
1.82,0.0017299316936037438,77.50000000000307,0,100,3.0,1,6.078306175215115e-14
1.825,0.0008899431850697582,77.50000000000115,0,100,3.0,1,2.279364815705668e-14
1.83,0.002128806368910263,77.50000000000043,0,100,3.0,1,8.442091910020992e-15
1.835,0.009309664818487698,77.50000000000016,0,100,3.0,1,3.0954337003410305e-15
1.84,0.03503263543368747,77.50000000000006,0,100,3.0,1,1.1256122546694657e-15
1.845,0.10606267793605692,77.50000000000001,0,100,3.0,1,2.814030636673664e-16
1.85,0.25734927343160535,77.5,0,100,3.0,1,0.0
1.855,0.5003202479539708,77.5,0,100,3.0,1,0.0
1.86,0.7793067891790435,77.5,0,100,3.0,1,0.0
1.865,0.9720477407234077,77.50000295888552,1,100,3.0,1,5.8591792416751055e-08
1.87,0.967267334488097,77.50000524039741,0,100,3.0,1,1.0377024581754482e-07
1.875,0.7505869905515209,77.50000968777034,0,100,3.0,1,1.9183703651797618e-07
1.88,0.4028369574773956,77.50001916360264,0,100,3.0,1,3.794772800853871e-07
1.885,0.04553881263121314,77.50004121857282,0,100,3.0,1,8.162093627331638e-07
1.89,-0.189138810908105,77.50009594106962,0,100,3.0,1,1.899823160729824e-06
1.895,-0.22868072635956738,77.50023586809984,0,100,3.0,1,4.670655442288251e-06
1.9,-0.14104670682394166,77.5005940327275,0,100,3.0,1,1.1763024307041147e-05
1.905,-0.051158381651102834,77.50149382472786,0,100,3.0,1,2.9580687680382282e-05
1.91,-0.008206426846427752,77.50368623797142,0,100,3.0,1,7.299481131529113e-05
1.915,0.005350271385530505,77.5088322071912,0,100,3.0,1,0.00017489519190504136
1.92,0.01084668799215426,77.52042233725386,0,100,3.0,1,0.0004044027178982596
1.925,0.016256859896386415,77.5454137918369,0,100,3.0,1,0.0008992830066714274
1.93,0.02345021205790711,77.59693092132581,0,100,3.0,1,0.0019194241846694487
1.935,0.0330621597308209,77.69835318841899,0,100,3.0,1,0.0039277859092869604
1.94,0.04559141319943196,77.88889520769392,0,100,3.0,1,0.007700895201859812
1.945,0.06149084917446989,78.230252212582,0,100,3.0,1,0.014460439853108948
1.95,0.08111733445924295,78.81297781394841,0,100,3.0,1,0.02599956067224569
1.955,0.1046628598272375,79.76007525343036,0,100,3.0,1,0.04475396541446253
1.96,0.1320831047748631,81.22417404612169,0,100,3.0,1,0.07374602071528097
1.965,0.16303381314489318,83.37426909940943,0,100,3.0,1,0.11632216038434519
1.97,0.19682662652900276,86.36909187694062,0,100,3.0,1,0.17562558172159634
1.975,0.23241585813229,90.31731048479774,0,100,3.0,1,0.25380812841183653
1.98,0.26842527782774417,95.22975394473592,0,100,3.0,1,0.3510842365294241
1.985,0.30321927900592993,100.97448184784982,0,100,3.0,1,0.46484122470989736
1.99,0.3350163137995362,107.2495229745304,0,100,3.0,1,0.589099464842186
1.995,0.3620352400956416,113.58794688096756,0,100,3.0,1,0.7146128095241102
2.0,0.3826586036805073,119.40402327961718,0,100,3.0,1,0.8297826392003401
2.005,0.39559233134833227,124.07814116133804,0,100,3.0,1,0.9223394289373869
2.01,0.4,127.06507507295852,0,100,3.0,1,0.9814866351080895
2.015,0.39559233134833227,128.0,0,100,3.0,1,1.0
2.02,0.3826586036805073,126.77397464784038,0,100,3.0,1,0.9757222702542648
2.025,0.3620352400956416,123.5574697506431,0,100,3.0,1,0.9120291039731305
2.03,0.3350163137995362,118.76508055899866,0,100,3.0,1,0.8171303080989833
2.035,0.3032192790059296,112.97165712040321,0,100,3.0,1,0.7024090518891725
2.04,0.26842527782774417,106.80341214495571,0,100,3.0,1,0.580265587028826
2.045,0.23241585813229,100.83249608155988,0,100,3.0,1,0.46202962537742337
2.05,0.19682662652900276,95.49904046118385,0,100,3.0,1,0.3564166427957199
2.055,0.16303381314489318,91.07347659291597,0,100,3.0,1,0.26878171471120726
2.06,0.13208310477486307,87.65889755350759,0,100,3.0,1,0.20116628818826904
2.065,0.10466285982723562,85.22303009319913,0,100,3.0,1,0.15293128897424016
2.07,0.08111733445917907,83.64468683470842,0,100,3.0,1,0.12167696702392918
2.075,0.06149084917398798,82.76044107416611,0,100,3.0,1,0.10416714998348732
2.08,0.04559141333598128,82.4018147253282,0,100,3.0,1,0.09706563812531077
2.085,0.03306217087257399,82.41892532728323,0,100,3.0,1,0.09740446192640066
2.09,0.02345067901074276,82.6912182881792,0,100,3.0,1,0.10279640174612278
2.095,0.016268788896435526,83.12860525053736,0,100,3.0,1,0.11145752971361113
2.1,0.011039026374860051,83.66705832160481,0,100,3.0,1,0.12211996676445173
2.105,0.007326255555493689,84.26210434795159,0,100,3.0,1,0.13390305639508102
2.11,0.0047556414315231815,84.88249138612345,0,100,3.0,1,0.14618794824006828
2.115,0.0030193390635632803,85.50514700082618,0,100,3.0,1,0.1585177623925977
2.12,0.001874953127946523,86.1117120297268,0,100,3.0,1,0.17052895108369906
2.125,0.0011387927410965778,86.68646865022247,0,100,3.0,1,0.18191027030143497
2.13,0.0006765107634274089,87.21530755686648,0,100,3.0,1,0.19238232785874212
2.135,0.00039307957404427924,87.6853775521127,0,100,3.0,1,0.20169064459629105
2.14,0.00022338910511776318,88.08513291797723,0,100,3.0,1,0.20960659243519275
2.145,0.00012417073320013317,88.40457864665277,0,100,3.0,1,0.21593225042876765
2.15,6.750753468904987e-05,88.63558363570819,0,100,3.0,1,0.22050660664768687
2.155,3.5897234866245036e-05,88.77218108894238,0,100,3.0,1,0.2232115067117302
2.16,1.8670050400879738e-05,88.81080706774071,0,100,3.0,1,0.223976377579024
2.165,9.497421874143672e-06,88.75044829335117,0,100,3.0,1,0.22278115432378554
2.17,4.725434140340885e-06,88.59268387703733,0,100,3.0,1,0.21965710647598674
2.175,2.299606063738814e-06,88.34161582268659,0,100,3.0,1,0.21468546183537807
2.18,1.0945633976635486e-06,88.00369150900926,0,100,3.0,1,0.20799389126751006
2.185,5.095703414287532e-07,87.58742848983475,0,100,3.0,1,0.1997510592046485
2.19,2.3202944964797243e-07,87.10305787592833,0,100,3.0,1,0.19015956189957087
2.195,1.0333746954038608e-07,86.56210708703588,0,100,3.0,1,0.17944766508981946
2.2,4.501406988770349e-08,85.97694567472865,0,100,3.0,1,0.16786031039066643
2.205,0.0,85.36031908504758,0,100,3.0,1,0.15564988287222928
2.21,0.0,84.72489465445813,0,100,3.0,1,0.14306722088035892
2.215,0.0,84.08284195141535,0,100,3.0,1,0.13035330596862071
2.22,0.0,83.44546605132997,0,100,3.0,1,0.1177320010164351
2.225,0.0,82.82290782189372,0,100,3.0,1,0.10540411528502419
2.23,0.0,82.22392021157525,0,100,3.0,1,0.09354297448663856
2.235,0.0,81.65572430392301,0,100,3.0,1,0.08229157037471305
2.24,0.0,81.12394392571731,0,100,3.0,1,0.07176126585578838
2.245,0.0,80.63261321998873,0,100,3.0,1,0.06203194495027182
2.25,0.0,80.18424807300006,0,100,3.0,1,0.053153427188120064
2.255,0.0,79.77996977656676,0,100,3.0,1,0.04514791636765859
2.26,0.0,79.41966787139009,0,100,3.0,1,0.038013225176041374
2.265,0.0,79.10218871727895,0,100,3.0,1,0.0317265092530485
2.27,0.0,78.82553685767361,0,100,3.0,1,0.026248254607398252
2.275,0.0,78.58707751668592,0,100,3.0,1,0.021526287459127193
2.28,0.0,78.38373038085665,0,100,3.0,1,0.01749961150211183
2.285,0.0,78.21214695813231,0,100,3.0,1,0.014101919963016006
2.29,0.0,78.06886606613915,0,100,3.0,1,0.01126467457701289
2.295,0.0,77.95044419975721,0,100,3.0,1,0.008919687123905236
2.3,0.0,77.85355952051893,0,100,3.0,1,0.007001178624137191
2.305,0.0,77.775089896472,0,100,3.0,1,0.0054473246826137935
2.31,0.0,77.71216674316166,0,100,3.0,1,0.004201321646765546
2.315,0.0,77.66220735633325,0,100,3.0,1,0.0032120268580842553
2.32,0.0,77.6229290000414,0,100,3.0,1,0.002434237624582087
2.325,0.0,77.59234826020386,0,100,3.0,1,0.0018286784198784797
2.33,0.0,77.5687691495205,0,100,3.0,1,0.0013617653370397195
2.335,0.0,77.55076321916013,0,100,3.0,1,0.0010052122605966676
2.34,0.0,77.53714456043527,0,100,3.0,1,0.0007355358502032835
2.345,0.0,77.52694212568777,0,100,3.0,1,0.0005335074393617381
2.35,0.0,77.51937131301034,0,100,3.0,1,0.0003835903566403764
2.355,0.0,77.5138062847379,0,100,3.0,1,0.00027339177698804226
2.36,0.0,77.50975405408882,0,100,3.0,1,0.00019314958591715116
2.365,0.0,77.50683099644785,0,100,3.0,1,0.00013526725639298823
2.37,0.0,77.50474213076801,0,100,3.0,1,9.390357956451929e-05
2.375,0.0,77.50326327413342,0,100,3.0,1,6.461928977063111e-05
2.38,0.0,77.5022259948619,0,100,3.0,1,4.4079106176283886e-05
2.385,0.0,77.50150516920037,0,100,3.0,1,2.9805330700414156e-05
2.39,0.0,77.50100887429011,0,100,3.0,1,1.997770871500083e-05
2.395,0.0,77.5006703156404,0,100,3.0,1,1.3273577037737838e-05
2.4,0.0,77.50044148120305,0,100,3.0,1,8.742202040686138e-06
2.405,0.0,77.50028822765489,0,100,3.0,1,5.707478314686548e-06
2.41,0.0,77.50018653041026,0,100,3.0,2,3.6936714903137304e-06
2.415,0.0,77.50011966143565,0,100,3.0,2,2.36953337915534e-06
2.42,0.0,77.50007609381163,0,100,3.0,2,1.5068081510624252e-06
2.425,0.0,77.50004796616922,0,100,3.0,2,9.498251330623503e-07
2.43,0.0,77.50002997169454,0,100,3.0,2,5.934989018788827e-07
2.435,0.0,77.50001856428072,0,100,3.0,2,3.6760951925631645e-07
2.44,0.0,77.50001139818029,0,100,3.0,2,2.257065404191422e-07
2.445,0.0,77.50000693718832,0,100,3.0,2,1.373700656856299e-07
2.45,0.0,77.50000418525585,0,100,3.0,2,8.287635340154635e-08
2.455,0.0,77.50000250294384,0,100,3.0,2,4.956324442171553e-08
2.46,0.0,77.50000148378429,0,100,3.0,2,2.9381867095550417e-08
2.465,0.0,77.50000087192875,0,100,3.0,2,1.726591579940174e-08
2.47,0.0,77.50000050790418,0,100,3.0,2,1.0057508427845538e-08
2.475,0.0,77.50000029327371,0,100,3.0,2,5.807400290031732e-09
2.48,0.0,77.50000016786304,0,100,3.0,2,3.3240205043917327e-09
2.485,0.001684486749771458,77.50000009524179,0,100,3.0,2,1.885975995836555e-09
2.49,0.00456624331333666,77.50000005356617,0,100,3.0,2,1.0607162057387523e-09
2.495,0.011079731271581421,77.50000002986374,0,100,3.0,2,5.913612218173152e-10
2.5,0.024064571490409,77.50000001650398,0,100,3.0,2,3.2681138763298734e-10
2.505,0.046784906529573234,77.50000000904114,0,100,3.0,2,1.7903256874806984e-10
2.51,0.08141644351188804,77.50000000490962,0,100,3.0,2,9.722025604805642e-11
2.515,0.12682276464025305,77.5000000026428,0,100,3.0,2,5.23328091532838e-11
2.52,0.1768320708657512,77.50000000141017,0,100,3.0,2,2.7924188813840105e-11
2.525,0.22070063230473494,77.50000000074587,0,100,3.0,2,1.4769721199645393e-11
2.53,0.24656126505113576,77.50000000039107,0,100,3.0,2,7.743930909062256e-12
2.535,0.24656126505724016,77.50000000020324,0,100,3.0,2,4.0246266165706746e-12
2.54,0.220700632329898,77.5000000001047,0,100,3.0,2,2.0733777731011557e-12
2.545,0.17683207093748562,77.50000000005348,0,100,3.0,2,1.0589197285802998e-12
2.55,0.12682276483597799,77.50000000002707,0,100,3.0,2,5.360728362863331e-13
2.555,0.08141644409447898,77.50000000001359,0,100,3.0,2,2.6902132886600227e-13
2.56,0.04678490952598309,77.50000000000675,0,100,3.0,2,1.3366645524199904e-13
2.565,0.024064605020532023,77.50000000000333,0,100,3.0,2,6.584831689816374e-14
2.57,0.011080171739334697,77.50000000000163,0,100,3.0,2,3.2361352321747134e-14
2.575,0.004571212771509492,77.50000000000078,0,100,3.0,2,1.5477168501705154e-14
2.58,0.0017299316936037438,77.50000000000038,0,100,3.0,2,7.597882719018894e-15
2.585,0.0008899431850697582,77.50000000000018,0,100,3.0,2,3.6582398276757634e-15
2.59,0.002128806368910263,77.50000000000009,0,100,3.0,2,1.6884183820041984e-15
2.595,0.009309664818487698,77.50000000000004,0,100,3.0,2,8.442091910020992e-16
2.6,0.03503263543368747,77.50000000000001,0,100,3.0,2,2.814030636673664e-16
2.605,0.10606267793605692,77.50000000000001,0,100,3.0,2,2.814030636673664e-16
2.61,0.25734927343160535,77.5,0,100,3.0,2,0.0
2.615,0.5003202479539708,77.5,0,100,3.0,2,0.0
2.62,0.7793067891790435,77.5,0,100,3.0,2,0.0
2.625,0.9720477407234077,77.5000029754369,1,100,3.0,2,5.8919542565004434e-08
2.63,0.967267334488097,77.50000599695579,0,100,3.0,2,1.1875159984946108e-07
2.635,0.7505869905515209,77.50001298600604,0,100,3.0,2,2.571486344784194e-07
2.64,0.4028369574773956,77.50003147504462,0,100,3.0,2,6.232682103405516e-07
2.645,0.04553881263121314,77.50008619286392,0,100,3.0,2,1.7067893845188057e-06
2.65,-0.189138810908105,77.50025730044038,0,100,3.0,2,5.095058225374532e-06
2.655,-0.22868072635956738,77.5007933249374,0,100,3.0,2,1.570940470108524e-05
2.66,-0.14104670682394166,77.50241950076978,0,100,3.0,2,4.791090633219001e-05
2.665,-0.051158381651102834,77.50711144306592,0,100,3.0,2,0.00014082065477076427
2.67,-0.008206426846427752,77.51986871228921,0,100,3.0,2,0.0003934398473110814
2.675,0.005350271385530505,77.55240190738294,0,100,3.0,2,0.0010376615323355166
2.68,0.01084668799215426,77.63001002590855,0,100,3.0,2,0.0025744559585850857
2.685,0.016256859896386415,77.80289200489227,0,100,3.0,2,0.0059978614830152755
2.69,0.02345021205790711,78.16202929152928,0,100,3.0,2,0.013109490921371869
2.695,0.0330621597308209,78.85684044003119,0,100,3.0,2,0.02686812752537014
2.7,0.04559141319943196,80.10689364457848,0,100,3.0,2,0.05162165632828668
2.705,0.06149084917446989,82.19454731190469,0,100,3.0,2,0.09296133290900367
2.71,0.08111733445924295,85.42322629870154,0,100,3.0,2,0.15689557027131754
2.715,0.1046628598272375,90.03220955939476,0,100,3.0,2,0.24816256553256946
2.72,0.1320831047748631,96.0763779834986,0,100,3.0,2,0.36784906898017034
2.725,0.16303381314489318,103.30485469372982,0,100,3.0,2,0.5109872216580162
2.73,0.19682662652900276,111.0935870574871,0,100,3.0,2,0.6652195456928138
2.735,0.23241585813229,118.48679998058978,0,100,3.0,2,0.8116198015958372
2.74,0.26842527782774417,124.3703389478431,0,100,3.0,2,0.9281255237196653
2.745,0.30321927900592993,127.74334061454307,0,100,3.0,2,0.994917635931546
2.75,0.3350163137995362,128.0,0,100,3.0,2,1.0
2.755,0.3620352400956416,125.11330099463837,0,100,3.0,2,0.9428376434581854
2.76,0.3826586036805073,119.64481297500973,0,100,3.0,2,0.8345507519803906
2.765,0.39559233134833227,112.57637305393439,0,100,3.0,2,0.6945816446323642
2.77,0.4,105.03340955907804,0,100,3.0,2,0.5452160308728324
2.775,0.39559233134833227,98.00714308426187,0,100,3.0,2,0.4060820412725123
2.78,0.3826586036805073,92.16807227358933,0,100,3.0,2,0.29045687670473924
2.785,0.3620352400956416,87.8106625064421,0,100,3.0,2,0.20417153478103167
2.79,0.3350163137995362,84.91128351654942,0,100,3.0,2,0.14675808943662214
2.795,0.3032192790059296,83.24627791934817,0,100,3.0,2,0.11378768157125096
2.8,0.26842527782774417,82.51389380055394,0,100,3.0,2,0.09928502575354345
2.805,0.23241585813229,82.42351586481769,0,100,3.0,2,0.0974953636597562
2.81,0.19682662652900276,82.74137651779043,0,100,3.0,2,0.10378963401565204
2.815,0.16303381314489318,83.30063613325049,0,100,3.0,2,0.1148640818465444
2.82,0.13208310477486307,83.99100308268714,0,100,3.0,2,0.1285347145086563
2.825,0.10466285982723562,84.74151848915058,0,100,3.0,2,0.14339640572575404
2.83,0.08111733445917907,85.50482196555724,0,100,3.0,2,0.15851132605063845
2.835,0.06149084917398798,86.24611874995509,0,100,3.0,2,0.17319047029614035
2.84,0.04559141333598128,86.93688968311473,0,100,3.0,2,0.1868691026359352
2.845,0.03306217087257399,87.552095598575,0,100,3.0,2,0.19905139799158403
2.85,0.02345067901074276,88.06949801926329,0,100,3.0,2,0.20929699048046124
2.855,0.016268788896435526,88.47004810840187,0,100,3.0,2,0.2172286754138984
2.86,0.011039026374860051,88.73867645530594,0,100,3.0,2,0.2225480486199195
2.865,0.007326255555493689,88.86509801461254,0,100,3.0,2,0.22505144583391173
2.87,0.0047556414315231815,88.84442009521223,0,100,3.0,2,0.22464198208341046
2.875,0.0030193390635632803,88.6774424986801,0,100,3.0,2,0.2213354950233682
2.88,0.001874953127946523,88.37060213916769,0,100,3.0,2,0.21525944830035024
2.885,0.0011387927410965778,87.93556017778981,0,100,3.0,2,0.20664475599583781
2.89,0.0006765107634274089,87.38846637634401,0,100,3.0,2,0.19581121537314877
2.895,0.00039307957404427924,86.74896474048299,0,100,3.0,2,0.18314781664322752
2.9,0.00022338910511776318,86.03902558407252,0,100,3.0,2,0.16908961552618848
2.905,0.00012417073320013317,85.2817005402186,0,100,3.0,2,0.1540930800043286
2.91,6.750753468904987e-05,84.49989815970547,0,100,3.0,2,0.1386118447466429
2.915,3.5897234866245036e-05,83.71526910843023,0,100,3.0,2,0.1230746358104997
2.92,1.8670050400879738e-05,82.94727325500796,0,100,3.0,2,0.10786679712887044
2.925,9.497421874143672e-06,82.21247863298953,0,100,3.0,2,0.0933164085740501
2.93,4.725434140340885e-06,81.52411733001249,0,100,3.0,2,0.07968549168341559
2.935,2.299606063738814e-06,80.89189878152109,0,100,3.0,2,0.06716631250536817
2.94,1.0945633976635486e-06,80.32205933831581,0,100,3.0,2,0.05588236313496654
2.945,5.095703414287532e-07,79.8176102712143,0,100,3.0,2,0.045893272697313
2.95,2.3202944964797243e-07,79.3787356692764,0,100,3.0,2,0.03720268652032466
2.955,1.0333746954038608e-07,79.00328721222063,0,100,3.0,2,0.02976806360832925
2.96,4.501406988770349e-08,78.68732401962978,0,100,3.0,2,0.023511366725342264
2.965,0.0,78.425651592325,0,100,3.0,2,0.018329734501485076
2.97,0.0,78.21232282339807,0,100,3.0,2,0.014105402443526104
2.975,0.0,78.04107463502996,0,100,3.0,2,0.010714349208514011
2.98,0.0,77.90568457847962,0,100,3.0,2,0.008033357989695492
2.985,0.0,77.8002415759474,0,100,3.0,2,0.005945377741532598
2.99,0.0,77.71933309720917,0,100,3.0,2,0.004343229647706395
2.995,0.0,77.658157036978,0,100,3.0,2,0.0031318225144157776
3.0,0.0,77.61257031386367,0,100,3.0,2,0.002229115126013285
3.005,0.0,77.57908793610137,0,100,3.0,2,0.0015660977445816565
3.01,0.0,77.55484633547951,0,100,3.0,2,0.0010860660490992148
3.015,0.0,77.53754360721969,0,100,3.0,2,0.0007434377667265164
3.02,0.0,77.52536736675137,0,100,3.0,2,0.0005023240940864967
3.025,0.0,77.51691865312054,0,100,3.0,2,0.0003350228340701226
3.03,0.0,77.51113799947356,0,100,3.0,2,0.00022055444502101825
3.035,0.0,77.50723768383935,0,100,3.0,2,0.0001433204720663273
3.04,0.0,77.50464240506564,0,100,3.0,2,9.19288131809584e-05
3.045,0.0,77.50293925633632,0,100,3.0,2,5.820309576869035e-05
3.05,0.0,77.5018368889561,0,100,3.0,2,3.637403873477245e-05
3.055,0.0,77.50113312899164,0,100,3.0,2,2.2438197854254743e-05
3.06,0.0,77.50068996459827,0,100,3.0,2,1.3662665312191021e-05
3.065,0.0,77.50041469163281,0,100,3.0,2,8.211715501237458e-06
3.07,0.0,77.50024602245387,0,100,3.0,2,4.8717317597065364e-06
3.075,0.0,77.50014407055438,0,100,3.0,2,2.8528822650347895e-06
3.08,0.0,77.50008327731553,0,100,3.0,2,1.6490557529755503e-06
3.085,0.0,77.50004751483387,0,100,3.0,2,9.40887799337775e-07
3.09,0.0,77.50002675979127,0,100,3.0,2,5.298968567961373e-07
3.095,0.0,77.50001487603653,0,100,3.0,2,2.9457498080413606e-07
3.1,0.0,77.50000816286773,0,100,3.0,2,1.6164094513487276e-07
3.105,0.0,77.50000442129294,0,100,3.0,2,8.755035529554e-08
3.11,0.001684486749771458,77.50000236377878,0,100,3.0,2,4.680750052021623e-08
3.115,0.00456624331333666,77.50000124742768,0,100,3.0,2,2.4701538135073267e-08
3.12,0.011079731271581421,77.50000064979285,0,100,3.0,2,1.2867185196318141e-08
3.125,0.024064571490409,77.50000033410694,0,100,3.0,2,6.61597906932146e-09
3.13,0.046784906529573234,77.50000016956923,0,100,3.0,2,3.3578066004248277e-09
3.135,0.08141644351188804,77.50000008494926,0,100,3.0,2,1.682163636108064e-09
3.14,0.12682276464025305,77.50000004200716,0,100,3.0,2,8.318249235731621e-10
3.145,0.1768320708657512,77.50000002050396,0,100,3.0,2,4.060190335756956e-10
3.15,0.22070063230473494,77.50000000987878,0,100,3.0,2,1.9561930952981544e-10
3.155,0.24656126505113576,77.50000000469808,0,100,3.0,2,9.3031290042304e-11
3.16,0.24656126505724016,77.5000000022054,0,100,3.0,2,4.367122285360226e-11
3.165,0.220700632329898,77.50000000102189,0,100,3.0,2,2.023541290525665e-11
3.17,0.17683207093748562,77.50000000046738,0,100,3.0,2,9.255065360956014e-12
3.175,0.12682276483597799,77.500000000211,0,100,3.0,2,4.178272689333056e-12
3.18,0.08141644409447898,77.50000000009403,0,100,3.0,2,1.8620440722869634e-12
3.185,0.04678490952598309,77.50000000004135,0,100,3.0,2,8.188829152720362e-13
3.19,0.024064605020532023,77.50000000001796,0,100,3.0,2,3.5569347247555116e-13
3.195,0.011080171739334697,77.5000000000077,0,100,3.0,2,1.525204605077126e-13
3.2,0.004571212771509492,77.50000000000325,0,100,3.0,2,6.44413015798269e-14
3.205,0.0017299316936037438,77.50000000000136,0,100,3.0,2,2.7014694112067174e-14
3.21,0.0008899431850697582,77.50000000000055,0,100,3.0,2,1.097471948302729e-14
3.215,0.002128806368910263,77.50000000000023,0,100,3.0,2,4.502449018677863e-15
3.22,0.009309664818487698,77.50000000000009,0,100,3.0,2,1.6884183820041984e-15
3.225,0.03503263543368747,77.50000000000003,0,100,3.0,2,5.628061273347328e-16
3.23,0.10606267793605692,77.50000000000001,0,100,3.0,2,2.814030636673664e-16
3.235,0.25734927343160535,77.5,0,100,3.0,2,0.0
3.24,0.5003202479539708,77.5,0,100,3.0,2,0.0
3.245,0.7793067891790435,77.5,0,100,3.0,2,0.0
3.25,0.9720477407234077,77.50000295860458,1,100,3.0,2,5.8586229359585414e-08
3.255,0.967267334488097,77.50000607194025,0,100,3.0,2,1.2023644056189188e-07
3.26,0.7505869905515209,77.50001345273148,0,100,3.0,2,2.663907223742883e-07
3.265,0.4028369574773956,77.5000335974731,0,100,3.0,2,6.65296497145121e-07
3.27,0.04553881263121314,77.5000952391376,0,100,3.0,2,1.8859235166978084e-06
3.275,-0.189138810908105,77.50029396174413,0,100,3.0,2,5.821024636320949e-06
3.28,-0.22868072635956738,77.50093256649718,0,100,3.0,2,1.8466663310573943e-05
3.285,-0.14104670682394166,77.5029100232732,0,100,3.0,2,5.762422323172278e-05
3.29,-0.051158381651102834,77.50870714352278,0,100,3.0,2,0.00017241868361948757
3.295,-0.008206426846427752,77.5246562773498,0,100,3.0,2,0.00048824311583773423
3.3,0.005350271385530505,77.56565066778992,0,100,3.0,2,0.0013000132235628605
3.305,0.01084668799215426,77.66383990810884,0,100,3.0,2,0.0032443546160166505
3.31,0.016256859896386415,77.88262038992832,0,100,3.0,2,0.007576641384719209
3.315,0.02345021205790711,78.33545183145863,0,100,3.0,2,0.016543600622943112
3.32,0.0330621597308209,79.20484989603223,0,100,3.0,2,0.03375940388182632
3.325,0.04559141319943196,80.75054676642503,0,100,3.0,2,0.06436726270148578
3.33,0.06149084917446989,83.28992906835192,0,100,3.0,2,0.11465206075944404
3.335,0.08111733445924295,87.13394030962314,0,100,3.0,2,0.19077109524006222
3.34,0.1046628598272375,92.47378991953458,0,100,3.0,2,0.2965106914759323
3.345,0.1320831047748631,99.23955414039685,0,100,3.0,2,0.43048622060191777
3.35,0.16303381314489318,106.98246625036123,0,100,3.0,2,0.5838112128784402
3.355,0.19682662652900276,114.8494723141842,0,100,3.0,2,0.7395935111719643
3.36,0.23241585813229,121.70177762100317,0,100,3.0,2,0.8752827251683797
3.365,0.26842527782774417,126.37413972136399,0,100,3.0,2,0.9678047469577027
3.37,0.30321927900592993,128.0,0,100,3.0,2,1.0
3.375,0.3350163137995362,126.27952255457706,0,100,3.0,2,0.9659311396945952
3.38,0.3620352400956416,121.57753056726469,0,100,3.0,2,0.8728223874705879
3.385,0.3826586036805073,114.80819134861454,0,100,3.0,2,0.7387760663091989
3.39,0.39559233134833227,107.1570555269131,0,100,3.0,2,0.5872684262755069
3.395,0.4,99.75682326894582,0,100,3.0,2,0.44072917364249153
3.4,0.39559233134833227,93.437628290086,0,100,3.0,2,0.3155965998036831
3.405,0.3826586036805073,88.6210265304858,0,100,3.0,2,0.2202183471383328
3.41,0.3620352400956416,85.35521064557099,0,100,3.0,2,0.15554872565487113
3.415,0.3350163137995362,83.43676931776182,0,100,3.0,2,0.11755978847053099
3.42,0.3032192790059296,82.55078966163666,0,100,3.0,2,0.1000156368640922
3.425,0.26842527782774417,82.37990978446584,0,100,3.0,2,0.0966318769201156
3.43,0.23241585813229,82.66385053700031,0,100,3.0,2,0.10225446607921415
3.435,0.19682662652900276,83.21572546574443,0,100,3.0,2,0.11318268248998865
3.44,0.16303381314489318,83.91239791841033,0,100,3.0,2,0.12697817660218486
3.445,0.13208310477486307,84.67546318988141,0,100,3.0,2,0.14208837999765173
3.45,0.10466285982723562,85.45331282711224,0,100,3.0,2,0.1574913431111335
3.455,0.08111733445917907,86.20847512306442,0,100,3.0,2,0.17244505194186965
3.46,0.06149084917398798,86.91043201717129,0,100,3.0,2,0.1863451884588374
3.465,0.04559141333598128,87.53247338289246,0,100,3.0,2,0.19866283926519726
3.47,0.03306217087257399,88.0509704560115,0,100,3.0,2,0.20893010803983164
3.475,0.02345067901074276,88.44584531855038,0,100,3.0,2,0.21674941224852243
3.48,0.016268788896435526,88.70146811501344,0,100,3.0,2,0.22181124980224634
3.485,0.011039026374860051,88.80754517288817,0,100,3.0,2,0.2239117856017459
3.49,0.007326255555493689,88.75976200907462,0,100,3.0,2,0.22296558433811128
3.495,0.0047556414315231815,88.56006114259078,0,100,3.0,2,0.21901111173447094
3.5,0.0030193390635632803,88.21650740561338,0,100,3.0,2,0.2122080674378888
3.505,0.001874953127946523,87.74274663539316,0,100,3.0,2,0.20282666604738933
3.51,0.0011387927410965778,87.15710631316468,0,100,3.0,2,0.19122982798345892
3.515,0.0006765107634274089,86.48142019658886,0,100,3.0,2,0.17784990488294766
3.52,0.00039307957404427924,85.73968176817759,0,100,3.0,2,0.16316201521143742
3.525,0.00022338910511776318,84.95664182706211,0,100,3.0,2,0.14765627380321017
3.53,0.00012417073320013317,84.15646337911748,0,100,3.0,2,0.13181115602212837
3.535,6.750753468904987e-05,83.36153323734182,0,100,3.0,2,0.11606996509587757
3.54,3.5897234866245036e-05,82.59150690834363,0,100,3.0,2,0.10082191897710163
3.545,1.8670050400879738e-05,81.86263483969579,0,100,3.0,2,0.08638880870684726
3.55,9.497421874143672e-06,81.18738775969096,0,100,3.0,2,0.07301757939982106
3.555,4.725434140340885e-06,80.57437030471705,0,100,3.0,2,0.06087861989538713
3.56,2.299606063738814e-06,80.02848839135753,0,100,3.0,2,0.0500690770565847
3.565,1.0945633976635486e-06,79.55131885537037,0,100,3.0,2,0.040620175353868686
3.57,5.095703414287532e-07,79.14162062723075,0,100,3.0,2,0.03250733915308417
3.575,2.3202944964797243e-07,78.79592494440962,0,100,3.0,2,0.025661880087319212
3.58,1.0333746954038608e-07,78.50914673365939,0,100,3.0,2,0.019983103636819648
3.585,4.501406988770349e-08,78.2751686651716,0,100,3.0,2,0.015349874557853577
3.59,0.0,78.08736155817212,0,100,3.0,2,0.01163092194400237
3.595,0.0,77.93901792246764,0,100,3.0,2,0.008693424207280032
3.6,0.0,77.82368785280029,0,100,3.0,2,0.0064096604514908995
3.605,0.0,77.73541708275205,0,100,3.0,2,0.004661724410931694
3.61,0.0,77.66889506741865,0,100,3.0,2,0.0033444567805672436
3.615,0.0,77.61952627338034,0,100,3.0,3,0.0023668568986206853
3.62,0.0,77.583440560487,0,100,3.0,3,0.0016522883264753596
3.625,0.0,77.55745905335685,0,100,3.0,3,0.0011378030367693284
3.63,0.0,77.53903077198105,0,100,3.0,3,0.0007728865738821098
3.635,0.0,77.52615310372167,0,100,3.0,3,0.0005178832420132368
3.64,0.0,77.51728648731061,0,100,3.0,3,0.00034230667941809016
3.645,0.0,77.51127087641395,0,100,3.0,3,0.00022318567156327782
3.65,0.0,77.50724896569103,0,100,3.0,3,0.0001435438750699704
3.655,0.0,77.50459898318086,0,100,3.0,3,9.10689738783267e-05
3.66,0.0,77.50287816056776,0,100,3.0,3,5.699327856952082e-05
3.665,0.0,77.50177678810005,0,100,3.0,3,3.518392277317274e-05
3.67,0.0,77.50108199106754,0,100,3.0,3,2.1425565693793897e-05
3.675,0.0,77.5006499487824,0,100,3.0,3,1.2870272918730328e-05
3.68,0.0,77.50038512526845,0,100,3.0,3,7.626242939628661e-06
3.685,0.0,77.50022510871771,0,100,3.0,3,4.457598370580323e-06
3.69,0.0,77.5001297926306,0,100,3.0,3,2.5701511010358426e-06
3.695,0.0,77.50007382019291,0,100,3.0,3,1.4617859982094934e-06
3.7,0.0,77.50004141596045,0,100,3.0,3,8.201180287752583e-07
3.705,0.0,77.50002292069169,0,100,3.0,3,4.5387508299598373e-07
3.71,0.0,77.50001251281783,0,100,3.0,3,2.477785709414651e-07
3.715,0.0,77.50000673829383,0,100,3.0,3,1.334315610696793e-07
3.72,0.001684486749771458,77.50000357941612,0,100,3.0,3,7.087952705732466e-08
3.725,0.00456624331333666,77.50000187560704,0,100,3.0,3,3.714073347221682e-08
3.73,0.011079731271581421,77.50000096948018,0,100,3.0,3,1.919762739096696e-08
3.735,0.024064571490409,77.5000004943146,0,100,3.0,3,9.788408024718646e-09
3.74,0.046784906529573234,77.5000002486196,0,100,3.0,3,4.923160387610695e-09
3.745,0.08141644351188804,77.50000012334874,0,100,3.0,3,2.442549326714119e-09
3.75,0.12682276464025305,77.50000006036726,0,100,3.0,3,1.1953912095609352e-09
3.755,0.1768320708657512,77.5000000291431,0,100,3.0,3,5.770909910556793e-10
3.76,0.22070063230473494,77.50000001387833,0,100,3.0,3,2.748185133806137e-10
3.765,0.24656126505113576,77.50000000651939,0,100,3.0,3,1.290967508911047e-10
3.77,0.24656126505724016,77.50000000302094,0,100,3.0,3,5.982066327440875e-11
3.775,0.220700632329898,77.50000000138085,0,100,3.0,3,2.7343654293494327e-11
3.78,0.17683207093748562,77.5000000006226,0,100,3.0,3,1.2328831025394658e-11
3.785,0.12682276483597799,77.50000000027693,0,100,3.0,3,5.4837015016859696e-12
3.79,0.08141644409447898,77.50000000012149,0,100,3.0,3,2.4057147912923155e-12
3.795,0.04678490952598309,77.50000000005258,0,100,3.0,3,1.0411913355692557e-12
3.8,0.024064605020532023,77.50000000002245,0,100,3.0,3,4.446168405944389e-13
3.805,0.011080171739334697,77.50000000000945,0,100,3.0,3,1.8713303733879865e-13
3.81,0.004571212771509492,77.50000000000392,0,100,3.0,3,7.766724557219314e-14
3.815,0.0017299316936037438,77.5000000000016,0,100,3.0,3,3.179854619441241e-14
3.82,0.0008899431850697582,77.50000000000065,0,100,3.0,3,1.2944540928698855e-14
3.825,0.002128806368910263,77.50000000000026,0,100,3.0,3,5.065255146012595e-15
3.83,0.009309664818487698,77.5000000000001,0,100,3.0,3,1.969821445671565e-15
3.835,0.03503263543368747,77.50000000000004,0,100,3.0,3,8.442091910020992e-16
3.84,0.10606267793605692,77.50000000000001,0,100,3.0,3,2.814030636673664e-16
3.845,0.25734927343160535,77.5,0,100,3.0,3,0.0
3.85,0.5003202479539708,77.5,0,100,3.0,3,0.0
3.855,0.7793067891790435,77.5,0,100,3.0,3,0.0
3.86,0.9720477407234077,77.50000295858096,1,100,3.0,3,5.85857616676936e-08
3.865,0.967267334488097,77.50000649780915,0,100,3.0,3,1.2866948817744662e-07
3.87,0.7505869905515209,77.50001571079831,0,100,3.0,3,3.111049170006436e-07
3.875,0.4028369574773956,77.50004401685699,0,100,3.0,3,8.716209304854448e-07
3.88,0.04553881263121314,77.50014199796655,0,100,3.0,3,2.8118409218087877e-06
3.885,-0.189138810908105,77.50049432191162,0,100,3.0,3,9.7885527052898e-06
3.89,-0.22868072635956738,77.50173211644027,0,100,3.0,3,3.42993354508107e-05
3.895,-0.14104670682394166,77.50584288582245,0,100,3.0,3,0.00011570070935536563
3.9,-0.051158381651102834,77.51854730297484,0,100,3.0,3,0.00036727332623441534
3.905,-0.008206426846427752,77.55481496280055,0,100,3.0,3,0.001085444807931663
3.91,0.005350271385530505,77.65008419708057,0,100,3.0,3,0.0029719642986252228
3.915,0.01084668799215426,77.87981851286148,0,100,3.0,3,0.00752115867052428
3.92,0.016256859896386415,78.38742298606793,0,100,3.0,3,0.017572732397384796
3.925,0.02345021205790711,79.41315942805718,0,100,3.0,3,0.03788434511004326
3.93,0.0330621597308209,81.30460163111171,0,100,3.0,3,0.0753386461606279
3.935,0.04559141319943196,84.47809489490693,0,100,3.0,3,0.1381800969288501
3.94,0.06149084917446989,89.30317826768169,0,100,3.0,3,0.23372630233033045
3.945,0.08111733445924295,95.91109716494718,0,100,3.0,3,0.36457618148410254
3.95,0.1046628598272375,103.98360250134391,0,100,3.0,3,0.5244277723038397
3.955,0.1320831047748631,112.63196549089727,0,100,3.0,3,0.6956824849682628
3.96,0.16303381314489318,120.48176915990015,0,100,3.0,3,0.851124141780201
3.965,0.19682662652900276,126.00411814452141,0,100,3.0,3,0.960477587020226
3.97,0.23241585813229,128.0,0,100,3.0,3,1.0
3.975,0.26842527782774417,126.03166825490115,0,100,3.0,3,0.9610231337604188
3.98,0.30321927900592993,120.59024835370354,0,100,3.0,3,0.8532722446277929
3.985,0.3350163137995362,112.91318697147013,0,100,3.0,3,0.7012512271578243
3.99,0.3620352400956416,104.54533238728061,0,100,3.0,3,0.5355511363817943
3.995,0.3826586036805073,96.85710937740994,0,100,3.0,3,0.38330909658237505
4.0,0.39559233134833227,90.72270386050883,0,100,3.0,3,0.2618357200100758
4.005,0.4,86.44535081746378,0,100,3.0,3,0.17713565975175793
4.01,0.39559233134833227,83.88417312505604,0,100,3.0,3,0.12641926980308985
4.015,0.3826586036805073,82.66571321886003,0,100,3.0,3,0.10229135086851553
4.02,0.3620352400956416,82.37202450792604,0,100,3.0,3,0.09647573283021865
4.025,0.3350163137995362,82.65192834843367,0,100,3.0,3,0.10201838313730041
4.03,0.3032192790059296,83.25634189984378,0,100,3.0,3,0.11398696831373813
4.035,0.26842527782774417,84.0264242558057,0,100,3.0,3,0.12923612387734046
4.04,0.23241585813229,84.86484526486245,0,100,3.0,3,0.1458385200962862
4.045,0.19682662652900276,85.70909511705845,0,100,3.0,3,0.16255633895165253
4.05,0.16303381314489318,86.51374059129739,0,100,3.0,3,0.17848991269895825
4.055,0.13208310477486307,87.24132622835091,0,100,3.0,3,0.19289754907625573
4.06,0.10466285982723562,87.85911768203138,0,100,3.0,3,0.20513104320854222
4.065,0.08111733445917907,88.33897458047528,0,100,3.0,3,0.2146331600094115
4.07,0.06149084917398798,88.65851542478347,0,100,3.0,3,0.22096070148086086
4.075,0.04559141333598128,88.80252600599808,0,100,3.0,3,0.22381239615837772
4.08,0.03306217087257399,88.76406271594287,0,100,3.0,3,0.22305074685035386
4.085,0.02345067901074276,88.5449807473852,0,100,3.0,3,0.21871249004723162
4.09,0.016268788896435526,88.15577906783629,0,100,3.0,3,0.21100552609576817
4.095,0.011039026374860051,87.61476482243962,0,100,3.0,3,0.20029237272157674
4.1,0.007326255555493689,86.94662571979583,0,100,3.0,3,0.18706189544150165
4.105,0.0047556414315231815,86.18056443389439,0,100,3.0,3,0.17189236502761168
4.11,0.0030193390635632803,85.34819090517139,0,100,3.0,3,0.15540972089448302
4.115,0.001874953127946523,84.48138340308783,0,100,3.0,3,0.13824521590272937
4.12,0.0011387927410965778,83.61031721315373,0,100,3.0,3,0.1209963804584898
4.125,0.0006765107634274089,82.7618245365926,0,100,3.0,3,0.10419454527906136
4.13,0.00039307957404427924,81.9581974975489,0,100,3.0,3,0.08828113856532464
4.135,0.00022338910511776318,81.21648669901883,0,100,3.0,3,0.07359379602017485
4.14,0.00012417073320013317,80.54828942211552,0,100,3.0,3,0.06036216677456468
4.145,6.750753468904987e-05,79.95997193468784,0,100,3.0,3,0.04871231553837313
4.15,3.5897234866245036e-05,79.45323475258576,0,100,3.0,3,0.038677915892787275
4.155,1.8670050400879738e-05,79.02591053115628,0,100,3.0,3,0.030216050121906632
4.16,9.497421874143672e-06,78.67288122682059,0,100,3.0,3,0.023225370828130552
4.165,4.725434140340885e-06,78.38701167635604,0,100,3.0,3,0.01756458765061463
4.17,2.299606063738814e-06,78.16001677799984,0,100,3.0,3,0.013069639168313722
4.175,1.0945633976635486e-06,77.98320447949557,0,100,3.0,3,0.009568405534565727
4.18,5.095703414287532e-07,77.84806252373428,0,100,3.0,3,0.0068923272026591076
4.185,2.3202944964797243e-07,77.74667998599702,0,100,3.0,3,0.0048847521979607815
4.19,1.0333746954038608e-07,77.6720128543322,0,100,3.0,3,0.0034061951352909866
4.195,4.501406988770349e-08,77.61801527615162,0,100,3.0,3,0.002336936161418297
4.2,0.0,77.5796646933126,0,100,3.0,3,0.0015775186794573105
4.205,0.0,77.5529107463042,0,100,3.0,3,0.0010477375505783498
4.21,0.0,77.53457579886194,0,100,3.0,3,0.000684669284394789
4.215,0.0,77.52223058524193,0,100,3.0,3,0.00044020960875105396
4.22,0.0,77.51406306247611,0,100,3.0,3,0.00027847648467547634
4.225,0.0,77.50875304685681,0,100,3.0,3,0.00017332766053089986
4.23,0.0,77.50536029803884,0,100,3.0,3,0.00010614451562054735
4.235,0.0,77.50322975038792,0,100,3.0,3,6.395545322606727e-05
4.24,0.0,77.501914693741,0,100,3.0,3,3.791472754455348e-05
4.245,0.0,77.50111681184963,0,100,3.0,3,2.211508613123163e-05
4.25,0.0,77.50064093065815,0,100,3.0,3,1.2691696200995961e-05
4.255,0.0,77.50036190319393,0,100,3.0,3,7.166399879875231e-06
4.26,0.0,77.50020105927997,0,100,3.0,3,3.981371880663213e-06
4.265,0.0,77.50010990214456,0,100,3.0,3,2.1762800902634618e-06
4.27,0.0,77.5000591069498,0,100,3.0,3,1.1704346496180103e-06
4.275,0.0,77.50003127672464,0,100,3.0,3,6.193410820062559e-07
4.28,0.001684486749771458,77.5000162837461,0,100,3.0,3,3.2245041794421114e-07
4.285,0.00456624331333666,77.50000834137632,0,100,3.0,3,1.651757686139006e-07
4.29,0.011079731271581421,77.50000420408458,0,100,3.0,3,8.324919951636469e-08
4.295,0.024064571490409,77.50000208475734,0,100,3.0,3,4.128232358378245e-08
4.3,0.046784906529573234,77.50000101716151,0,100,3.0,3,2.0141812055413483e-08
4.305,0.08141644351188804,77.50000048828643,0,100,3.0,3,9.669038252126268e-09
4.31,0.12682276464025305,77.50000023062678,0,100,3.0,3,4.5668669638034055e-09
4.315,0.1768320708657512,77.50000010717541,0,100,3.0,3,2.1222853441634805e-09
4.32,0.22070063230473494,77.50000004900393,0,100,3.0,3,9.703748475820447e-10
4.325,0.24656126505113576,77.50000002204536,0,100,3.0,3,4.365416982794402e-10
4.33,0.24656126505724016,77.50000000975783,0,100,3.0,3,1.9322428805494247e-10
4.335,0.220700632329898,77.50000000424953,0,100,3.0,3,8.414908374070725e-11
4.34,0.17683207093748562,77.50000000182087,0,100,3.0,3,3.605673735382699e-11
4.345,0.12682276483597799,77.50000000076766,0,100,3.0,3,1.5201112096247465e-11
4.35,0.08141644409447898,77.50000000031842,0,100,3.0,3,6.305398447594679e-12
4.355,0.04678490952598309,77.50000000012996,0,100,3.0,3,2.573431017238066e-12
4.36,0.024064605020532023,77.50000000005218,0,100,3.0,3,1.0333120497865694e-12
4.365,0.011080171739334697,77.50000000002062,0,100,3.0,3,4.0831584538134865e-13
4.37,0.004571212771509492,77.50000000000801,0,100,3.0,3,1.5871132790839464e-13
4.375,0.0017299316936037438,77.50000000000307,0,100,3.0,3,6.078306175215115e-14
4.38,0.0008899431850697582,77.50000000000115,0,100,3.0,3,2.279364815705668e-14
4.385,0.002128806368910263,77.50000000000043,0,100,3.0,3,8.442091910020992e-15
4.39,0.009309664818487698,77.50000000000016,0,100,3.0,3,3.0954337003410305e-15
4.395,0.03503263543368747,77.50000000000006,0,100,3.0,3,1.1256122546694657e-15
4.4,0.10606267793605692,77.50000000000001,0,100,3.0,3,2.814030636673664e-16
4.405,0.25734927343160535,77.5,0,100,3.0,3,0.0
4.41,0.5003202479539708,77.5,0,100,3.0,3,0.0
4.415,0.7793067891790435,77.5,0,100,3.0,3,0.0
4.42,0.9720477407234077,77.5000029761183,1,100,3.0,3,5.8933035560504224e-08
4.425,0.967267334488097,77.50000618532628,0,100,3.0,3,1.2248170861258217e-07
4.43,0.7505869905515209,77.50001392552794,0,100,3.0,3,2.7575302847298647e-07
4.435,0.4028369574773956,77.50003551779191,0,100,3.0,3,7.033226121719882e-07
4.44,0.04553881263121314,77.50010313559092,0,100,3.0,3,2.0422889290915523e-06
4.445,-0.189138810908105,77.50032572609189,0,100,3.0,3,6.450021621528529e-06
4.45,-0.22868072635956738,77.50105352781613,0,100,3.0,3,2.0861936952983477e-05
4.455,-0.14104670682394166,77.50333849843346,0,100,3.0,3,6.610887987058545e-05
4.46,-0.051158381651102834,77.51010867794061,0,100,3.0,3,0.00020017184040806803
4.465,-0.008206426846427752,77.52887923627338,0,100,3.0,3,0.0005718660648194646
4.47,0.005350271385530505,77.57736547743413,0,100,3.0,3,0.0015319896521609532
4.475,0.01084668799215426,77.6937614840257,0,100,3.0,3,0.003836861069815838
4.48,0.016256859896386415,77.95299178483792,0,100,3.0,3,0.008970134353226137
4.485,0.02345021205790711,78.48782060961162,0,100,3.0,3,0.019560804150725097
4.49,0.0330621597308209,79.50840637712494,0,100,3.0,3,0.03977042330940479
4.495,0.04559141319943196,81.30639038119868,0,100,3.0,3,0.07537406695442934
4.5,0.06149084917446989,84.22371682098306,0,100,3.0,3,0.13314290734619916
4.505,0.08111733445924295,88.56905596488694,0,100,3.0,3,0.2191892270274642
4.51,0.1046628598272375,94.48254071967199,0,100,3.0,3,0.3362879350430097
4.515,0.1320831047748631,101.78187771882364,0,100,3.0,3,0.4808292617588839
4.52,0.16303381314489318,109.85607098931862,0,100,3.0,3,0.6407142770162104
4.525,0.19682662652900276,117.68289868067583,0,100,3.0,3,0.7957009639737789
4.53,0.23241585813229,124.01296766753546,0,100,3.0,3,0.9210488647036725
4.535,0.26842527782774417,127.69015041412591,0,100,3.0,3,0.9938643646361566
4.54,0.30321927900592993,128.0,0,100,3.0,3,1.0
4.545,0.3350163137995362,124.90331438199323,0,100,3.0,3,0.9386794927127372
4.55,0.3620352400956416,119.0509908262225,0,100,3.0,3,0.8227918975489604
4.555,0.3826586036805073,111.57334395352093,0,100,3.0,3,0.6747196822479392
4.56,0.39559233134833227,103.73799888891169,0,100,3.0,3,0.5195643344338948
4.565,0.4,96.61848240541384,0,100,3.0,3,0.3785838100081949
4.57,0.39559233134833227,90.88948241854119,0,100,3.0,3,0.265138265713687
4.575,0.3826586036805073,86.7893676493135,0,100,3.0,3,0.18394787424383177
4.58,0.3620352400956416,84.21448228450262,0,100,3.0,3,0.13296004523767568
4.585,0.3350163137995362,82.8706742557033,0,100,3.0,3,0.10634998526145162
4.59,0.3032192790059296,82.41285373443978,0,100,3.0,3,0.09728423236514412
4.595,0.26842527782774417,82.53508919471457,0,100,3.0,3,0.09970473652900144
4.6,0.23241585813229,83.00723630449004,0,100,3.0,3,0.10905418424732743
4.605,0.19682662652900276,83.67399525905368,0,100,3.0,3,0.12225733186244916
4.61,0.16303381314489318,84.43655035035052,0,100,3.0,3,0.13735743268020822
4.615,0.13208310477486307,85.23167363197578,0,100,3.0,3,0.15310244815793625
4.62,0.10466285982723562,86.01556443973125,0,100,3.0,3,0.1686250384105198
4.625,0.08111733445917907,86.75400535564901,0,100,3.0,3,0.18324763080493095
4.63,0.06149084917398798,87.41763420030695,0,100,3.0,3,0.19638879604568216
4.635,0.04559141333598128,87.98046505761806,0,100,3.0,3,0.20753396153699133
4.64,0.03306217087257399,88.42010861624007,0,100,3.0,3,0.2162397745790113
4.645,0.02345067901074276,88.71867720825321,0,100,3.0,3,0.22215202392580616
4.65,0.016268788896435526,88.86378878992376,0,100,3.0,3,0.2250255205925497
4.655,0.011039026374860051,88.84935272165478,0,100,3.0,3,0.22473965785455013
4.66,0.007326255555493689,88.67597412457343,0,100,3.0,3,0.22130641830838474
4.665,0.0047556414315231815,88.3509063891692,0,100,3.0,3,0.21486943344889498
4.67,0.0030193390635632803,87.88754641372572,0,100,3.0,3,0.20569398839060823
4.675,0.001874953127946523,87.30451845386142,0,100,3.0,3,0.19414888027448354
4.68,0.0011387927410965778,86.62443306399382,0,100,3.0,3,0.18068184285136277
4.685,0.0006765107634274089,85.87243609243906,0,100,3.0,3,0.16579081371166454
4.69,0.00039307957404427924,85.07467708397961,0,100,3.0,3,0.1499936056233586
4.695,0.00022338910511776318,84.25682600304509,0,100,3.0,3,0.13379853471376418
4.7,0.00012417073320013317,83.4427529734118,0,100,3.0,3,0.11767827670122376
4.705,6.750753468904987e-05,82.65346049137668,0,100,3.0,3,0.10204872260151836
4.71,3.5897234866245036e-05,81.90632528007868,0,100,3.0,3,0.087253965942152
4.715,1.8670050400879738e-05,81.21467213191562,0,100,3.0,3,0.07355786399832911
4.72,9.497421874143672e-06,80.58766909939999,0,100,3.0,3,0.06114196236435621
4.725,4.725434140340885e-06,80.03050585017243,0,100,3.0,3,0.05010902673608776
4.73,2.299606063738814e-06,79.54479733357823,0,100,3.0,3,0.04049103630847982
4.735,1.0945633976635486e-06,79.12914419384192,0,100,3.0,3,0.03226028106617671
4.74,5.095703414287532e-07,78.77977938473101,0,100,3.0,3,0.025342166034277518
4.745,2.3202944964797243e-07,78.49123590647207,0,100,3.0,3,0.019628433791526147
4.75,1.0333746954038608e-07,78.25698150946495,0,100,3.0,3,0.014989732860692077
4.755,4.501406988770349e-08,78.06998030229119,0,100,3.0,3,0.01128673865923139
4.76,0.0,77.9231562441036,0,100,3.0,3,0.008379331566407817
4.765,0.0,77.80974762879951,0,100,3.0,3,0.006133616411871556
4.77,0.0,77.72355354312545,0,100,3.0,3,0.004426802834167279
4.775,0.0,77.65908215107021,0,100,3.0,3,0.0031501416053506637
4.78,0.0,77.61161631556492,0,100,3.0,3,0.002210224070592399
4.785,0.0,77.5772147447986,0,100,3.0,3,0.0015290048474969466
4.79,0.0,77.55266706642777,0,100,3.0,3,0.001042912206490556
4.795,0.0,77.53541965668042,0,100,3.0,3,0.0007013793402062909
4.8,0.0,77.52348636988228,0,100,3.0,3,0.0004650766313322339
4.805,0.0,77.51535513982303,0,100,3.0,3,0.00030406217471344875
4.81,0.0,77.50989824011825,0,100,3.0,3,0.0001960047548167684
4.815,0.0,77.50629112804937,0,100,3.0,3,0.00012457679305681935
4.82,0.0,77.50394244274653,0,100,3.0,4,7.80681731987105e-05
4.825,0.0,77.50243595126653,0,100,3.0,4,4.8236658743251e-05
4.83,0.0,77.50148401443865,0,100,3.0,4,2.9386424527632303e-05
4.835,0.0,77.50089140278692,0,100,3.0,4,1.7651540335041004e-05
4.84,0.0,77.50052792980212,0,100,3.0,4,1.045405548748337e-05
4.845,0.0,77.50030827953894,0,100,3.0,4,6.104545325579148e-06
4.85,0.0,77.50017749231459,0,100,3.0,4,3.5146992988441947e-06
4.855,0.0,77.5001007582777,0,100,3.0,4,1.995213419730693e-06
4.86,0.0,77.50005639599301,0,100,3.0,4,1.1167523368975266e-06
4.865,0.0,77.50003112304574,0,100,3.0,4,6.162979355277718e-07
4.87,0.0,77.5000169348855,0,100,3.0,4,3.35344267206424e-07
4.875,0.0,77.50000908549865,0,100,3.0,4,1.7991086429217397e-07
4.88,0.001684486749771458,77.50000480597605,0,100,3.0,4,9.516784252179542e-08
4.885,0.00456624331333666,77.50000250657536,0,100,3.0,4,4.963515556762041e-08
4.89,0.011079731271581421,77.50000128898024,0,100,3.0,4,2.5524361256042774e-08
4.895,0.024064571490409,77.5000006535489,0,100,3.0,4,1.2941562277269936e-08
4.9,0.046784906529573234,77.5000003267204,0,100,3.0,4,6.469710822082309e-09
4.905,0.08141644351188804,77.50000016104258,0,100,3.0,4,3.1889619481937712e-09
4.91,0.12682276464025305,77.50000007826571,0,100,3.0,4,1.5498161170254738e-09
4.915,0.1768320708657512,77.50000003750323,0,100,3.0,4,7.426381621866816e-10
4.92,0.22070063230473494,77.50000001771872,0,100,3.0,4,3.508657215152738e-10
4.925,0.24656126505113576,77.50000000825395,0,100,3.0,4,1.6344452743927976e-10
4.93,0.24656126505724016,77.50000000379104,0,100,3.0,4,7.5070176697607e-11
4.935,0.220700632329898,77.5000000017168,0,100,3.0,4,3.399602271859087e-11
4.94,0.17683207093748562,77.50000000076656,0,100,3.0,4,1.517944406034508e-11
4.945,0.12682276483597799,77.50000000033748,0,100,3.0,4,6.682759955972617e-12
4.95,0.08141644409447898,77.50000000014649,0,100,3.0,4,2.900702780283213e-12
4.955,0.04678490952598309,77.5000000000627,0,100,3.0,4,1.2415503169004206e-12
4.96,0.024064605020532023,77.50000000002646,0,100,3.0,4,5.239725045486363e-13
4.965,0.011080171739334697,77.50000000001101,0,100,3.0,4,2.1808737434220896e-13
4.97,0.004571212771509492,77.50000000000452,0,100,3.0,4,8.948617424622252e-14
4.975,0.0017299316936037438,77.50000000000182,0,100,3.0,4,3.60195921494229e-14
4.98,0.0008899431850697582,77.50000000000072,0,100,3.0,4,1.4351556247035687e-14
4.985,0.002128806368910263,77.50000000000028,0,100,3.0,4,5.6280612733473285e-15
4.99,0.009309664818487698,77.50000000000011,0,100,3.0,4,2.2512245093389313e-15
4.995,0.03503263543368747,77.50000000000004,0,100,3.0,4,8.442091910020992e-16
5.0,0.10606267793605692,77.50000000000001,0,100,3.0,4,2.814030636673664e-16
5.005,0.25734927343160535,77.5,0,100,3.0,4,0.0
5.01,0.5003202479539708,77.5,0,100,3.0,4,0.0
5.015,0.7793067891790435,77.5,0,100,3.0,4,0.0
5.02,0.9720477407234077,77.5000029632167,1,100,3.0,4,5.867755844249559e-08
5.025,0.967267334488097,77.50000682291645,0,100,3.0,4,1.3510725637496592e-07
5.03,0.7505869905515209,77.50001756024393,0,100,3.0,4,3.4772760262841426e-07
5.035,0.4028369574773956,77.50005342195217,0,100,3.0,4,1.0578604390880938e-06
5.04,0.04553881263121314,77.50018840392086,0,100,3.0,4,3.7307707100803828e-06
5.045,-0.189138810908105,77.50070967490346,0,100,3.0,4,1.4052968385378857e-05
5.05,-0.22868072635956738,77.50264736798302,0,100,3.0,4,5.242312837655692e-05
5.055,-0.14104670682394166,77.50936430658398,0,100,3.0,4,0.00018543181354407307
5.06,-0.051158381651102834,77.53076934741445,0,100,3.0,4,0.0006092940082069027
5.065,-0.008206426846427752,77.59306177469023,0,100,3.0,4,0.0018428074196084581
5.07,0.005350271385530505,77.75802676786665,0,100,3.0,4,0.005109440947854515
5.075,0.01084668799215426,78.15461689924777,0,100,3.0,4,0.012962710876193472
5.08,0.016256859896386415,79.01828265856908,0,100,3.0,4,0.030065003139981734
5.085,0.02345021205790711,80.71788402888605,0,100,3.0,4,0.06372047581952568
5.09,0.0330621597308209,83.73079902637203,0,100,3.0,4,0.12338215893805991
5.095,0.04559141319943196,88.52107119930265,0,100,3.0,4,0.2182390336495575
5.1,0.06149084917446989,95.30690819667116,0,100,3.0,4,0.3526120434984388
5.105,0.08111733445924295,103.7805137153438,0,100,3.0,4,0.5204062121850258
5.11,0.1046628598272375,112.93009024750643,0,100,3.0,4,0.7015859454951768
5.115,0.1320831047748631,121.13525691684497,0,100,3.0,4,0.8640644934028706
5.12,0.16303381314489318,126.6019505798869,0,100,3.0,4,0.9723158530670674
5.125,0.19682662652900276,128.0,0,100,3.0,4,1.0
5.13,0.23241585813229,124.99911850064926,0,100,3.0,4,0.9405766039732527
5.135,0.26842527782774417,118.41082419885984,0,100,3.0,4,0.8101153306704919
5.14,0.30321927900592993,109.85508918464754,0,100,3.0,4,0.6406948353395553
5.145,0.3350163137995362,101.13977923732722,0,100,3.0,4,0.4681144403431132
5.15,0.3620352400956416,93.67740219718712,0,100,3.0,4,0.3203445979641014
5.155,0.3826586036805073,88.18807433450232,0,100,3.0,4,0.21164503632677856
5.16,0.39559233134833227,84.73520644729146,0,100,3.0,4,0.14327141479785072
5.165,0.4,82.96744827784511,0,100,3.0,4,0.1082663025315863
5.17,0.39559233134833227,82.39155633242602,0,100,3.0,4,0.09686250163219842
5.175,0.3826586036805073,82.55988591100417,0,100,3.0,4,0.10019576061394402
5.18,0.3620352400956416,83.1463378415175,0,100,3.0,4,0.11180867012905926
5.185,0.3350163137995362,83.94360114320315,0,100,3.0,4,0.1275960622416466
5.19,0.3032192790059296,84.8277522116186,0,100,3.0,4,0.14510400419046737
5.195,0.26842527782774417,85.72195777553705,0,100,3.0,4,0.1628110450601396
5.2,0.23241585813229,86.57191545419312,0,100,3.0,4,0.17964189018204194
5.205,0.19682662652900276,87.33344446152883,0,100,3.0,4,0.19472167250552133
5.21,0.16303381314489318,87.96825352116706,0,100,3.0,4,0.20729214893400114
5.215,0.13208310477486307,88.44394081009204,0,100,3.0,4,0.21671169920974345
5.22,0.10466285982723562,88.73561558960037,0,100,3.0,4,0.22248743741782914
5.225,0.08111733445917907,88.82770800558913,0,100,3.0,4,0.22431104961562634
5.23,0.06149084917398798,88.71524935893723,0,100,3.0,4,0.22208414572152926
5.235,0.04559141333598128,88.40429210697437,0,100,3.0,4,0.21592657637573004
5.24,0.03306217087257399,87.9113648010271,0,100,3.0,4,0.2061656396242991
5.245,0.02345067901074276,87.26201550499496,0,100,3.0,4,0.19330723772267253
5.25,0.016268788896435526,86.48861883511692,0,100,3.0,4,0.17799245218053314
5.255,0.011039026374860051,85.62770772453368,0,100,3.0,4,0.1609447074165085
5.26,0.007326255555493689,84.71713506982503,0,100,3.0,4,0.14291356573910957
5.265,0.0047556414315231815,83.79336949573046,0,100,3.0,4,0.12462117813327643
5.27,0.0030193390635632803,82.88918720853592,0,100,3.0,4,0.10671657838684981
5.275,0.001874953127946523,82.03194835275565,0,100,3.0,4,0.08974155153971582
5.28,0.0011387927410965778,81.24255572514794,0,100,3.0,4,0.0741100143593651
5.285,0.0006765107634274089,80.53510165291061,0,100,3.0,4,0.06010102282991311
5.29,0.00039307957404427924,79.91712911156813,0,100,3.0,4,0.047863942803329305
5.295,0.00022338910511776318,79.39037558157813,0,100,3.0,4,0.03743317983323023
5.3,0.00012417073320013317,78.95183743607636,0,100,3.0,4,0.028749256159927926
5.305,6.750753468904987e-05,78.59498841544391,0,100,3.0,4,0.021682938919681337
5.31,3.5897234866245036e-05,78.31100344773567,0,100,3.0,4,0.016059474212587566
5.315,1.8670050400879738e-05,78.0898716426395,0,100,3.0,4,0.011680626586920675
5.32,9.497421874143672e-06,77.92132184618897,0,100,3.0,4,0.008343006855227205
5.325,4.725434140340885e-06,77.79552354015783,0,100,3.0,4,0.005851951290254073
5.33,2.299606063738814e-06,77.70355971062563,0,100,3.0,4,0.00403088535892329
5.335,1.0945633976635486e-06,77.63769342762592,0,100,3.0,4,0.0027266025272459243
5.34,5.095703414287532e-07,77.59146527391141,0,100,3.0,4,0.001811193542800205
5.345,2.3202944964797243e-07,77.55966517374333,0,100,3.0,4,0.0011814885889767574
5.35,1.0333746954038608e-07,77.53822145556238,0,100,3.0,4,0.0007568605061857226
5.355,4.501406988770349e-08,77.52404446821832,0,100,3.0,4,0.00047612808353110806
5.36,0.0,77.51485404628625,0,100,3.0,4,0.0002941395304207059
5.365,0.0,77.50901147768072,0,100,3.0,4,0.00017844510258842634
5.37,0.0,77.5053686969771,0,100,3.0,4,0.00010631083122971762
5.375,0.0,77.5031409672966,0,100,3.0,4,6.2197372209942e-05
5.38,0.0,77.50180459429171,0,100,3.0,4,3.57345404299534e-05
5.385,0.0,77.50101816317644,0,100,3.0,4,2.016164705821103e-05
5.39,0.0,77.50056412693317,0,100,3.0,4,1.1170830359810455e-05
5.395,0.0,77.50030694313577,0,100,3.0,4,6.078081896410565e-06
5.4,0.0,77.50016400634816,0,100,3.0,4,3.2476504585621016e-06
5.405,0.0,77.5000860567684,0,100,3.0,4,1.7040944236790586e-06
5.41,0.001684486749771458,77.50004434361045,0,100,3.0,4,8.780912961324562e-07
5.415,0.00456624331333666,77.50002243875255,0,100,3.0,4,4.443317337036476e-07
5.42,0.011079731271581421,77.50001115033744,0,100,3.0,4,2.207987612415885e-07
5.425,0.024064571490409,77.50000544125342,0,100,3.0,4,1.0774759249837342e-07
5.43,0.046784906529573234,77.50000260754337,0,100,3.0,4,5.163452208375254e-08
5.435,0.08141644351188804,77.50000122711641,0,100,3.0,4,2.42993349270409e-08
5.44,0.12682276464025305,77.50000056710259,0,100,3.0,4,1.1229754235419834e-08
5.445,0.1768320708657512,77.50000025737073,0,100,3.0,4,5.096450082635441e-09
5.45,0.22070063230473494,77.50000011470392,0,100,3.0,4,2.271364808008668e-09
5.455,0.24656126505113576,77.50000005020178,0,100,3.0,4,9.940945932216307e-10
5.46,0.24656126505724016,77.50000002157653,0,100,3.0,4,4.2725792980599007e-10
5.465,0.220700632329898,77.5000000091068,0,100,3.0,4,1.8033265090221308e-10
5.47,0.17683207093748562,77.5000000037746,0,100,3.0,4,7.474459335294387e-11
5.475,0.12682276483597799,77.50000000153638,0,100,3.0,4,3.042332942226998e-11
5.48,0.08141644409447898,77.50000000061411,0,100,3.0,4,1.2160551993321572e-11
5.485,0.04678490952598309,77.50000000024106,0,100,3.0,4,4.7734401689895364e-12
5.49,0.024064605020532023,77.50000000009292,0,100,3.0,4,1.840094633320909e-12
5.495,0.011080171739334697,77.50000000003517,0,100,3.0,4,6.964725825767319e-13
5.5,0.004571212771509492,77.50000000001307,0,100,3.0,4,2.588908185739771e-13
5.505,0.0017299316936037438,77.50000000000477,0,100,3.0,4,9.455142939223511e-14
5.51,0.0008899431850697582,77.5000000000017,0,100,3.0,4,3.376836764008397e-14
5.515,0.002128806368910263,77.5000000000006,0,100,3.0,4,1.1818928674029389e-14
5.52,0.009309664818487698,77.50000000000021,0,100,3.0,4,4.221045955010496e-15
5.525,0.03503263543368747,77.50000000000007,0,100,3.0,4,1.4070153183368321e-15
5.53,0.10606267793605692,77.50000000000003,0,100,3.0,4,5.628061273347328e-16
5.535,0.25734927343160535,77.5,0,100,3.0,4,0.0
5.54,0.5003202479539708,77.5,0,100,3.0,4,0.0
5.545,0.7793067891790435,77.5,0,100,3.0,4,0.0
5.55,0.9720477407234077,77.5000029761183,1,100,3.0,4,5.8933035560504224e-08
5.555,0.967267334488097,77.50000618532628,0,100,3.0,4,1.2248170861258217e-07
5.56,0.7505869905515209,77.50001392552794,0,100,3.0,4,2.7575302847298647e-07
5.565,0.4028369574773956,77.50003551779191,0,100,3.0,4,7.033226121719882e-07
5.57,0.04553881263121314,77.50010313559092,0,100,3.0,4,2.0422889290915523e-06
5.575,-0.189138810908105,77.50032572609189,0,100,3.0,4,6.450021621528529e-06
5.58,-0.22868072635956738,77.50105352781613,0,100,3.0,4,2.0861936952983477e-05
5.585,-0.14104670682394166,77.50333849843346,0,100,3.0,4,6.610887987058545e-05
5.59,-0.051158381651102834,77.51010867794061,0,100,3.0,4,0.00020017184040806803
5.595,-0.008206426846427752,77.52887923627338,0,100,3.0,4,0.0005718660648194646
5.6,0.005350271385530505,77.57736547743413,0,100,3.0,4,0.0015319896521609532
5.605,0.01084668799215426,77.6937614840257,0,100,3.0,4,0.003836861069815838
5.61,0.016256859896386415,77.95299178483792,0,100,3.0,4,0.008970134353226137
5.615,0.02345021205790711,78.48782060961162,0,100,3.0,4,0.019560804150725097
5.62,0.0330621597308209,79.50840637712494,0,100,3.0,4,0.03977042330940479
5.625,0.04559141319943196,81.30639038119868,0,100,3.0,4,0.07537406695442934
5.63,0.06149084917446989,84.22371682098306,0,100,3.0,4,0.13314290734619916
5.635,0.08111733445924295,88.56905596488694,0,100,3.0,4,0.2191892270274642
5.64,0.1046628598272375,94.48254071967199,0,100,3.0,4,0.3362879350430097
5.645,0.1320831047748631,101.78187771882364,0,100,3.0,4,0.4808292617588839
5.65,0.16303381314489318,109.85607098931862,0,100,3.0,4,0.6407142770162104
5.655,0.19682662652900276,117.68289868067583,0,100,3.0,4,0.7957009639737789
5.66,0.23241585813229,124.01296766753546,0,100,3.0,4,0.9210488647036725
5.665,0.26842527782774417,127.69015041412591,0,100,3.0,4,0.9938643646361566
5.67,0.30321927900592993,128.0,0,100,3.0,4,1.0
5.675,0.3350163137995362,124.90331438199323,0,100,3.0,4,0.9386794927127372
5.68,0.3620352400956416,119.0509908262225,0,100,3.0,4,0.8227918975489604
5.685,0.3826586036805073,111.57334395352093,0,100,3.0,4,0.6747196822479392
5.69,0.39559233134833227,103.73799888891169,0,100,3.0,4,0.5195643344338948
5.695,0.4,96.61848240541384,0,100,3.0,4,0.3785838100081949
5.7,0.39559233134833227,90.88948241854119,0,100,3.0,4,0.265138265713687
5.705,0.3826586036805073,86.7893676493135,0,100,3.0,4,0.18394787424383177
5.71,0.3620352400956416,84.21448228450262,0,100,3.0,4,0.13296004523767568
5.715,0.3350163137995362,82.8706742557033,0,100,3.0,4,0.10634998526145162
5.72,0.3032192790059296,82.41285373443978,0,100,3.0,4,0.09728423236514412
5.725,0.26842527782774417,82.53508919471457,0,100,3.0,4,0.09970473652900144
5.73,0.23241585813229,83.00723630449004,0,100,3.0,4,0.10905418424732743
5.735,0.19682662652900276,83.67399525905368,0,100,3.0,4,0.12225733186244916
5.74,0.16303381314489318,84.43655035035052,0,100,3.0,4,0.13735743268020822
5.745,0.13208310477486307,85.23167363197578,0,100,3.0,4,0.15310244815793625
5.75,0.10466285982723562,86.01556443973125,0,100,3.0,4,0.1686250384105198
5.755,0.08111733445917907,86.75400535564901,0,100,3.0,4,0.18324763080493095
5.76,0.06149084917398798,87.41763420030695,0,100,3.0,4,0.19638879604568216
5.765,0.04559141333598128,87.98046505761806,0,100,3.0,4,0.20753396153699133
5.77,0.03306217087257399,88.42010861624007,0,100,3.0,4,0.2162397745790113
5.775,0.02345067901074276,88.71867720825321,0,100,3.0,4,0.22215202392580616
5.78,0.016268788896435526,88.86378878992376,0,100,3.0,4,0.2250255205925497
5.785,0.011039026374860051,88.84935272165478,0,100,3.0,4,0.22473965785455013
5.79,0.007326255555493689,88.67597412457343,0,100,3.0,4,0.22130641830838474
5.795,0.0047556414315231815,88.3509063891692,0,100,3.0,4,0.21486943344889498
5.8,0.0030193390635632803,87.88754641372572,0,100,3.0,4,0.20569398839060823
5.805,0.001874953127946523,87.30451845386142,0,100,3.0,4,0.19414888027448354
5.81,0.0011387927410965778,86.62443306399382,0,100,3.0,4,0.18068184285136277
5.815,0.0006765107634274089,85.87243609243906,0,100,3.0,4,0.16579081371166454
5.82,0.00039307957404427924,85.07467708397961,0,100,3.0,4,0.1499936056233586
5.825,0.00022338910511776318,84.25682600304509,0,100,3.0,4,0.13379853471376418
5.83,0.00012417073320013317,83.4427529734118,0,100,3.0,4,0.11767827670122376
5.835,6.750753468904987e-05,82.65346049137668,0,100,3.0,4,0.10204872260151836
5.84,3.5897234866245036e-05,81.90632528007868,0,100,3.0,4,0.087253965942152
5.845,1.8670050400879738e-05,81.21467213191562,0,100,3.0,4,0.07355786399832911
5.85,9.497421874143672e-06,80.58766909939999,0,100,3.0,4,0.06114196236435621
5.855,4.725434140340885e-06,80.03050585017243,0,100,3.0,4,0.05010902673608776
5.86,2.299606063738814e-06,79.54479733357823,0,100,3.0,4,0.04049103630847982
5.865,1.0945633976635486e-06,79.12914419384192,0,100,3.0,4,0.03226028106617671
5.87,5.095703414287532e-07,78.77977938473101,0,100,3.0,4,0.025342166034277518
5.875,2.3202944964797243e-07,78.49123590647207,0,100,3.0,4,0.019628433791526147
5.88,1.0333746954038608e-07,78.25698150946495,0,100,3.0,4,0.014989732860692077
5.885,4.501406988770349e-08,78.06998030229119,0,100,3.0,4,0.01128673865923139
5.89,0.0,77.9231562441036,0,100,3.0,4,0.008379331566407817
5.895,0.0,77.80974762879951,0,100,3.0,4,0.006133616411871556
5.9,0.0,77.72355354312545,0,100,3.0,4,0.004426802834167279
5.905,0.0,77.65908215107021,0,100,3.0,4,0.0031501416053506637
5.91,0.0,77.61161631556492,0,100,3.0,4,0.002210224070592399
5.915,0.0,77.5772147447986,0,100,3.0,4,0.0015290048474969466
5.92,0.0,77.55266706642777,0,100,3.0,4,0.001042912206490556
5.925,0.0,77.53541965668042,0,100,3.0,4,0.0007013793402062909
5.93,0.0,77.52348636988228,0,100,3.0,4,0.0004650766313322339
5.935,0.0,77.51535513982303,0,100,3.0,4,0.00030406217471344875
5.94,0.0,77.50989824011825,0,100,3.0,4,0.0001960047548167684
5.945,0.0,77.50629112804937,0,100,3.0,4,0.00012457679305681935
5.95,0.0,77.50394244274653,0,100,3.0,4,7.80681731987105e-05
5.955,0.0,77.50243595126653,0,100,3.0,4,4.8236658743251e-05
5.96,0.0,77.50148401443865,0,100,3.0,4,2.9386424527632303e-05
5.965,0.0,77.50089140278692,0,100,3.0,4,1.7651540335041004e-05
5.97,0.0,77.50052792980212,0,100,3.0,4,1.045405548748337e-05
5.975,0.0,77.50030827953894,0,100,3.0,4,6.104545325579148e-06
5.98,0.0,77.50017749231459,0,100,3.0,4,3.5146992988441947e-06
5.985,0.0,77.5001007582777,0,100,3.0,4,1.995213419730693e-06
5.99,0.0,77.50005639599301,0,100,3.0,4,1.1167523368975266e-06
5.995,0.0,77.50003112304574,0,100,3.0,4,6.162979355277718e-07
6.0,0.0,77.5000169348855,0,100,3.0,4,3.35344267206424e-07
6.005,0.0,77.50000908549865,0,100,3.0,4,1.7991086429217397e-07
6.01,0.001684486749771458,77.50000480597605,0,100,3.0,4,9.516784252179542e-08
6.015,0.00456624331333666,77.50000250657536,0,100,3.0,4,4.963515556762041e-08
6.02,0.011079731271581421,77.50000128898024,0,100,3.0,4,2.5524361256042774e-08
6.025,0.024064571490409,77.5000006535489,0,100,3.0,5,1.2941562277269936e-08
6.03,0.046784906529573234,77.5000003267204,0,100,3.0,5,6.469710822082309e-09
6.035,0.08141644351188804,77.50000016104258,0,100,3.0,5,3.1889619481937712e-09
6.04,0.12682276464025305,77.50000007826571,0,100,3.0,5,1.5498161170254738e-09
6.045,0.1768320708657512,77.50000003750323,0,100,3.0,5,7.426381621866816e-10
6.05,0.22070063230473494,77.50000001771872,0,100,3.0,5,3.508657215152738e-10
6.055,0.24656126505113576,77.50000000825395,0,100,3.0,5,1.6344452743927976e-10
6.06,0.24656126505724016,77.50000000379104,0,100,3.0,5,7.5070176697607e-11
6.065,0.220700632329898,77.5000000017168,0,100,3.0,5,3.399602271859087e-11
6.07,0.17683207093748562,77.50000000076656,0,100,3.0,5,1.517944406034508e-11
6.075,0.12682276483597799,77.50000000033748,0,100,3.0,5,6.682759955972617e-12
6.08,0.08141644409447898,77.50000000014649,0,100,3.0,5,2.900702780283213e-12
6.085,0.04678490952598309,77.5000000000627,0,100,3.0,5,1.2415503169004206e-12
6.09,0.024064605020532023,77.50000000002646,0,100,3.0,5,5.239725045486363e-13
6.095,0.011080171739334697,77.50000000001101,0,100,3.0,5,2.1808737434220896e-13
6.1,0.004571212771509492,77.50000000000452,0,100,3.0,5,8.948617424622252e-14
6.105,0.0017299316936037438,77.50000000000182,0,100,3.0,5,3.60195921494229e-14
6.11,0.0008899431850697582,77.50000000000072,0,100,3.0,5,1.4351556247035687e-14
6.115,0.002128806368910263,77.50000000000028,0,100,3.0,5,5.6280612733473285e-15
6.12,0.009309664818487698,77.50000000000011,0,100,3.0,5,2.2512245093389313e-15
6.125,0.03503263543368747,77.50000000000004,0,100,3.0,5,8.442091910020992e-16
6.13,0.10606267793605692,77.50000000000001,0,100,3.0,5,2.814030636673664e-16
6.135,0.25734927343160535,77.5,0,100,3.0,5,0.0
6.14,0.5003202479539708,77.5,0,100,3.0,5,0.0
6.145,0.7793067891790435,77.5,0,100,3.0,5,0.0
6.15,0.9720477407234077,77.50000295860458,1,100,3.0,5,5.8586229359585414e-08
6.155,0.967267334488097,77.50000607194025,0,100,3.0,5,1.2023644056189188e-07
6.16,0.7505869905515209,77.50001345273148,0,100,3.0,5,2.663907223742883e-07
6.165,0.4028369574773956,77.5000335974731,0,100,3.0,5,6.65296497145121e-07
6.17,0.04553881263121314,77.5000952391376,0,100,3.0,5,1.8859235166978084e-06
6.175,-0.189138810908105,77.50029396174413,0,100,3.0,5,5.821024636320949e-06
6.18,-0.22868072635956738,77.50093256649718,0,100,3.0,5,1.8466663310573943e-05
6.185,-0.14104670682394166,77.5029100232732,0,100,3.0,5,5.762422323172278e-05
6.19,-0.051158381651102834,77.50870714352278,0,100,3.0,5,0.00017241868361948757
6.195,-0.008206426846427752,77.5246562773498,0,100,3.0,5,0.00048824311583773423
6.2,0.005350271385530505,77.56565066778992,0,100,3.0,5,0.0013000132235628605
6.205,0.01084668799215426,77.66383990810884,0,100,3.0,5,0.0032443546160166505
6.21,0.016256859896386415,77.88262038992832,0,100,3.0,5,0.007576641384719209
6.215,0.02345021205790711,78.33545183145863,0,100,3.0,5,0.016543600622943112
6.22,0.0330621597308209,79.20484989603223,0,100,3.0,5,0.03375940388182632
6.225,0.04559141319943196,80.75054676642503,0,100,3.0,5,0.06436726270148578
6.23,0.06149084917446989,83.28992906835192,0,100,3.0,5,0.11465206075944404
6.235,0.08111733445924295,87.13394030962314,0,100,3.0,5,0.19077109524006222
6.24,0.1046628598272375,92.47378991953458,0,100,3.0,5,0.2965106914759323
6.245,0.1320831047748631,99.23955414039685,0,100,3.0,5,0.43048622060191777
6.25,0.16303381314489318,106.98246625036123,0,100,3.0,5,0.5838112128784402
6.255,0.19682662652900276,114.8494723141842,0,100,3.0,5,0.7395935111719643
6.26,0.23241585813229,121.70177762100317,0,100,3.0,5,0.8752827251683797
6.265,0.26842527782774417,126.37413972136399,0,100,3.0,5,0.9678047469577027
6.27,0.30321927900592993,128.0,0,100,3.0,5,1.0
6.275,0.3350163137995362,126.27952255457706,0,100,3.0,5,0.9659311396945952
6.28,0.3620352400956416,121.57753056726469,0,100,3.0,5,0.8728223874705879
6.285,0.3826586036805073,114.80819134861454,0,100,3.0,5,0.7387760663091989
6.29,0.39559233134833227,107.1570555269131,0,100,3.0,5,0.5872684262755069
6.295,0.4,99.75682326894582,0,100,3.0,5,0.44072917364249153
6.3,0.39559233134833227,93.437628290086,0,100,3.0,5,0.3155965998036831
6.305,0.3826586036805073,88.6210265304858,0,100,3.0,5,0.2202183471383328
6.31,0.3620352400956416,85.35521064557099,0,100,3.0,5,0.15554872565487113
6.315,0.3350163137995362,83.43676931776182,0,100,3.0,5,0.11755978847053099
6.32,0.3032192790059296,82.55078966163666,0,100,3.0,5,0.1000156368640922
6.325,0.26842527782774417,82.37990978446584,0,100,3.0,5,0.0966318769201156
6.33,0.23241585813229,82.66385053700031,0,100,3.0,5,0.10225446607921415
6.335,0.19682662652900276,83.21572546574443,0,100,3.0,5,0.11318268248998865
6.34,0.16303381314489318,83.91239791841033,0,100,3.0,5,0.12697817660218486
6.345,0.13208310477486307,84.67546318988141,0,100,3.0,5,0.14208837999765173
6.35,0.10466285982723562,85.45331282711224,0,100,3.0,5,0.1574913431111335
6.355,0.08111733445917907,86.20847512306442,0,100,3.0,5,0.17244505194186965
6.36,0.06149084917398798,86.91043201717129,0,100,3.0,5,0.1863451884588374
6.365,0.04559141333598128,87.53247338289246,0,100,3.0,5,0.19866283926519726
6.37,0.03306217087257399,88.0509704560115,0,100,3.0,5,0.20893010803983164
6.375,0.02345067901074276,88.44584531855038,0,100,3.0,5,0.21674941224852243
6.38,0.016268788896435526,88.70146811501344,0,100,3.0,5,0.22181124980224634
6.385,0.011039026374860051,88.80754517288817,0,100,3.0,5,0.2239117856017459
6.39,0.007326255555493689,88.75976200907462,0,100,3.0,5,0.22296558433811128
6.395,0.0047556414315231815,88.56006114259078,0,100,3.0,5,0.21901111173447094
6.4,0.0030193390635632803,88.21650740561338,0,100,3.0,5,0.2122080674378888
6.405,0.001874953127946523,87.74274663539316,0,100,3.0,5,0.20282666604738933
6.41,0.0011387927410965778,87.15710631316468,0,100,3.0,5,0.19122982798345892
6.415,0.0006765107634274089,86.48142019658886,0,100,3.0,5,0.17784990488294766
6.42,0.00039307957404427924,85.73968176817759,0,100,3.0,5,0.16316201521143742
6.425,0.00022338910511776318,84.95664182706211,0,100,3.0,5,0.14765627380321017
6.43,0.00012417073320013317,84.15646337911748,0,100,3.0,5,0.13181115602212837
6.435,6.750753468904987e-05,83.36153323734182,0,100,3.0,5,0.11606996509587757
6.44,3.5897234866245036e-05,82.59150690834363,0,100,3.0,5,0.10082191897710163
6.445,1.8670050400879738e-05,81.86263483969579,0,100,3.0,5,0.08638880870684726
6.45,9.497421874143672e-06,81.18738775969096,0,100,3.0,5,0.07301757939982106
6.455,4.725434140340885e-06,80.57437030471705,0,100,3.0,5,0.06087861989538713
6.46,2.299606063738814e-06,80.02848839135753,0,100,3.0,5,0.0500690770565847
6.465,1.0945633976635486e-06,79.55131885537037,0,100,3.0,5,0.040620175353868686
6.47,5.095703414287532e-07,79.14162062723075,0,100,3.0,5,0.03250733915308417
6.475,2.3202944964797243e-07,78.79592494440962,0,100,3.0,5,0.025661880087319212
6.48,1.0333746954038608e-07,78.50914673365939,0,100,3.0,5,0.019983103636819648
6.485,4.501406988770349e-08,78.2751686651716,0,100,3.0,5,0.015349874557853577
6.49,0.0,78.08736155817212,0,100,3.0,5,0.01163092194400237
6.495,0.0,77.93901792246764,0,100,3.0,5,0.008693424207280032
6.5,0.0,77.82368785280029,0,100,3.0,5,0.0064096604514908995
6.505,0.0,77.73541708275205,0,100,3.0,5,0.004661724410931694
6.51,0.0,77.66889506741865,0,100,3.0,5,0.0033444567805672436
6.515,0.0,77.61952627338034,0,100,3.0,5,0.0023668568986206853
6.52,0.0,77.583440560487,0,100,3.0,5,0.0016522883264753596
6.525,0.0,77.55745905335685,0,100,3.0,5,0.0011378030367693284
6.53,0.0,77.53903077198105,0,100,3.0,5,0.0007728865738821098
6.535,0.0,77.52615310372167,0,100,3.0,5,0.0005178832420132368
6.54,0.0,77.51728648731061,0,100,3.0,5,0.00034230667941809016
6.545,0.0,77.51127087641395,0,100,3.0,5,0.00022318567156327782
6.55,0.0,77.50724896569103,0,100,3.0,5,0.0001435438750699704
6.555,0.0,77.50459898318086,0,100,3.0,5,9.10689738783267e-05
6.56,0.0,77.50287816056776,0,100,3.0,5,5.699327856952082e-05
6.565,0.0,77.50177678810005,0,100,3.0,5,3.518392277317274e-05
6.57,0.0,77.50108199106754,0,100,3.0,5,2.1425565693793897e-05
6.575,0.0,77.5006499487824,0,100,3.0,5,1.2870272918730328e-05
6.58,0.0,77.50038512526845,0,100,3.0,5,7.626242939628661e-06
6.585,0.0,77.50022510871771,0,100,3.0,5,4.457598370580323e-06
6.59,0.0,77.5001297926306,0,100,3.0,5,2.5701511010358426e-06
6.595,0.0,77.50007382019291,0,100,3.0,5,1.4617859982094934e-06
6.6,0.0,77.50004141596045,0,100,3.0,5,8.201180287752583e-07
6.605,0.0,77.50002292069169,0,100,3.0,5,4.5387508299598373e-07
6.61,0.0,77.50001251281783,0,100,3.0,5,2.477785709414651e-07
6.615,0.0,77.50000673829383,0,100,3.0,5,1.334315610696793e-07
6.62,0.001684486749771458,77.50000357941612,0,100,3.0,5,7.087952705732466e-08
6.625,0.00456624331333666,77.50000187560704,0,100,3.0,5,3.714073347221682e-08
6.63,0.011079731271581421,77.50000096948018,0,100,3.0,5,1.919762739096696e-08
6.635,0.024064571490409,77.5000004943146,0,100,3.0,5,9.788408024718646e-09
6.64,0.046784906529573234,77.5000002486196,0,100,3.0,5,4.923160387610695e-09
6.645,0.08141644351188804,77.50000012334874,0,100,3.0,5,2.442549326714119e-09
6.65,0.12682276464025305,77.50000006036726,0,100,3.0,5,1.1953912095609352e-09
6.655,0.1768320708657512,77.5000000291431,0,100,3.0,5,5.770909910556793e-10
6.66,0.22070063230473494,77.50000001387833,0,100,3.0,5,2.748185133806137e-10
6.665,0.24656126505113576,77.50000000651939,0,100,3.0,5,1.290967508911047e-10
6.67,0.24656126505724016,77.50000000302094,0,100,3.0,5,5.982066327440875e-11
6.675,0.220700632329898,77.50000000138085,0,100,3.0,5,2.7343654293494327e-11
6.68,0.17683207093748562,77.5000000006226,0,100,3.0,5,1.2328831025394658e-11
6.685,0.12682276483597799,77.50000000027693,0,100,3.0,5,5.4837015016859696e-12
6.69,0.08141644409447898,77.50000000012149,0,100,3.0,5,2.4057147912923155e-12
6.695,0.04678490952598309,77.50000000005258,0,100,3.0,5,1.0411913355692557e-12
6.7,0.024064605020532023,77.50000000002245,0,100,3.0,5,4.446168405944389e-13
6.705,0.011080171739334697,77.50000000000945,0,100,3.0,5,1.8713303733879865e-13
6.71,0.004571212771509492,77.50000000000392,0,100,3.0,5,7.766724557219314e-14
6.715,0.0017299316936037438,77.5000000000016,0,100,3.0,5,3.179854619441241e-14
6.72,0.0008899431850697582,77.50000000000065,0,100,3.0,5,1.2944540928698855e-14
6.725,0.002128806368910263,77.50000000000026,0,100,3.0,5,5.065255146012595e-15
6.73,0.009309664818487698,77.5000000000001,0,100,3.0,5,1.969821445671565e-15
6.735,0.03503263543368747,77.50000000000004,0,100,3.0,5,8.442091910020992e-16
6.74,0.10606267793605692,77.50000000000001,0,100,3.0,5,2.814030636673664e-16
6.745,0.25734927343160535,77.5,0,100,3.0,5,0.0
6.75,0.5003202479539708,77.5,0,100,3.0,5,0.0
6.755,0.7793067891790435,77.5,0,100,3.0,5,0.0
6.76,0.9720477407234077,77.5000029761183,1,100,3.0,5,5.8933035560504224e-08
6.765,0.967267334488097,77.50000618532628,0,100,3.0,5,1.2248170861258217e-07
6.77,0.7505869905515209,77.50001392552794,0,100,3.0,5,2.7575302847298647e-07
6.775,0.4028369574773956,77.50003551779191,0,100,3.0,5,7.033226121719882e-07
6.78,0.04553881263121314,77.50010313559092,0,100,3.0,5,2.0422889290915523e-06
6.785,-0.189138810908105,77.50032572609189,0,100,3.0,5,6.450021621528529e-06
6.79,-0.22868072635956738,77.50105352781613,0,100,3.0,5,2.0861936952983477e-05
6.795,-0.14104670682394166,77.50333849843346,0,100,3.0,5,6.610887987058545e-05
6.8,-0.051158381651102834,77.51010867794061,0,100,3.0,5,0.00020017184040806803
6.805,-0.008206426846427752,77.52887923627338,0,100,3.0,5,0.0005718660648194646
6.81,0.005350271385530505,77.57736547743413,0,100,3.0,5,0.0015319896521609532
6.815,0.01084668799215426,77.6937614840257,0,100,3.0,5,0.003836861069815838
6.82,0.016256859896386415,77.95299178483792,0,100,3.0,5,0.008970134353226137
6.825,0.02345021205790711,78.48782060961162,0,100,3.0,5,0.019560804150725097
6.83,0.0330621597308209,79.50840637712494,0,100,3.0,5,0.03977042330940479
6.835,0.04559141319943196,81.30639038119868,0,100,3.0,5,0.07537406695442934
6.84,0.06149084917446989,84.22371682098306,0,100,3.0,5,0.13314290734619916
6.845,0.08111733445924295,88.56905596488694,0,100,3.0,5,0.2191892270274642
6.85,0.1046628598272375,94.48254071967199,0,100,3.0,5,0.3362879350430097
6.855,0.1320831047748631,101.78187771882364,0,100,3.0,5,0.4808292617588839
6.86,0.16303381314489318,109.85607098931862,0,100,3.0,5,0.6407142770162104
6.865,0.19682662652900276,117.68289868067583,0,100,3.0,5,0.7957009639737789
6.87,0.23241585813229,124.01296766753546,0,100,3.0,5,0.9210488647036725
6.875,0.26842527782774417,127.69015041412591,0,100,3.0,5,0.9938643646361566
6.88,0.30321927900592993,128.0,0,100,3.0,5,1.0
6.885,0.3350163137995362,124.90331438199323,0,100,3.0,5,0.9386794927127372
6.89,0.3620352400956416,119.0509908262225,0,100,3.0,5,0.8227918975489604
6.895,0.3826586036805073,111.57334395352093,0,100,3.0,5,0.6747196822479392
6.9,0.39559233134833227,103.73799888891169,0,100,3.0,5,0.5195643344338948
6.905,0.4,96.61848240541384,0,100,3.0,5,0.3785838100081949
6.91,0.39559233134833227,90.88948241854119,0,100,3.0,5,0.265138265713687
6.915,0.3826586036805073,86.7893676493135,0,100,3.0,5,0.18394787424383177
6.92,0.3620352400956416,84.21448228450262,0,100,3.0,5,0.13296004523767568
6.925,0.3350163137995362,82.8706742557033,0,100,3.0,5,0.10634998526145162
6.93,0.3032192790059296,82.41285373443978,0,100,3.0,5,0.09728423236514412
6.935,0.26842527782774417,82.53508919471457,0,100,3.0,5,0.09970473652900144
6.94,0.23241585813229,83.00723630449004,0,100,3.0,5,0.10905418424732743
6.945,0.19682662652900276,83.67399525905368,0,100,3.0,5,0.12225733186244916
6.95,0.16303381314489318,84.43655035035052,0,100,3.0,5,0.13735743268020822
6.955,0.13208310477486307,85.23167363197578,0,100,3.0,5,0.15310244815793625
6.96,0.10466285982723562,86.01556443973125,0,100,3.0,5,0.1686250384105198
6.965,0.08111733445917907,86.75400535564901,0,100,3.0,5,0.18324763080493095
6.97,0.06149084917398798,87.41763420030695,0,100,3.0,5,0.19638879604568216
6.975,0.04559141333598128,87.98046505761806,0,100,3.0,5,0.20753396153699133
6.98,0.03306217087257399,88.42010861624007,0,100,3.0,5,0.2162397745790113
6.985,0.02345067901074276,88.71867720825321,0,100,3.0,5,0.22215202392580616
6.99,0.016268788896435526,88.86378878992376,0,100,3.0,5,0.2250255205925497
6.995,0.011039026374860051,88.84935272165478,0,100,3.0,5,0.22473965785455013
7.0,0.007326255555493689,88.67597412457343,0,100,3.0,5,0.22130641830838474
7.005,0.0047556414315231815,88.3509063891692,0,100,3.0,5,0.21486943344889498
7.01,0.0030193390635632803,87.88754641372572,0,100,3.0,5,0.20569398839060823
7.015,0.001874953127946523,87.30451845386142,0,100,3.0,5,0.19414888027448354
7.02,0.0011387927410965778,86.62443306399382,0,100,3.0,5,0.18068184285136277
7.025,0.0006765107634274089,85.87243609243906,0,100,3.0,5,0.16579081371166454
7.03,0.00039307957404427924,85.07467708397961,0,100,3.0,5,0.1499936056233586
7.035,0.00022338910511776318,84.25682600304509,0,100,3.0,5,0.13379853471376418
7.04,0.00012417073320013317,83.4427529734118,0,100,3.0,5,0.11767827670122376
7.045,6.750753468904987e-05,82.65346049137668,0,100,3.0,5,0.10204872260151836
7.05,3.5897234866245036e-05,81.90632528007868,0,100,3.0,5,0.087253965942152
7.055,1.8670050400879738e-05,81.21467213191562,0,100,3.0,5,0.07355786399832911
7.06,9.497421874143672e-06,80.58766909939999,0,100,3.0,5,0.06114196236435621
7.065,4.725434140340885e-06,80.03050585017243,0,100,3.0,5,0.05010902673608776
7.07,2.299606063738814e-06,79.54479733357823,0,100,3.0,5,0.04049103630847982
7.075,1.0945633976635486e-06,79.12914419384192,0,100,3.0,5,0.03226028106617671
7.08,5.095703414287532e-07,78.77977938473101,0,100,3.0,5,0.025342166034277518
7.085,2.3202944964797243e-07,78.49123590647207,0,100,3.0,5,0.019628433791526147
7.09,1.0333746954038608e-07,78.25698150946495,0,100,3.0,5,0.014989732860692077
7.095,4.501406988770349e-08,78.06998030229119,0,100,3.0,5,0.01128673865923139
7.1,0.0,77.9231562441036,0,100,3.0,5,0.008379331566407817
7.105,0.0,77.80974762879951,0,100,3.0,5,0.006133616411871556
7.11,0.0,77.72355354312545,0,100,3.0,5,0.004426802834167279
7.115,0.0,77.65908215107021,0,100,3.0,5,0.0031501416053506637
7.12,0.0,77.61161631556492,0,100,3.0,5,0.002210224070592399
7.125,0.0,77.5772147447986,0,100,3.0,5,0.0015290048474969466
7.13,0.0,77.55266706642777,0,100,3.0,5,0.001042912206490556
7.135,0.0,77.53541965668042,0,100,3.0,5,0.0007013793402062909
7.14,0.0,77.52348636988228,0,100,3.0,5,0.0004650766313322339
7.145,0.0,77.51535513982303,0,100,3.0,5,0.00030406217471344875
7.15,0.0,77.50989824011825,0,100,3.0,5,0.0001960047548167684
7.155,0.0,77.50629112804937,0,100,3.0,5,0.00012457679305681935
7.16,0.0,77.50394244274653,0,100,3.0,5,7.80681731987105e-05
7.165,0.0,77.50243595126653,0,100,3.0,5,4.8236658743251e-05
7.17,0.0,77.50148401443865,0,100,3.0,5,2.9386424527632303e-05
7.175,0.0,77.50089140278692,0,100,3.0,5,1.7651540335041004e-05
7.18,0.0,77.50052792980212,0,100,3.0,5,1.045405548748337e-05
7.185,0.0,77.50030827953894,0,100,3.0,5,6.104545325579148e-06
7.19,0.0,77.50017749231459,0,100,3.0,5,3.5146992988441947e-06
7.195,0.0,77.5001007582777,0,100,3.0,5,1.995213419730693e-06
7.2,0.0,77.50005639599301,0,100,3.0,5,1.1167523368975266e-06
7.205,0.0,77.50003112304574,0,100,3.0,5,6.162979355277718e-07
7.21,0.0,77.5000169348855,0,100,3.0,5,3.35344267206424e-07
7.215,0.0,77.50000908549865,0,100,3.0,5,1.7991086429217397e-07
7.22,0.001684486749771458,77.50000480597605,0,100,3.0,5,9.516784252179542e-08
7.225,0.00456624331333666,77.50000250657536,0,100,3.0,5,4.963515556762041e-08
7.23,0.011079731271581421,77.50000128898024,0,100,3.0,6,2.5524361256042774e-08
7.235,0.024064571490409,77.5000006535489,0,100,3.0,6,1.2941562277269936e-08
7.24,0.046784906529573234,77.5000003267204,0,100,3.0,6,6.469710822082309e-09
7.245,0.08141644351188804,77.50000016104258,0,100,3.0,6,3.1889619481937712e-09
7.25,0.12682276464025305,77.50000007826571,0,100,3.0,6,1.5498161170254738e-09
7.255,0.1768320708657512,77.50000003750323,0,100,3.0,6,7.426381621866816e-10
7.26,0.22070063230473494,77.50000001771872,0,100,3.0,6,3.508657215152738e-10
7.265,0.24656126505113576,77.50000000825395,0,100,3.0,6,1.6344452743927976e-10
7.27,0.24656126505724016,77.50000000379104,0,100,3.0,6,7.5070176697607e-11
7.275,0.220700632329898,77.5000000017168,0,100,3.0,6,3.399602271859087e-11
7.28,0.17683207093748562,77.50000000076656,0,100,3.0,6,1.517944406034508e-11
7.285,0.12682276483597799,77.50000000033748,0,100,3.0,6,6.682759955972617e-12
7.29,0.08141644409447898,77.50000000014649,0,100,3.0,6,2.900702780283213e-12
7.295,0.04678490952598309,77.5000000000627,0,100,3.0,6,1.2415503169004206e-12
7.3,0.024064605020532023,77.50000000002646,0,100,3.0,6,5.239725045486363e-13
7.305,0.011080171739334697,77.50000000001101,0,100,3.0,6,2.1808737434220896e-13
7.31,0.004571212771509492,77.50000000000452,0,100,3.0,6,8.948617424622252e-14
7.315,0.0017299316936037438,77.50000000000182,0,100,3.0,6,3.60195921494229e-14
7.32,0.0008899431850697582,77.50000000000072,0,100,3.0,6,1.4351556247035687e-14
7.325,0.002128806368910263,77.50000000000028,0,100,3.0,6,5.6280612733473285e-15
7.33,0.009309664818487698,77.50000000000011,0,100,3.0,6,2.2512245093389313e-15
7.335,0.03503263543368747,77.50000000000004,0,100,3.0,6,8.442091910020992e-16
7.34,0.10606267793605692,77.50000000000001,0,100,3.0,6,2.814030636673664e-16
7.345,0.25734927343160535,77.5,0,100,3.0,6,0.0
7.35,0.5003202479539708,77.5,0,100,3.0,6,0.0
7.355,0.7793067891790435,77.5,0,100,3.0,6,0.0
7.36,0.9720477407234077,77.50000295858521,1,100,3.0,6,5.858584580720963e-08
7.365,0.967267334488097,77.50000627158161,0,100,3.0,6,1.2418973487865964e-07
7.37,0.7505869905515209,77.50001448202111,0,100,3.0,6,2.867726953417611e-07
7.375,0.4028369574773956,77.5000381880034,0,100,3.0,6,7.56198087153937e-07
7.38,0.04553881263121314,77.50011515393722,0,100,3.0,6,2.2802759844742666e-06
7.385,-0.189138810908105,77.5003768133724,0,100,3.0,6,7.461650938574905e-06
7.39,-0.22868072635956738,77.50125530195008,0,100,3.0,6,2.4857464358047304e-05
7.395,-0.14104670682394166,77.50407161723201,0,100,3.0,6,8.062608380226824e-05
7.4,-0.051158381651102834,77.5125498908563,0,100,3.0,6,0.00024851269022388076
7.405,-0.008206426846427752,77.53632357375037,0,100,3.0,6,0.0007192786881260548
7.41,0.005350271385530505,77.59816032657108,0,100,3.0,6,0.0019437688429916036
7.415,0.01084668799215426,77.74699421583978,0,100,3.0,6,0.004890974571084695
7.42,0.016256859896386415,78.0778955905149,0,100,3.0,6,0.011443477039898991
7.425,0.02345021205790711,78.75638253739591,0,100,3.0,6,0.024878862126651635
7.43,0.0330621597308209,80.03714578164362,0,100,3.0,6,0.050240510527596365
7.435,0.04559141319943196,82.2581074321164,0,100,3.0,6,0.09421994915081988
7.44,0.06149084917446989,85.78593960996649,0,100,3.0,6,0.16407801207854436
7.445,0.08111733445924295,90.89811556558197,0,100,3.0,6,0.26530921912043515
7.45,0.1046628598272375,97.61546592808551,0,100,3.0,6,0.39832605798189136
7.455,0.1320831047748631,105.5415466537269,0,100,3.0,6,0.5552781515589484
7.46,0.16303381314489318,113.79708988561208,0,100,3.0,6,0.7187542551606353
7.465,0.19682662652900276,121.12822094684294,0,100,3.0,6,0.8639251672642168
7.47,0.23241585813229,126.20143333597863,0,100,3.0,6,0.9643848185342304
7.475,0.26842527782774417,128.0,0,100,3.0,6,1.0
7.48,0.30321927900592993,126.16275066678318,0,100,3.0,6,0.9636188250848154
7.485,0.3350163137995362,121.1116044575634,0,100,3.0,6,0.8635961278725426
7.49,0.3620352400956416,113.90717007869759,0,100,3.0,6,0.7209340609643087
7.495,0.3826586036805073,105.90088318147954,0,100,3.0,6,0.5623937263659315
7.5,0.39559233134833227,98.34046706321053,0,100,3.0,6,0.41268251610317874
7.505,0.4,92.08499814602648,0,100,3.0,6,0.28881184447577185
7.51,0.39559233134833227,87.50864038323002,0,100,3.0,6,0.1981908986778221
7.515,0.3826586036805073,84.57442275691706,0,100,3.0,6,0.14008757934489227
7.52,0.3620352400956416,82.99710802083918,0,100,3.0,6,0.10885362417503323
7.525,0.3350163137995362,82.40804661099806,0,100,3.0,6,0.09718904180194171
7.53,0.3032192790059296,82.46851319639717,0,100,3.0,6,0.0983863999286568
7.535,0.26842527782774417,82.92004890238644,0,100,3.0,6,0.10732770103735526
7.54,0.23241585813229,83.58796849171559,0,100,3.0,6,0.12055383151912051
7.545,0.19682662652900276,84.36197804515345,0,100,3.0,6,0.13588075336937525
7.55,0.16303381314489318,85.17248310799981,0,100,3.0,6,0.15193035857425366
7.555,0.13208310477486307,85.97196310008664,0,100,3.0,6,0.1677616455462701
7.56,0.10466285982723562,86.72363196440325,0,100,3.0,6,0.18264617751293571
7.565,0.08111733445917907,87.39605351764324,0,100,3.0,6,0.1959614557949156
7.57,0.06149084917398798,87.9615095120021,0,100,3.0,6,0.20715860419806129
7.575,0.04559141333598128,88.39629447802281,0,100,3.0,6,0.2157682074856002
7.58,0.03306217087257399,88.6817572080628,0,100,3.0,6,0.22142093481312486
7.585,0.02345067901074276,88.80541912343043,0,100,3.0,6,0.2238696856124837
7.59,0.016268788896435526,88.761813641984,0,100,3.0,6,0.22300621073235655
7.595,0.011039026374860051,88.55286824522712,0,100,3.0,6,0.21886867812330923
7.6,0.007326255555493689,88.18775826412227,0,100,3.0,6,0.2116387775073716
7.605,0.0047556414315231815,87.68223746822366,0,100,3.0,6,0.20162846471730023
7.61,0.0030193390635632803,87.05751062541435,0,100,3.0,6,0.18925763614681884
7.615,0.001874953127946523,86.33875969754904,0,100,3.0,6,0.17502494450592151
7.62,0.0011387927410965778,85.55346606508107,0,100,3.0,6,0.15947457554615976
7.625,0.0006765107634274089,84.72968388537797,0,100,3.0,6,0.14316205713619734
7.63,0.00039307957404427924,83.8944140290608,0,100,3.0,6,0.12662205998140194
7.635,0.00022338910511776318,83.07220603434823,0,100,3.0,6,0.11034071355145003
7.64,0.00012417073320013317,82.2840812711329,0,100,3.0,6,0.09473428259669119
7.645,6.750753468904987e-05,81.54682943609703,0,100,3.0,6,0.08013523635835698
7.65,3.5897234866245036e-05,80.87268841585063,0,100,3.0,6,0.06678590922476499
7.655,1.8670050400879738e-05,80.26937973963246,0,100,3.0,6,0.054839202764999116
7.66,9.497421874143672e-06,79.7404423296401,0,100,3.0,6,0.04436519464633868
7.665,4.725434140340885e-06,79.28578839837682,0,100,3.0,6,0.03536214650251135
7.67,2.299606063738814e-06,78.90239771037702,0,100,3.0,6,0.02777025169063399
7.675,1.0945633976635486e-06,78.58506900977153,0,100,3.0,6,0.021486515044980795
7.68,5.095703414287532e-07,78.32715803895881,0,100,3.0,6,0.016379367108095323
7.685,2.3202944964797243e-07,78.12124742111936,0,100,3.0,6,0.012301929131076509
7.69,1.0333746954038608e-07,77.95971182173484,0,100,3.0,6,0.009103204390788959
7.695,4.501406988770349e-08,77.83515963913185,0,100,3.0,6,0.006636824537264261
7.7,0.0,77.74074802073012,0,100,3.0,6,0.004767287539210363
7.705,0.0,77.67038003596295,0,100,3.0,6,0.003373862098276232
7.71,0.0,77.61880087924757,0,100,3.0,6,0.0023524926583677777
7.715,0.0,77.5816141709287,0,100,3.0,6,0.001616122196607968
7.72,0.0,77.5552403549693,0,100,3.0,6,0.0010938684152336571
7.725,0.0,77.53683768391573,0,100,3.0,6,0.0007294590874402959
7.73,0.0,77.52420321967791,0,100,3.0,6,0.00047927167679039497
7.735,0.0,77.51566747236087,0,100,3.0,6,0.0003102469774430597
7.74,0.0,77.50999239747283,0,100,3.0,6,0.00019786925688769166
7.745,0.0,77.50627892699517,0,100,3.0,6,0.00012433518802307088
7.75,0.0,77.50388728278739,0,100,3.0,6,7.697589677997649e-05
7.755,0.0,77.50237111056772,0,100,3.0,6,4.695268450935074e-05
7.76,0.0,77.50142495925365,0,100,3.0,6,2.8217014923849084e-05
7.765,0.0,77.5008437194384,0,100,3.0,6,1.6707315611742756e-05
7.77,0.0,77.50049219662667,0,100,3.0,6,9.746467854781015e-06
7.775,0.0,77.50028289428887,0,100,3.0,6,5.601867106388634e-06
7.78,0.0,77.500160197117,0,100,3.0,6,3.172220138565373e-06
7.785,0.0,77.50008937790716,0,100,3.0,6,1.769859547701092e-06
7.79,0.0,77.50004913043793,0,100,3.0,6,9.728799590006794e-07
7.795,0.0,77.50002660823445,0,100,3.0,6,5.268957316743446e-07
7.8,0.0,77.50001419797643,0,100,3.0,6,2.811480480503822e-07
7.805,0.001684486749771458,77.50000746417498,0,100,3.0,6,1.4780544524280167e-07
7.81,0.00456624331333666,77.50000386618065,0,100,3.0,6,7.6558032643865e-08
7.815,0.011079731271581421,77.50000197300162,0,100,3.0,6,3.906933893676528e-08
7.82,0.024064571490409,77.5000009920138,0,100,3.0,6,1.9643837535707885e-08
7.825,0.046784906529573234,77.50000049142014,0,100,3.0,6,9.731091848710877e-09
7.83,0.08141644351188804,77.50000023984637,0,100,3.0,6,4.749433110821946e-09
7.835,0.12682276464025305,77.50000011533426,0,100,3.0,6,2.2838467223006982e-09
7.84,0.1768320708657512,77.50000005464224,0,100,3.0,6,1.0820246085257727e-09
7.845,0.22070063230473494,77.50000002550607,0,100,3.0,6,5.050706607620992e-10
7.85,0.24656126505113576,77.50000001173015,0,100,3.0,6,2.3228021926133627e-10
7.855,0.24656126505724016,77.50000000531507,0,100,3.0,6,1.0524896685755005e-10
7.86,0.220700632329898,77.50000000237279,0,100,3.0,6,4.698586954054017e-11
7.865,0.17683207093748562,77.50000000104365,0,100,3.0,6,2.066624099573139e-11
7.87,0.12682276483597799,77.50000000045226,0,100,3.0,6,8.955652501213936e-12
7.875,0.08141644409447898,77.5000000001931,0,100,3.0,6,3.823704829112175e-12
7.88,0.04678490952598309,77.50000000008123,0,100,3.0,6,1.6084999119226663e-12
7.885,0.024064605020532023,77.50000000003367,0,100,3.0,6,6.66643857827991e-13
7.89,0.011080171739334697,77.50000000001374,0,100,3.0,6,2.7211676256634333e-13
7.895,0.004571212771509492,77.50000000000553,0,100,3.0,6,1.0946579176660553e-13
7.9,0.0017299316936037438,77.50000000000219,0,100,3.0,6,4.333607180477443e-14
7.905,0.0008899431850697582,77.50000000000085,0,100,3.0,6,1.6884183820041984e-14
7.91,0.002128806368910263,77.50000000000033,0,100,3.0,6,6.472270464349428e-15
7.915,0.009309664818487698,77.50000000000013,0,100,3.0,6,2.5326275730062976e-15
7.92,0.03503263543368747,77.50000000000004,0,100,3.0,6,8.442091910020992e-16
7.925,0.10606267793605692,77.50000000000001,0,100,3.0,6,2.814030636673664e-16
7.93,0.25734927343160535,77.5,0,100,3.0,6,0.0
7.935,0.5003202479539708,77.5,0,100,3.0,6,0.0
7.94,0.7793067891790435,77.5,0,100,3.0,6,0.0
7.945,0.9720477407234077,77.50000295860458,1,100,3.0,6,5.8586229359585414e-08
7.95,0.967267334488097,77.50000607194025,0,100,3.0,6,1.2023644056189188e-07
7.955,0.7505869905515209,77.50001345273148,0,100,3.0,6,2.663907223742883e-07
7.96,0.4028369574773956,77.5000335974731,0,100,3.0,6,6.65296497145121e-07
7.965,0.04553881263121314,77.5000952391376,0,100,3.0,6,1.8859235166978084e-06
7.97,-0.189138810908105,77.50029396174413,0,100,3.0,6,5.821024636320949e-06
7.975,-0.22868072635956738,77.50093256649718,0,100,3.0,6,1.8466663310573943e-05
7.98,-0.14104670682394166,77.5029100232732,0,100,3.0,6,5.762422323172278e-05
7.985,-0.051158381651102834,77.50870714352278,0,100,3.0,6,0.00017241868361948757
7.99,-0.008206426846427752,77.5246562773498,0,100,3.0,6,0.00048824311583773423
7.995,0.005350271385530505,77.56565066778992,0,100,3.0,6,0.0013000132235628605
8.0,0.01084668799215426,77.66383990810884,0,100,3.0,6,0.0032443546160166505
8.005,0.016256859896386415,77.88262038992832,0,100,3.0,6,0.007576641384719209
8.01,0.02345021205790711,78.33545183145863,0,100,3.0,6,0.016543600622943112
8.015,0.0330621597308209,79.20484989603223,0,100,3.0,6,0.03375940388182632
8.02,0.04559141319943196,80.75054676642503,0,100,3.0,6,0.06436726270148578
8.025,0.06149084917446989,83.28992906835192,0,100,3.0,6,0.11465206075944404
8.03,0.08111733445924295,87.13394030962314,0,100,3.0,6,0.19077109524006222
8.035,0.1046628598272375,92.47378991953458,0,100,3.0,6,0.2965106914759323
8.04,0.1320831047748631,99.23955414039685,0,100,3.0,6,0.43048622060191777
8.045,0.16303381314489318,106.98246625036123,0,100,3.0,6,0.5838112128784402
8.05,0.19682662652900276,114.8494723141842,0,100,3.0,6,0.7395935111719643
8.055,0.23241585813229,121.70177762100317,0,100,3.0,6,0.8752827251683797
8.06,0.26842527782774417,126.37413972136399,0,100,3.0,6,0.9678047469577027
8.065,0.30321927900592993,128.0,0,100,3.0,6,1.0
8.07,0.3350163137995362,126.27952255457706,0,100,3.0,6,0.9659311396945952
8.075,0.3620352400956416,121.57753056726469,0,100,3.0,6,0.8728223874705879
8.08,0.3826586036805073,114.80819134861454,0,100,3.0,6,0.7387760663091989
8.085,0.39559233134833227,107.1570555269131,0,100,3.0,6,0.5872684262755069
8.09,0.4,99.75682326894582,0,100,3.0,6,0.44072917364249153
8.095,0.39559233134833227,93.437628290086,0,100,3.0,6,0.3155965998036831
8.1,0.3826586036805073,88.6210265304858,0,100,3.0,6,0.2202183471383328
8.105,0.3620352400956416,85.35521064557099,0,100,3.0,6,0.15554872565487113
8.11,0.3350163137995362,83.43676931776182,0,100,3.0,6,0.11755978847053099
8.115,0.3032192790059296,82.55078966163666,0,100,3.0,6,0.1000156368640922
8.12,0.26842527782774417,82.37990978446584,0,100,3.0,6,0.0966318769201156
8.125,0.23241585813229,82.66385053700031,0,100,3.0,6,0.10225446607921415
8.13,0.19682662652900276,83.21572546574443,0,100,3.0,6,0.11318268248998865
8.135,0.16303381314489318,83.91239791841033,0,100,3.0,6,0.12697817660218486
8.14,0.13208310477486307,84.67546318988141,0,100,3.0,6,0.14208837999765173
8.145,0.10466285982723562,85.45331282711224,0,100,3.0,6,0.1574913431111335
8.15,0.08111733445917907,86.20847512306442,0,100,3.0,6,0.17244505194186965
8.155,0.06149084917398798,86.91043201717129,0,100,3.0,6,0.1863451884588374
8.16,0.04559141333598128,87.53247338289246,0,100,3.0,6,0.19866283926519726
8.165,0.03306217087257399,88.0509704560115,0,100,3.0,6,0.20893010803983164
8.17,0.02345067901074276,88.44584531855038,0,100,3.0,6,0.21674941224852243
8.175,0.016268788896435526,88.70146811501344,0,100,3.0,6,0.22181124980224634
8.18,0.011039026374860051,88.80754517288817,0,100,3.0,6,0.2239117856017459
8.185,0.007326255555493689,88.75976200907462,0,100,3.0,6,0.22296558433811128
8.19,0.0047556414315231815,88.56006114259078,0,100,3.0,6,0.21901111173447094
8.195,0.0030193390635632803,88.21650740561338,0,100,3.0,6,0.2122080674378888
8.2,0.001874953127946523,87.74274663539316,0,100,3.0,6,0.20282666604738933
8.205,0.0011387927410965778,87.15710631316468,0,100,3.0,6,0.19122982798345892
8.21,0.0006765107634274089,86.48142019658886,0,100,3.0,6,0.17784990488294766
8.215,0.00039307957404427924,85.73968176817759,0,100,3.0,6,0.16316201521143742
8.22,0.00022338910511776318,84.95664182706211,0,100,3.0,6,0.14765627380321017
8.225,0.00012417073320013317,84.15646337911748,0,100,3.0,6,0.13181115602212837
8.23,6.750753468904987e-05,83.36153323734182,0,100,3.0,6,0.11606996509587757
8.235,3.5897234866245036e-05,82.59150690834363,0,100,3.0,6,0.10082191897710163
8.24,1.8670050400879738e-05,81.86263483969579,0,100,3.0,6,0.08638880870684726
8.245,9.497421874143672e-06,81.18738775969096,0,100,3.0,6,0.07301757939982106
8.25,4.725434140340885e-06,80.57437030471705,0,100,3.0,6,0.06087861989538713
8.255,2.299606063738814e-06,80.02848839135753,0,100,3.0,6,0.0500690770565847
8.26,1.0945633976635486e-06,79.55131885537037,0,100,3.0,6,0.040620175353868686
8.265,5.095703414287532e-07,79.14162062723075,0,100,3.0,6,0.03250733915308417
8.27,2.3202944964797243e-07,78.79592494440962,0,100,3.0,6,0.025661880087319212
8.275,1.0333746954038608e-07,78.50914673365939,0,100,3.0,6,0.019983103636819648
8.28,4.501406988770349e-08,78.2751686651716,0,100,3.0,6,0.015349874557853577
8.285,0.0,78.08736155817212,0,100,3.0,6,0.01163092194400237
8.29,0.0,77.93901792246764,0,100,3.0,6,0.008693424207280032
8.295,0.0,77.82368785280029,0,100,3.0,6,0.0064096604514908995
8.3,0.0,77.73541708275205,0,100,3.0,6,0.004661724410931694
8.305,0.0,77.66889506741865,0,100,3.0,6,0.0033444567805672436
8.31,0.0,77.61952627338034,0,100,3.0,6,0.0023668568986206853
8.315,0.0,77.583440560487,0,100,3.0,6,0.0016522883264753596
8.32,0.0,77.55745905335685,0,100,3.0,6,0.0011378030367693284
8.325,0.0,77.53903077198105,0,100,3.0,6,0.0007728865738821098
8.33,0.0,77.52615310372167,0,100,3.0,6,0.0005178832420132368
8.335,0.0,77.51728648731061,0,100,3.0,6,0.00034230667941809016
8.34,0.0,77.51127087641395,0,100,3.0,6,0.00022318567156327782
8.345,0.0,77.50724896569103,0,100,3.0,6,0.0001435438750699704
8.35,0.0,77.50459898318086,0,100,3.0,6,9.10689738783267e-05
8.355,0.0,77.50287816056776,0,100,3.0,6,5.699327856952082e-05
8.36,0.0,77.50177678810005,0,100,3.0,6,3.518392277317274e-05
8.365,0.0,77.50108199106754,0,100,3.0,6,2.1425565693793897e-05
8.37,0.0,77.5006499487824,0,100,3.0,6,1.2870272918730328e-05
8.375,0.0,77.50038512526845,0,100,3.0,6,7.626242939628661e-06
8.38,0.0,77.50022510871771,0,100,3.0,6,4.457598370580323e-06
8.385,0.0,77.5001297926306,0,100,3.0,6,2.5701511010358426e-06
8.39,0.0,77.50007382019291,0,100,3.0,6,1.4617859982094934e-06
8.395,0.0,77.50004141596045,0,100,3.0,6,8.201180287752583e-07
8.4,0.0,77.50002292069169,0,100,3.0,6,4.5387508299598373e-07
8.405,0.0,77.50001251281783,0,100,3.0,6,2.477785709414651e-07
8.41,0.0,77.50000673829383,0,100,3.0,6,1.334315610696793e-07
8.415,0.001684486749771458,77.50000357941612,0,100,3.0,6,7.087952705732466e-08
8.42,0.00456624331333666,77.50000187560704,0,100,3.0,6,3.714073347221682e-08
8.425,0.011079731271581421,77.50000096948018,0,100,3.0,6,1.919762739096696e-08
8.43,0.024064571490409,77.5000004943146,0,100,3.0,6,9.788408024718646e-09
8.435,0.046784906529573234,77.5000002486196,0,100,3.0,7,4.923160387610695e-09
8.44,0.08141644351188804,77.50000012334874,0,100,3.0,7,2.442549326714119e-09
8.445,0.12682276464025305,77.50000006036726,0,100,3.0,7,1.1953912095609352e-09
8.45,0.1768320708657512,77.5000000291431,0,100,3.0,7,5.770909910556793e-10
8.455,0.22070063230473494,77.50000001387833,0,100,3.0,7,2.748185133806137e-10
8.46,0.24656126505113576,77.50000000651939,0,100,3.0,7,1.290967508911047e-10
8.465,0.24656126505724016,77.50000000302094,0,100,3.0,7,5.982066327440875e-11
8.47,0.220700632329898,77.50000000138085,0,100,3.0,7,2.7343654293494327e-11
8.475,0.17683207093748562,77.5000000006226,0,100,3.0,7,1.2328831025394658e-11
8.48,0.12682276483597799,77.50000000027693,0,100,3.0,7,5.4837015016859696e-12
8.485,0.08141644409447898,77.50000000012149,0,100,3.0,7,2.4057147912923155e-12
8.49,0.04678490952598309,77.50000000005258,0,100,3.0,7,1.0411913355692557e-12
8.495,0.024064605020532023,77.50000000002245,0,100,3.0,7,4.446168405944389e-13
8.5,0.011080171739334697,77.50000000000945,0,100,3.0,7,1.8713303733879865e-13
8.505,0.004571212771509492,77.50000000000392,0,100,3.0,7,7.766724557219314e-14
8.51,0.0017299316936037438,77.5000000000016,0,100,3.0,7,3.179854619441241e-14
8.515,0.0008899431850697582,77.50000000000065,0,100,3.0,7,1.2944540928698855e-14
8.52,0.002128806368910263,77.50000000000026,0,100,3.0,7,5.065255146012595e-15
8.525,0.009309664818487698,77.5000000000001,0,100,3.0,7,1.969821445671565e-15
8.53,0.03503263543368747,77.50000000000004,0,100,3.0,7,8.442091910020992e-16
8.535,0.10606267793605692,77.50000000000001,0,100,3.0,7,2.814030636673664e-16
8.54,0.25734927343160535,77.5,0,100,3.0,7,0.0
8.545,0.5003202479539708,77.5,0,100,3.0,7,0.0
8.55,0.7793067891790435,77.5,0,100,3.0,7,0.0
8.555,0.9720477407234077,77.5000029632167,1,100,3.0,7,5.867755844249559e-08
