Time,ECG,Pressure,R_Peaks,mean_hr,hrv_scale,Phase_Bin,Normalized_Pressure
0.0,0.001684486749771458,77.5,0,100,3.0,0,0.0
0.005,0.00456624331333666,77.5,0,100,3.0,0,0.0
0.01,0.011079731271581421,77.5,0,100,3.0,0,0.0
0.015,0.024064571490409,77.5,0,100,3.0,0,0.0
0.02,0.046784906529573234,77.5,0,100,3.0,0,0.0
0.025,0.08141644351188804,77.5,0,100,3.0,0,0.0
0.03,0.12682276464025305,77.5,0,100,3.0,0,0.0
0.035,0.1768320708657512,77.5,0,100,3.0,0,0.0
0.04,0.22070063230473494,77.5,0,100,3.0,0,0.0
0.045,0.24656126505113576,77.5,0,100,3.0,0,0.0
0.05,0.24656126505724016,77.5,0,100,3.0,0,0.0
0.055,0.220700632329898,77.5,0,100,3.0,0,0.0
0.06,0.17683207093748562,77.5,0,100,3.0,0,0.0
0.065,0.12682276483597799,77.5,0,100,3.0,0,0.0
0.07,0.08141644409447898,77.5,0,100,3.0,0,0.0
0.075,0.04678490952598309,77.5,0,100,3.0,0,0.0
0.08,0.024064605020532023,77.5,0,100,3.0,0,0.0
0.085,0.011080171739334697,77.5,0,100,3.0,0,0.0
0.09,0.004571212771509492,77.5,0,100,3.0,0,0.0
0.095,0.0017299316936037438,77.5,0,100,3.0,0,0.0
0.1,0.0008899431850697582,77.5,0,100,3.0,0,0.0
0.105,0.002128806368910263,77.5,0,100,3.0,0,0.0
0.11,0.009309664818487698,77.5,0,100,3.0,0,0.0
0.115,0.03503263543368747,77.5,0,100,3.0,0,0.0
0.12,0.10606267793605692,77.5,0,100,3.0,0,0.0
0.125,0.25734927343160535,77.5,0,100,3.0,0,0.0
0.13,0.5003202479539708,77.5,0,100,3.0,0,0.0
0.135,0.7793067891790435,77.5,0,100,3.0,0,0.0
0.14,0.9720477407234077,77.5,0,100,3.0,0,0.0
0.145,0.967267334488097,77.5,0,100,3.0,0,0.0
0.15,0.7505869905515209,77.5,0,100,3.0,0,0.0
0.155,0.4028369574773956,77.5,0,100,3.0,0,0.0
0.16,0.04553881263121314,77.5,0,100,3.0,0,0.0
0.165,-0.189138810908105,77.5,0,100,3.0,0,0.0
0.17,-0.22868072635956738,77.5,0,100,3.0,0,0.0
0.175,-0.14104670682394166,77.5,0,100,3.0,0,0.0
0.18,-0.051158381651102834,77.5,0,100,3.0,0,0.0
0.185,-0.008206426846427752,77.5,0,100,3.0,0,0.0
0.19,0.005350271385530505,77.5,0,100,3.0,0,0.0
0.195,0.01084668799215426,77.5,0,100,3.0,0,0.0
0.2,0.016256859896386415,77.5,0,100,3.0,0,0.0
0.205,0.02345021205790711,77.5,0,100,3.0,0,0.0
0.21,0.0330621597308209,77.5,0,100,3.0,0,0.0
0.215,0.04559141319943196,77.5,0,100,3.0,0,0.0
0.22,0.06149084917446989,77.5,0,100,3.0,0,0.0
0.225,0.08111733445924295,77.5,0,100,3.0,0,0.0
0.23,0.1046628598272375,77.5,0,100,3.0,0,0.0
0.235,0.1320831047748631,77.5,0,100,3.0,0,0.0
0.24,0.16303381314489318,77.5,0,100,3.0,0,0.0
0.245,0.19682662652900276,77.5,0,100,3.0,0,0.0
0.25,0.23241585813229,77.5,0,100,3.0,0,0.0
0.255,0.26842527782774417,77.5,0,100,3.0,0,0.0
0.26,0.30321927900592993,77.5,0,100,3.0,0,0.0
0.265,0.3350163137995362,77.5,0,100,3.0,0,0.0
0.27,0.3620352400956416,77.5,0,100,3.0,0,0.0
0.275,0.3826586036805073,77.5,0,100,3.0,0,0.0
0.28,0.39559233134833227,77.5,0,100,3.0,0,0.0
0.285,0.4,77.5,0,100,3.0,0,0.0
0.29,0.39559233134833227,77.5,0,100,3.0,0,0.0
0.295,0.3826586036805073,77.5,0,100,3.0,0,0.0
0.3,0.3620352400956416,77.5,0,100,3.0,0,0.0
0.305,0.3350163137995362,77.5,0,100,3.0,0,0.0
0.31,0.3032192790059296,77.5,0,100,3.0,0,0.0
0.315,0.26842527782774417,77.5,0,100,3.0,0,0.0
0.32,0.23241585813229,77.5,0,100,3.0,0,0.0
0.325,0.19682662652900276,77.5,0,100,3.0,0,0.0
0.33,0.16303381314489318,77.5,0,100,3.0,0,0.0
0.335,0.13208310477486307,77.5,0,100,3.0,0,0.0
0.34,0.10466285982723562,77.5,0,100,3.0,0,0.0
0.345,0.08111733445917907,77.5,0,100,3.0,0,0.0
0.35,0.06149084917398798,77.5,0,100,3.0,0,0.0
0.355,0.04559141333598128,77.5,0,100,3.0,0,0.0
0.36,0.03306217087257399,77.5,0,100,3.0,0,0.0
0.365,0.02345067901074276,77.5,0,100,3.0,0,0.0
0.37,0.016268788896435526,77.5,0,100,3.0,0,0.0
0.375,0.011039026374860051,77.5,0,100,3.0,0,0.0
0.38,0.007326255555493689,77.5,0,100,3.0,0,0.0
0.385,0.0047556414315231815,77.5,0,100,3.0,0,0.0
0.39,0.0030193390635632803,77.5,0,100,3.0,0,0.0
0.395,0.001874953127946523,77.5,0,100,3.0,0,0.0
0.4,0.0011387927410965778,77.5,0,100,3.0,0,0.0
0.405,0.0006765107634274089,77.5,0,100,3.0,0,0.0
0.41,0.00039307957404427924,77.5,0,100,3.0,0,0.0
0.415,0.00022338910511776318,77.5,0,100,3.0,0,0.0
0.42,0.00012417073320013317,77.5,0,100,3.0,0,0.0
0.425,6.750753468904987e-05,77.5,0,100,3.0,0,0.0
0.43,3.5897234866245036e-05,77.5,0,100,3.0,0,0.0
0.435,1.8670050400879738e-05,77.5,0,100,3.0,0,0.0
0.44,9.497421874143672e-06,77.5,0,100,3.0,0,0.0
0.445,4.725434140340885e-06,77.5,0,100,3.0,0,0.0
0.45,2.299606063738814e-06,77.5,0,100,3.0,0,0.0
0.455,1.0945633976635486e-06,77.5,0,100,3.0,0,0.0
0.46,5.095703414287532e-07,77.5,0,100,3.0,0,0.0
0.465,2.3202944964797243e-07,77.5,0,100,3.0,0,0.0
0.47,1.0333746954038608e-07,77.5,0,100,3.0,0,0.0
0.475,4.501406988770349e-08,77.5,0,100,3.0,0,0.0
0.48,0.0,77.5,0,100,3.0,0,0.0
0.485,0.0,77.5,0,100,3.0,0,0.0
0.49,0.0,77.5,0,100,3.0,0,0.0
0.495,0.0,77.5,0,100,3.0,0,0.0
0.5,0.0,77.5,0,100,3.0,0,0.0
0.505,0.0,77.5,0,100,3.0,0,0.0
0.51,0.0,77.5,0,100,3.0,0,0.0
0.515,0.0,77.5,0,100,3.0,0,0.0
0.52,0.0,77.5,0,100,3.0,0,0.0
0.525,0.0,77.5,0,100,3.0,0,0.0
0.53,0.0,77.5,0,100,3.0,0,0.0
0.535,0.0,77.5,0,100,3.0,0,0.0
0.54,0.0,77.5,0,100,3.0,0,0.0
0.545,0.0,77.5,0,100,3.0,0,0.0
0.55,0.0,77.5,0,100,3.0,0,0.0
0.555,0.0,77.5,0,100,3.0,0,0.0
0.56,0.0,77.5,0,100,3.0,0,0.0
0.565,0.0,77.5,0,100,3.0,0,0.0
0.57,0.0,77.5,0,100,3.0,0,0.0
0.575,0.0,77.5,0,100,3.0,0,0.0
0.58,0.0,77.5,0,100,3.0,0,0.0
0.585,0.0,77.5,0,100,3.0,0,0.0
0.59,0.0,77.5,0,100,3.0,0,0.0
0.595,0.0,77.5,0,100,3.0,0,0.0
0.6,0.0,77.5,0,100,3.0,0,0.0
0.605,0.0,77.5,0,100,3.0,0,0.0
0.61,0.0,77.5,0,100,3.0,0,0.0
0.615,0.0,77.5,0,100,3.0,0,0.0
0.62,0.0,77.5,0,100,3.0,0,0.0
0.625,0.0,77.5,0,100,3.0,0,0.0
0.63,0.001684486749771458,77.5,0,100,3.0,0,0.0
0.635,0.00456624331333666,77.5,0,100,3.0,0,0.0
0.64,0.011079731271581421,77.5,0,100,3.0,0,0.0
0.645,0.024064571490409,77.5,0,100,3.0,0,0.0
0.65,0.046784906529573234,77.5,0,100,3.0,0,0.0
0.655,0.08141644351188804,77.5,0,100,3.0,0,0.0
0.66,0.12682276464025305,77.5,0,100,3.0,0,0.0
0.665,0.1768320708657512,77.5,0,100,3.0,0,0.0
0.67,0.22070063230473494,77.5,0,100,3.0,0,0.0
0.675,0.24656126505113576,77.5,0,100,3.0,0,0.0
0.68,0.24656126505724016,77.5,0,100,3.0,0,0.0
0.685,0.220700632329898,77.5,0,100,3.0,0,0.0
0.69,0.17683207093748562,77.5,0,100,3.0,0,0.0
0.695,0.12682276483597799,77.5,0,100,3.0,0,0.0
0.7,0.08141644409447898,77.5,0,100,3.0,0,0.0
0.705,0.04678490952598309,77.5,0,100,3.0,0,0.0
0.71,0.024064605020532023,77.5,0,100,3.0,0,0.0
0.715,0.011080171739334697,77.5,0,100,3.0,0,0.0
0.72,0.004571212771509492,77.5,0,100,3.0,0,0.0
0.725,0.0017299316936037438,77.5,0,100,3.0,0,0.0
0.73,0.0008899431850697582,77.5,0,100,3.0,0,0.0
0.735,0.002128806368910263,77.5,0,100,3.0,0,0.0
0.74,0.009309664818487698,77.5,0,100,3.0,0,0.0
0.745,0.03503263543368747,77.5,0,100,3.0,0,0.0
0.75,0.10606267793605692,77.5,0,100,3.0,0,0.0
0.755,0.25734927343160535,77.5,0,100,3.0,0,0.0
0.76,0.5003202479539708,77.5,0,100,3.0,0,0.0
0.765,0.7793067891790435,77.5,0,100,3.0,0,0.0
0.77,0.9720477407234077,77.5000029768749,1,100,3.0,0,5.8948017741016935e-08
0.775,0.967267334488097,77.50000639791868,0,100,3.0,0,1.2669145904861705e-07
0.78,0.7505869905515209,77.50001503914727,0,100,3.0,0,2.978048964657976e-07
0.785,0.4028369574773956,77.5000405977313,0,100,3.0,0,8.039154712749602e-07
0.79,0.04553881263121314,77.50012568133535,0,100,3.0,0,2.488739313818796e-06
0.795,-0.189138810908105,77.50042139469598,0,100,3.0,0,8.344449425278683e-06
0.8,-0.22868072635956738,77.50143220973679,0,100,3.0,0,2.8360588847345023e-05
0.805,-0.14104670682394166,77.5047186192955,0,100,3.0,0,9.343800585153338e-05
0.81,-0.051158381651102834,77.51471703980556,0,100,3.0,0,0.0002914265308031825
0.815,-0.008206426846427752,77.54295938552251,0,100,3.0,0,0.0008506809014357997
0.82,0.005350271385530505,77.6167303530177,0,100,3.0,0,0.002311492138964373
0.825,0.01084668799215426,77.79449447378158,0,100,3.0,0,0.005831573738249171
0.83,0.016256859896386415,78.1889498680611,0,100,3.0,0,0.013642571644774282
0.835,0.02345021205790711,78.9936054602403,0,100,3.0,0,0.029576345747332738
0.84,0.0330621597308209,80.4996856165681,0,100,3.0,0,0.059399715179566354
0.845,0.04559141319943196,83.07993103850617,0,100,3.0,0,0.11049368393081534
0.85,0.06149084917446989,87.11287313371587,0,100,3.0,0,0.19035392343991814
0.855,0.08111733445924295,92.83655963825184,0,100,3.0,0,0.3036942502624127
0.86,0.1046628598272375,100.1592760486476,0,100,3.0,0,0.44869853561678413
0.865,0.1320831047748631,108.50359714416015,0,100,3.0,0,0.6139326167160426
0.87,0.16303381314489318,116.78654847688122,0,100,3.0,0,0.777951454987747
0.875,0.19682662652900276,123.60821001847575,0,100,3.0,0,0.913033861751995
0.88,0.23241585813229,127.62847233815549,0,100,3.0,0,0.9926430165971384
0.885,0.26842527782774417,128.0,0,100,3.0,0,1.0
0.89,0.30321927900592993,124.66760400991004,0,100,3.0,0,0.934011960592278
0.895,0.3350163137995362,118.39038146372059,0,100,3.0,0,0.8097105240340711
0.9,0.3620352400956416,110.47562935409675,0,100,3.0,0,0.6529827594870644
0.905,0.3826586036805073,102.35298204453142,0,100,3.0,0,0.4921382583075528
0.91,0.39559233134833227,95.17874322086946,0,100,3.0,0,0.35007412318553394
0.915,0.4,89.61569511522995,0,100,3.0,0,0.23991475475702878
0.92,0.39559233134833227,85.82517009686714,0,100,3.0,0,0.16485485340330971
0.925,0.3826586036805073,83.6090618349903,0,100,3.0,0,0.12097152148495643
0.93,0.3620352400956416,82.59933730320935,0,100,3.0,0,0.1009769763011753
0.935,0.3350163137995362,82.41268319594003,0,100,3.0,0,0.09728085536514917
0.94,0.3032192790059296,82.73585255051967,0,100,3.0,0,0.10368024852514192
0.945,0.26842527782774417,83.34863649182353,0,100,3.0,0,0.11581458399650547
0.95,0.23241585813229,84.11012510513392,0,100,3.0,0,0.1308935664382954
0.955,0.19682662652900276,84.93289016428321,0,100,3.0,0,0.14718594384719225
0.96,0.16303381314489318,85.75985479737454,0,100,3.0,0,0.1635614811361296
0.965,0.13208310477486307,86.54900938892803,0,100,3.0,0,0.17918830473124805
0.97,0.10466285982723562,87.2655137876512,0,100,3.0,0,0.19337651064655845
0.975,0.08111733445917907,87.87880541393756,0,100,3.0,0,0.2055208992858922
0.98,0.06149084917398798,88.36243221298648,0,100,3.0,0,0.21509766758389062
0.985,0.04559141333598128,88.69504827525046,0,100,3.0,0,0.2216841242623853
0.99,0.03306217087257399,88.86166481029888,0,100,3.0,0,0.22498346159007676
0.995,0.02345067901074276,88.85467214111144,0,100,3.0,0,0.22484499289329576
1.0,0.016268788896435526,88.67438787319062,0,100,3.0,0,0.22127500738991338
1.005,0.011039026374860051,88.32902560186928,0,100,3.0,0,0.21443615053206486
1.01,0.007326255555493689,87.834072636083,0,100,3.0,0,0.20463510170461374
1.015,0.0047556414315231815,87.21113807884366,0,100,3.0,0,0.19229976393749823
1.02,0.0030193390635632803,86.48638950473932,0,100,3.0,0,0.177948307024541
1.025,0.001874953127946523,85.68873539894074,0,100,3.0,0,0.16215317621664824
1.03,0.0011387927410965778,84.84792859716677,0,100,3.0,0,0.14550353657755982
1.035,0.0006765107634274089,83.99276234682259,0,100,3.0,0,0.12856955142222945
1.04,0.00039307957404427924,83.14950732513329,0,100,3.0,0,0.11187143218085714
1.045,0.00022338910511776318,82.34069963296807,0,100,3.0,0,0.0958554382765954
1.05,0.00012417073320013317,81.58434279250736,0,100,3.0,0,0.08087807509915558
1.055,6.750753468904987e-05,80.89353805575186,0,100,3.0,0,0.06719877338122497
1.06,3.5897234866245036e-05,80.27651326693037,0,100,3.0,0,0.05498046073129437
1.065,1.8670050400879738e-05,79.73698603104926,0,100,3.0,0,0.04429675309008427
1.07,9.497421874143672e-06,79.27477491320202,0,100,3.0,0,0.03514405768716877
1.075,4.725434140340885e-06,78.88656355336967,0,100,3.0,0,0.027456704027122157
1.08,2.299606063738814e-06,78.56672572691414,0,100,3.0,0,0.02112328172107214
1.085,1.0945633976635486e-06,78.30813189638289,0,100,3.0,0,0.01600261180956216
1.09,5.095703414287532e-07,78.10287630828009,0,100,3.0,0,0.011938144718417582
1.095,2.3202944964797243e-07,77.94288469900617,0,100,3.0,0,0.008769994039726167
1.1,1.0333746954038608e-07,77.82038311916784,0,100,3.0,0,0.0063442201815414505
1.105,4.501406988770349e-08,77.72822597134211,0,100,3.0,0,0.004519326165190349
1.11,0.0,77.66009471412842,0,100,3.0,0,0.0031701923589786034
1.115,0.0,77.61058733996865,0,100,3.0,0,0.0021898483162108096
1.12,0.0,77.57522294299544,0,100,3.0,0,0.0014895632276324417
1.125,0.0,77.55038621312866,0,100,3.0,0,0.0009977467946269503
1.13,0.0,77.53323453510313,0,100,3.0,0,0.0006581096060026449
1.135,0.0,77.52158658720883,0,100,3.0,0,0.0004274571724520814
1.14,0.0,77.51380685790998,0,100,3.0,0,0.0002734031269303704
1.145,0.0,77.5086960537223,0,100,3.0,0,0.0001721990836099709
1.15,0.0,77.50539344261945,0,100,3.0,0,0.00010680084394950859
1.155,0.0,77.50329402128571,0,100,3.0,0,6.522814427151136e-05
1.16,0.0,77.50198108554771,0,100,3.0,0,3.922941678637255e-05
1.165,0.0,77.50117326616962,0,100,3.0,0,2.323299345773806e-05
1.17,0.0,77.50068423668777,0,100,3.0,0,1.3549241342076076e-05
1.175,0.0,77.5003929458036,0,100,3.0,0,7.781105021721677e-06
1.18,0.0,77.50022221606024,0,100,3.0,0,4.400318024499038e-06
1.185,0.0,77.5001237470122,0,100,3.0,0,2.4504358850775826e-06
1.19,0.0,77.5000678594742,0,100,3.0,0,1.3437519643534554e-06
1.195,0.0,77.50003664398938,0,100,3.0,0,7.256235519862727e-07
1.2,0.0,77.50001948549742,0,100,3.0,0,3.858514340249307e-07
1.205,0.001684486749771458,77.50001020320788,0,100,3.0,1,2.0204372036811162e-07
1.21,0.00456624331333666,77.50000526112309,0,100,3.0,1,1.0418065530171985e-07
1.215,0.011079731271581421,77.50000267138621,0,100,3.0,1,5.289873688480379e-08
1.22,0.024064571490409,77.50000133570758,0,100,3.0,1,2.6449655051422243e-08
1.225,0.046784906529573234,77.50000065766176,0,100,3.0,1,1.3023005107747354e-08
1.23,0.08141644351188804,77.5000003188675,0,100,3.0,1,6.3142080519058494e-09
1.235,0.12682276464025305,77.500000152242,0,100,3.0,1,3.0146929705074623e-09
1.24,0.1768320708657512,77.50000007157726,0,100,3.0,1,1.4173715138859185e-09
1.245,0.22070063230473494,77.50000003313846,0,100,3.0,1,6.562071810026957e-10
1.25,0.24656126505113576,77.50000001510796,0,100,3.0,1,2.991674762705599e-10
1.255,0.24656126505724016,77.5000000067826,0,100,3.0,1,1.3430889843635165e-10
1.26,0.220700632329898,77.50000000299849,0,100,3.0,1,5.937604643381431e-11
1.265,0.17683207093748562,77.50000000130535,0,100,3.0,1,2.584855981622961e-11
1.27,0.12682276483597799,77.50000000055958,0,100,3.0,1,1.1080808438029887e-11
1.275,0.08141644409447898,77.50000000023623,0,100,3.0,1,4.677763127342632e-12
1.28,0.04678490952598309,77.5000000000982,0,100,3.0,1,1.944495169941502e-12
1.285,0.024064605020532023,77.50000000004019,0,100,3.0,1,7.958078640513122e-13
1.29,0.011080171739334697,77.5000000000162,0,100,3.0,1,3.207994925807977e-13
1.295,0.004571212771509492,77.50000000000644,0,100,3.0,1,1.27475587841317e-13
1.3,0.0017299316936037438,77.50000000000252,0,100,3.0,1,4.9808342269123855e-14
1.305,0.0008899431850697582,77.50000000000097,0,100,3.0,1,1.9135408329380917e-14
1.31,0.002128806368910263,77.50000000000037,0,100,3.0,1,7.316479655351527e-15
1.315,0.009309664818487698,77.50000000000014,0,100,3.0,1,2.8140306366736642e-15
1.32,0.03503263543368747,77.50000000000004,0,100,3.0,1,8.442091910020992e-16
1.325,0.10606267793605692,77.50000000000001,0,100,3.0,1,2.814030636673664e-16
1.33,0.25734927343160535,77.5,0,100,3.0,1,0.0
1.335,0.5003202479539708,77.5,0,100,3.0,1,0.0
1.34,0.7793067891790435,77.5,0,100,3.0,1,0.0
1.345,0.9720477407234077,77.50000297482039,1,100,3.0,1,5.8907334455893355e-08
1.35,0.967267334488097,77.50000582895335,0,100,3.0,1,1.1542481878101477e-07
1.355,0.7505869905515209,77.50001218448925,0,100,3.0,1,2.412770148602798e-07
1.36,0.4028369574773956,77.50002820524271,0,100,3.0,1,5.585196577000472e-07
1.365,0.04553881263121314,77.5000732029506,0,100,3.0,1,1.449563378268031e-06
1.37,-0.189138810908105,77.50020724976795,0,100,3.0,1,4.103955801059386e-06
1.375,-0.22868072635956738,77.50061023923335,0,100,3.0,1,1.2083945214913407e-05
1.38,-0.14104670682394166,77.50179256556841,0,100,3.0,1,3.549634788926975e-05
1.385,-0.051158381651102834,77.50511484099445,0,100,3.0,1,0.00010128398008815241
1.39,-0.008206426846427752,77.51396870109211,0,100,3.0,1,0.0002766079424180355
1.395,0.005350271385530505,77.53623262703964,0,100,3.0,1,0.0007174777631611492
1.4,0.01084668799215426,77.58890805682125,0,100,3.0,1,0.0017605555806188805
1.405,0.016256859896386415,77.70596109420195,0,100,3.0,1,0.004078437508949568
1.41,0.02345021205790711,77.94994327901777,0,100,3.0,1,0.00890976790134205
1.415,0.0330621597308209,78.42640554665691,0,100,3.0,1,0.01834466429023582
1.42,0.04559141319943196,79.29709768806333,0,100,3.0,1,0.03558609283293726
1.425,0.06149084917446989,80.7838816626191,0,100,3.0,1,0.06502735965582365
1.43,0.08111733445924295,83.15198799100372,0,100,3.0,1,0.11192055427730142
1.435,0.1046628598272375,86.66190241168549,0,100,3.0,1,0.18142381013238593
1.44,0.1320831047748631,91.48704843050832,0,100,3.0,1,0.27697125604966977
1.445,0.16303381314489318,97.61020096290896,0,100,3.0,1,0.39822180124572204
1.45,0.19682662652900276,104.73063061163819,0,100,3.0,1,0.5392204081512513
1.455,0.23241585813229,112.22628758299108,0,100,3.0,1,0.6876492590691302
1.46,0.26842527782774417,119.209627596154,0,100,3.0,1,0.8259332197258217
1.465,0.30321927900592993,124.68715477375247,0,100,3.0,1,0.9343991044307419
1.47,0.3350163137995362,127.78941352703112,0,100,3.0,1,0.9958299708322993
1.475,0.3620352400956416,128.0,0,100,3.0,1,1.0
1.48,0.3826586036805073,125.30121575152813,0,100,3.0,1,0.9465587277530323
1.485,0.39559233134833227,120.18034119851458,0,100,3.0,1,0.8451552712577145
1.49,0.4,113.49403445375758,0,100,3.0,1,0.7127531575001501
1.495,0.39559233134833227,106.24312073628462,0,100,3.0,1,0.5691707076492005
1.5,0.3826586036805073,99.33935599846077,0,100,3.0,1,0.43246249501902523
1.505,0.3620352400956416,93.43780759195062,0,100,3.0,1,0.31560015033565575
1.51,0.3350163137995362,88.87185418608688,0,100,3.0,1,0.22518523140766095
1.515,0.3032192790059296,85.68402210388078,0,100,3.0,1,0.16205984364120354
1.52,0.26842527782774417,83.71560620831526,0,100,3.0,1,0.12308131105574782
1.525,0.23241585813229,82.71044536105052,0,100,3.0,1,0.10317713586238648
1.53,0.19682662652900276,82.39942555145443,0,100,3.0,1,0.09701832775157283
1.535,0.16303381314489318,82.5512309649664,0,100,3.0,1,0.10002437554388897
1.54,0.13208310477486307,82.99117359548086,0,100,3.0,1,0.10873611080160117
1.545,0.10466285982723562,83.59850375339822,0,100,3.0,1,0.12076245056234097
1.55,0.08111733445917907,84.29375139421232,0,100,3.0,1,0.13452973057846182
1.555,0.06149084917398798,85.02453323162025,0,100,3.0,1,0.1490006580518862
1.56,0.04559141333598128,85.75415419045677,0,100,3.0,1,0.1634485978308272
1.565,0.03306217087257399,86.45417274106126,0,100,3.0,1,0.17731035130814368
1.57,0.02345067901074276,87.10040645984597,0,100,3.0,1,0.19010705861081129
1.575,0.016268788896435526,87.6713129835381,0,100,3.0,1,0.20141213828788318
1.58,0.011039026374860051,88.14775760329132,0,100,3.0,1,0.2108466852136896
1.585,0.007326255555493689,88.5134568519284,0,100,3.0,1,0.21808825449363162
1.59,0.0047556414315231815,88.75565275625378,0,100,3.0,1,0.22288421299512437
1.595,0.0030193390635632803,88.86575895419283,0,100,3.0,1,0.22506453374639263
1.6,0.001874953127946523,88.83983405370527,0,100,3.0,1,0.22455116938030248
1.605,0.0011387927410965778,88.67880558598064,0,100,3.0,1,0.2213624868511018
1.61,0.0006765107634274089,88.38841185208784,0,100,3.0,1,0.21561211588292756
1.615,0.00039307957404427924,87.97886161222259,0,100,3.0,1,0.20750221014302153
1.62,0.00022338910511776318,87.46423814315004,0,100,3.0,1,0.19731164639901072
1.625,0.00012417073320013317,86.8616956972722,0,100,3.0,1,0.1853801128172712
1.63,6.750753468904987e-05,86.19051212899733,0,100,3.0,1,0.17208934908905596
1.635,3.5897234866245036e-05,85.47107045676482,0,100,3.0,1,0.15784297934187763
1.64,1.8670050400879738e-05,84.72384391841842,0,100,3.0,1,0.14304641422610742
1.645,9.497421874143672e-06,83.96845390812022,0,100,3.0,1,0.1280881962004005
1.65,4.725434140340885e-06,83.22285905389919,0,100,3.0,1,0.11332394166137001
1.655,2.299606063738814e-06,82.50271820124429,0,100,3.0,1,0.09906372675731272
1.66,1.0945633976635486e-06,81.82095216403631,0,100,3.0,1,0.0855634091888379
1.665,5.095703414287532e-07,81.18751083200898,0,100,3.0,1,0.07302001647542539
1.67,2.3202944964797243e-07,80.60933545563019,0,100,3.0,1,0.06157099912138985
1.675,1.0333746954038608e-07,80.09049215613837,0,100,3.0,1,0.05129687437897757
1.68,4.501406988770349e-08,79.6324429058189,0,100,3.0,1,0.04222659219443377
1.685,0.0,79.23441480011142,0,100,3.0,1,0.03434484752695888
1.69,0.0,78.89382727108968,0,100,3.0,1,0.02760054002157776
1.695,0.0,78.60673940294778,0,100,3.0,1,0.02191563174154022
1.7,0.0,78.36828483344408,0,100,3.0,1,0.017193759078100578
1.705,0.0,78.17306884141654,0,100,3.0,1,0.013328095869634399
1.71,0.0,78.01551010783703,0,100,3.0,1,0.010208120947267935
1.715,0.0,77.89011739198064,0,100,3.0,1,0.0077250968709037275
1.72,0.0,77.79169827936764,0,100,3.0,1,0.005776203551834392
1.725,0.0,77.71550276692628,0,100,3.0,1,0.004267381523292632
1.73,0.0,77.65730852609023,0,100,3.0,1,0.0031150203186184784
1.735,0.0,77.6134572104197,0,100,3.0,1,0.002246677434053391
1.74,0.0,77.58085229814589,0,100,3.0,1,0.0016010356068492083
1.745,0.0,77.55692893566152,0,100,3.0,1,0.0011273056566637079
1.75,0.0,77.53960538031276,0,100,3.0,1,0.0007842649566884016
1.755,0.0,77.5272242384317,0,100,3.0,1,0.0005390938303306858
1.76,0.0,77.51849003441343,0,100,3.0,1,0.00036613929531548515
1.765,0.0,77.51240795264492,0,100,3.0,1,0.0002457020325726888
1.77,0.0,77.50822702776999,0,100,3.0,1,0.00016291144098991116
1.775,0.0,77.50538972029054,0,100,3.0,1,0.00010672713446608961
1.78,0.0,77.5034887505611,0,100,3.0,1,6.908416952680932e-05
1.785,0.0,77.50223127982962,0,100,3.0,1,4.4183759002288585e-05
1.79,0.0,77.5014099982958,0,100,3.0,1,2.792075833264726e-05
1.795,0.0,77.50088036661307,0,100,3.0,1,1.7433002239100138e-05
1.8,0.0,77.50054311146208,0,100,3.0,1,1.0754682417407568e-05
1.805,0.0,77.50033105092136,0,100,3.0,1,6.55546378931768e-06
1.81,0.0,77.5001993797566,0,100,3.0,1,3.948113991969372e-06
1.815,0.0,77.50011864453815,0,100,3.0,1,2.349396795006043e-06
1.82,0.0,77.50006975813591,0,100,3.0,1,1.3813492258951456e-06
1.825,0.0,77.50004052494289,0,100,3.0,1,8.02474116622167e-07
1.83,0.0,77.50002326110729,0,100,3.0,1,4.606159858901652e-07
1.835,0.0,77.50001319224734,0,100,3.0,1,2.6123262053864317e-07
1.84,0.0,77.5000073924367,0,100,3.0,1,1.4638488515080136e-07
1.845,0.0,77.50000409295407,0,100,3.0,1,8.104859547853662e-08
1.85,0.0,77.50000223906426,0,100,3.0,1,4.4337906107859163e-08
1.855,0.001684486749771458,77.5000012102544,0,100,3.0,1,2.3965433589218815e-08
1.86,0.00456624331333666,77.50000064634919,0,100,3.0,1,1.2798993917511884e-08
1.865,0.011079731271581421,77.5000003410658,0,100,3.0,1,6.753778209956478e-09
1.87,0.024064571490409,77.50000017782368,0,100,3.0,1,3.521260976971336e-09
1.875,0.046784906529573234,77.50000009160547,0,100,3.0,1,1.813969735696158e-09
1.88,0.08141644351188804,77.5000000466266,0,100,3.0,1,9.232989290611309e-10
1.885,0.12682276464025305,77.5000000234491,0,100,3.0,1,4.643386929085026e-10
1.89,0.1768320708657512,77.50000001165198,0,100,3.0,1,2.3073222100810208e-10
1.895,0.22070063230473494,77.50000000572075,0,100,3.0,1,1.1328218011606236e-10
1.9,0.24656126505113576,77.50000000277515,0,100,3.0,1,5.4953515885217984e-11
1.905,0.24656126505724016,77.50000000133015,0,100,3.0,1,2.6339608162329164e-11
1.91,0.220700632329898,77.50000000062994,0,100,3.0,1,1.2474035006247018e-11
1.915,0.17683207093748562,77.50000000029476,0,100,3.0,1,5.836862346588514e-12
1.92,0.12682276483597799,77.50000000013628,0,100,3.0,1,2.698655380570044e-12
1.925,0.08141644409447898,77.50000000006226,0,100,3.0,1,1.2328268219267323e-12
1.93,0.04678490952598309,77.5000000000281,0,100,3.0,1,5.563338568703834e-13
1.935,0.024064605020532023,77.50000000001253,0,100,3.0,1,2.481975021546172e-13
1.94,0.011080171739334697,77.50000000000551,0,100,3.0,1,1.0918438870293816e-13
1.945,0.004571212771509492,77.5000000000024,0,100,3.0,1,4.755711775978492e-14
1.95,0.0017299316936037438,77.50000000000104,0,100,3.0,1,2.0542423647717747e-14
1.955,0.0008899431850697582,77.50000000000044,0,100,3.0,1,8.723494973688359e-15
1.96,0.002128806368910263,77.50000000000018,0,100,3.0,1,3.6582398276757634e-15
1.965,0.009309664818487698,77.50000000000007,0,100,3.0,1,1.4070153183368321e-15
1.97,0.03503263543368747,77.50000000000003,0,100,3.0,1,5.628061273347328e-16
1.975,0.10606267793605692,77.50000000000001,0,100,3.0,1,2.814030636673664e-16
1.98,0.25734927343160535,77.5,0,100,3.0,1,0.0
1.985,0.5003202479539708,77.5,0,100,3.0,1,0.0
1.99,0.7793067891790435,77.5,0,100,3.0,1,0.0
1.995,0.9720477407234077,77.50000296249844,1,100,3.0,1,5.866333548744865e-08
2.0,0.967267334488097,77.50000623791465,0,100,3.0,1,1.2352306231771917e-07
2.005,0.7505869905515209,77.50001428061503,0,100,3.0,1,2.827844561111441e-07
2.01,0.4028369574773956,77.50003723221408,0,100,3.0,1,7.372715660071348e-07
2.015,0.04553881263121314,77.5001108437001,0,100,3.0,1,2.194924754443455e-06
2.02,-0.189138810908105,77.5003583964972,0,100,3.0,1,7.096960340696019e-06
2.025,-0.22868072635956738,77.501182171344,0,100,3.0,1,2.340933354452597e-05
2.03,-0.14104670682394166,77.50380467824786,0,100,3.0,1,7.534016332396512e-05
2.035,-0.051158381651102834,77.51165782593294,0,100,3.0,1,0.00023084803827609813
2.04,-0.008206426846427752,77.5335966224769,0,100,3.0,1,0.0006652796530080524
2.045,0.005350271385530505,77.59053331272185,0,100,3.0,1,0.0017927388657791189
2.05,0.01084668799215426,77.72746904695667,0,100,3.0,1,0.00450433756349843
2.055,0.016256859896386415,78.03213843050357,0,100,3.0,1,0.01053739466343693
2.06,0.02345021205790711,78.65824858789371,0,100,3.0,1,0.022935615601855627
2.065,0.0330621597308209,79.8447054890364,0,100,3.0,1,0.04642981166408713
2.07,0.04559141319943196,81.91361678160214,0,100,3.0,1,0.08739835211093355
2.075,0.06149084917446989,85.22452481350312,0,100,3.0,1,0.15296088739610145
2.08,0.08111733445924295,90.06880030306164,0,100,3.0,1,0.2488871347140918
2.085,0.1046628598272375,96.51294300837715,0,100,3.0,1,0.37649392095796336
2.09,0.1320831047748631,104.23854785834601,0,100,3.0,1,0.5294761952147725
2.095,0.16303381314489318,112.45984400219734,0,100,3.0,1,0.6922741386573731
2.1,0.19682662652900276,119.9980053094794,0,100,3.0,1,0.8415446595936514
2.105,0.23241585813229,125.53757473601254,0,100,3.0,1,0.9512391036834167
2.11,0.26842527782774417,128.0,0,100,3.0,1,1.0
2.115,0.30321927900592993,126.89180836635488,0,100,3.0,1,0.9780556112149481
2.12,0.3350163137995362,122.4744115695857,0,100,3.0,1,0.8905824073185287
2.125,0.3620352400956416,115.6764248123543,0,100,3.0,1,0.7559688081654317
2.13,0.3826586036805073,107.78956631187174,0,100,3.0,1,0.5997933923142919
2.135,0.39559233134833227,100.08516728784107,0,100,3.0,1,0.4472310354027935
2.14,0.4,93.50661991231735,0,100,3.0,1,0.3169627705409376
2.145,0.39559233134833227,88.53287890241118,0,100,3.0,1,0.21847284955269672
2.15,0.3826586036805073,85.21553134284277,0,100,3.0,1,0.15278279886817359
2.155,0.3620352400956416,83.32232502267858,0,100,3.0,1,0.1152935648055165
2.16,0.3350163137995362,82.50166604103804,0,100,3.0,1,0.09904289190174327
2.165,0.3032192790059296,82.40734321991523,0,100,3.0,1,0.09717511326564819
2.17,0.26842527782774417,82.76277175392498,0,100,3.0,1,0.1042133020579204
2.175,0.23241585813229,83.37479852576797,0,100,3.0,1,0.1163326440746133
2.18,0.19682662652900276,84.11928489680142,0,100,3.0,1,0.1310749484515132
2.185,0.16303381314489318,84.91824422362451,0,100,3.0,1,0.14689592522028738
2.19,0.13208310477486307,85.71996481329595,0,100,3.0,1,0.16277158046130585
2.195,0.10466285982723562,86.48593626724252,0,100,3.0,1,0.1779393320246044
2.2,0.08111733445917907,87.18404127410177,0,100,3.0,1,0.19176319354656976
2.205,0.06149084917398798,87.78600746918313,0,100,3.0,1,0.20368331622144817
2.21,0.04559141333598128,88.26721388243585,0,100,3.0,1,0.2132121560878387
2.215,0.03306217087257399,88.60753321720543,0,100,3.0,1,0.2199511528159491
2.22,0.02345067901074276,88.79243107822423,0,100,3.0,1,0.22361249659849952
2.225,0.016268788896435526,88.81389846101516,0,100,3.0,1,0.22403759328742884
2.23,0.011039026374860051,88.67099812814219,0,100,3.0,1,0.22120788372558786
2.235,0.007326255555493689,88.36992451308627,0,100,3.0,1,0.21524602996210446
2.24,0.0047556414315231815,87.92355634630057,0,100,3.0,1,0.20640705636238757
2.245,0.0030193390635632803,87.35054249369495,0,100,3.0,1,0.1950602473998999
2.25,0.001874953127946523,86.67401021165833,0,100,3.0,1,0.18166356854768964
2.255,0.0011387927410965778,85.92002012496754,0,100,3.0,1,0.16673307178153537
2.26,0.0006765107634274089,85.11591134258094,0,100,3.0,1,0.15081012559566226
2.265,0.00039307957404427924,84.28868206654177,0,100,3.0,1,0.13442934785231223
2.27,0.00022338910511776318,83.46353675053035,0,100,3.0,1,0.11808983664416539
2.275,0.00012417073320013317,82.66270333596,0,100,3.0,1,0.10223174922693076
2.28,6.750753468904987e-05,81.90458788413636,0,100,3.0,1,0.08721956206210617
2.285,3.5897234866245036e-05,81.20329432496659,0,100,3.0,1,0.07333256089042757
2.29,1.8670050400879738e-05,80.5684992351286,0,100,3.0,1,0.06076236109165541
2.295,9.497421874143672e-06,80.00563985868109,0,100,3.0,1,0.04961663086497214
2.3,4.725434140340885e-06,79.51635092389155,0,100,3.0,1,0.03992774106715943
2.305,2.299606063738814e-06,79.0990735069262,0,100,3.0,1,0.03166482191933075
2.31,1.0945633976635486e-06,78.74975699852942,0,100,3.0,1,0.024747663337216248
2.315,5.095703414287532e-07,78.46258162434901,0,100,3.0,1,0.0190610222643369
2.32,2.3202944964797243e-07,78.23064160050076,0,100,3.0,1,0.014468150504965555
2.325,1.0333746954038608e-07,78.0465451756297,0,100,3.0,1,0.01082267674514263
2.33,4.501406988770349e-08,77.9029049232077,0,100,3.0,1,0.007978315311043564
2.335,0.0,77.792707549016,0,100,3.0,1,0.005796189089425757
2.34,0.0,77.70956565642611,0,100,3.0,1,0.004149814978734806
2.345,0.0,77.64786355410972,0,100,3.0,1,0.0029279911704894867
2.35,0.0,77.60281512541162,0,100,3.0,1,0.0020359430774578983
2.355,0.0,77.57045433470391,0,100,3.0,1,0.0013951353406714971
2.36,0.0,77.54757877616558,0,100,3.0,1,0.0009421539834768215
2.365,0.0,77.5316645744132,0,100,3.0,1,0.0006270212755088895
2.37,0.0,77.5207677230544,0,100,3.0,1,0.00041124204068128704
2.375,0.0,77.51342328935382,0,100,3.0,1,0.00026580770997671236
2.38,0.0,77.50855034936433,0,100,3.0,1,0.00016931384879856045
2.385,0.0,77.50536739563128,0,100,3.0,1,0.00010628506200558573
2.39,0.0,77.50332045956841,0,100,3.0,1,6.575167462205902e-05
2.395,0.0,77.50202435942687,0,100,3.0,1,4.008632528453826e-05
2.4,0.0,77.50121627531419,0,100,3.0,1,2.4084659686974587e-05
2.405,0.0,77.50072016332395,0,100,3.0,1,1.4260659880149135e-05
2.41,0.0,77.50042022796278,0,100,3.0,2,8.321345797576844e-06
2.415,0.0,77.50024165385936,0,100,3.0,2,4.785224937864264e-06
2.42,0.0,77.50013694852625,0,100,3.0,2,2.7118520048958036e-06
2.425,0.0,77.50007648492242,0,100,3.0,2,1.5145529191456019e-06
2.43,0.0,77.50004209680522,0,100,3.0,2,8.336001033035471e-07
2.435,0.0,77.50002283375228,0,100,3.0,2,4.5215351054922745e-07
2.44,0.0,77.50001220563202,0,100,3.0,2,2.416956835243735e-07
2.445,0.001684486749771458,77.5000064298094,0,100,3.0,2,1.2732295847782363e-07
2.45,0.00456624331333666,77.50000333803408,0,100,3.0,2,6.609968468723364e-08
2.455,0.011079731271581421,77.50000170780497,0,100,3.0,2,3.381792018696822e-08
2.46,0.024064571490409,77.50000086107428,0,100,3.0,2,1.7050975918326652e-08
2.465,0.046784906529573234,77.50000042785618,0,100,3.0,2,8.472399582784095e-09
2.47,0.08141644351188804,77.50000020951245,0,100,3.0,2,4.148761387240132e-09
2.475,0.12682276464025305,77.50000010110594,0,100,3.0,2,2.0020978142680844e-09
2.48,0.1768320708657512,77.50000004808376,0,100,3.0,2,9.52153717806519e-10
2.485,0.22070063230473494,77.5000000225359,0,100,3.0,2,4.46255450634174e-10
2.49,0.24656126505113576,77.50000001040894,0,100,3.0,2,2.0611761362605386e-10
2.495,0.24656126505724016,77.50000000473797,0,100,3.0,2,9.38211884420183e-11
2.5,0.220700632329898,77.50000000212536,0,100,3.0,2,4.2086360799027655e-11
2.505,0.17683207093748562,77.50000000093956,0,100,3.0,2,1.8605244957431598e-11
2.51,0.12682276483597799,77.50000000040933,0,100,3.0,2,8.105533845874822e-12
2.515,0.08141644409447898,77.50000000017575,0,100,3.0,2,3.4801116883743206e-12
2.52,0.04678490952598309,77.50000000007437,0,100,3.0,2,1.4725822321713284e-12
2.525,0.024064605020532023,77.50000000003101,0,100,3.0,2,6.140214849221935e-13
2.53,0.011080171739334697,77.50000000001275,0,100,3.0,2,2.5241854810962767e-13
2.535,0.004571212771509492,77.50000000000516,0,100,3.0,2,1.0214931211125401e-13
2.54,0.0017299316936037438,77.50000000000206,0,100,3.0,2,4.080344423176813e-14
2.545,0.0008899431850697582,77.50000000000081,0,100,3.0,2,1.6039974629039884e-14
2.55,0.002128806368910263,77.50000000000031,0,100,3.0,2,6.190867400682061e-15
2.555,0.009309664818487698,77.50000000000011,0,100,3.0,2,2.2512245093389313e-15
2.56,0.03503263543368747,77.50000000000004,0,100,3.0,2,8.442091910020992e-16
2.565,0.10606267793605692,77.50000000000001,0,100,3.0,2,2.814030636673664e-16
2.57,0.25734927343160535,77.5,0,100,3.0,2,0.0
2.575,0.5003202479539708,77.5,0,100,3.0,2,0.0
2.58,0.7793067891790435,77.5,0,100,3.0,2,0.0
2.585,0.9720477407234077,77.50000297482039,1,100,3.0,2,5.8907334455893355e-08
2.59,0.967267334488097,77.50000582895335,0,100,3.0,2,1.1542481878101477e-07
2.595,0.7505869905515209,77.50001218448925,0,100,3.0,2,2.412770148602798e-07
2.6,0.4028369574773956,77.50002820524271,0,100,3.0,2,5.585196577000472e-07
2.605,0.04553881263121314,77.5000732029506,0,100,3.0,2,1.449563378268031e-06
2.61,-0.189138810908105,77.50020724976795,0,100,3.0,2,4.103955801059386e-06
2.615,-0.22868072635956738,77.50061023923335,0,100,3.0,2,1.2083945214913407e-05
2.62,-0.14104670682394166,77.50179256556841,0,100,3.0,2,3.549634788926975e-05
2.625,-0.051158381651102834,77.50511484099445,0,100,3.0,2,0.00010128398008815241
2.63,-0.008206426846427752,77.51396870109211,0,100,3.0,2,0.0002766079424180355
2.635,0.005350271385530505,77.53623262703964,0,100,3.0,2,0.0007174777631611492
2.64,0.01084668799215426,77.58890805682125,0,100,3.0,2,0.0017605555806188805
2.645,0.016256859896386415,77.70596109420195,0,100,3.0,2,0.004078437508949568
2.65,0.02345021205790711,77.94994327901777,0,100,3.0,2,0.00890976790134205
2.655,0.0330621597308209,78.42640554665691,0,100,3.0,2,0.01834466429023582
2.66,0.04559141319943196,79.29709768806333,0,100,3.0,2,0.03558609283293726
2.665,0.06149084917446989,80.7838816626191,0,100,3.0,2,0.06502735965582365
2.67,0.08111733445924295,83.15198799100372,0,100,3.0,2,0.11192055427730142
2.675,0.1046628598272375,86.66190241168549,0,100,3.0,2,0.18142381013238593
2.68,0.1320831047748631,91.48704843050832,0,100,3.0,2,0.27697125604966977
2.685,0.16303381314489318,97.61020096290896,0,100,3.0,2,0.39822180124572204
2.69,0.19682662652900276,104.73063061163819,0,100,3.0,2,0.5392204081512513
2.695,0.23241585813229,112.22628758299108,0,100,3.0,2,0.6876492590691302
2.7,0.26842527782774417,119.209627596154,0,100,3.0,2,0.8259332197258217
2.705,0.30321927900592993,124.68715477375247,0,100,3.0,2,0.9343991044307419
2.71,0.3350163137995362,127.78941352703112,0,100,3.0,2,0.9958299708322993
2.715,0.3620352400956416,128.0,0,100,3.0,2,1.0
2.72,0.3826586036805073,125.30121575152813,0,100,3.0,2,0.9465587277530323
2.725,0.39559233134833227,120.18034119851458,0,100,3.0,2,0.8451552712577145
2.73,0.4,113.49403445375758,0,100,3.0,2,0.7127531575001501
2.735,0.39559233134833227,106.24312073628462,0,100,3.0,2,0.5691707076492005
2.74,0.3826586036805073,99.33935599846077,0,100,3.0,2,0.43246249501902523
2.745,0.3620352400956416,93.43780759195062,0,100,3.0,2,0.31560015033565575
2.75,0.3350163137995362,88.87185418608688,0,100,3.0,2,0.22518523140766095
2.755,0.3032192790059296,85.68402210388078,0,100,3.0,2,0.16205984364120354
2.76,0.26842527782774417,83.71560620831526,0,100,3.0,2,0.12308131105574782
2.765,0.23241585813229,82.71044536105052,0,100,3.0,2,0.10317713586238648
2.77,0.19682662652900276,82.39942555145443,0,100,3.0,2,0.09701832775157283
2.775,0.16303381314489318,82.5512309649664,0,100,3.0,2,0.10002437554388897
2.78,0.13208310477486307,82.99117359548086,0,100,3.0,2,0.10873611080160117
2.785,0.10466285982723562,83.59850375339822,0,100,3.0,2,0.12076245056234097
2.79,0.08111733445917907,84.29375139421232,0,100,3.0,2,0.13452973057846182
2.795,0.06149084917398798,85.02453323162025,0,100,3.0,2,0.1490006580518862
2.8,0.04559141333598128,85.75415419045677,0,100,3.0,2,0.1634485978308272
2.805,0.03306217087257399,86.45417274106126,0,100,3.0,2,0.17731035130814368
2.81,0.02345067901074276,87.10040645984597,0,100,3.0,2,0.19010705861081129
2.815,0.016268788896435526,87.6713129835381,0,100,3.0,2,0.20141213828788318
2.82,0.011039026374860051,88.14775760329132,0,100,3.0,2,0.2108466852136896
2.825,0.007326255555493689,88.5134568519284,0,100,3.0,2,0.21808825449363162
2.83,0.0047556414315231815,88.75565275625378,0,100,3.0,2,0.22288421299512437
2.835,0.0030193390635632803,88.86575895419283,0,100,3.0,2,0.22506453374639263
2.84,0.001874953127946523,88.83983405370527,0,100,3.0,2,0.22455116938030248
2.845,0.0011387927410965778,88.67880558598064,0,100,3.0,2,0.2213624868511018
2.85,0.0006765107634274089,88.38841185208784,0,100,3.0,2,0.21561211588292756
2.855,0.00039307957404427924,87.97886161222259,0,100,3.0,2,0.20750221014302153
2.86,0.00022338910511776318,87.46423814315004,0,100,3.0,2,0.19731164639901072
2.865,0.00012417073320013317,86.8616956972722,0,100,3.0,2,0.1853801128172712
2.87,6.750753468904987e-05,86.19051212899733,0,100,3.0,2,0.17208934908905596
2.875,3.5897234866245036e-05,85.47107045676482,0,100,3.0,2,0.15784297934187763
2.88,1.8670050400879738e-05,84.72384391841842,0,100,3.0,2,0.14304641422610742
2.885,9.497421874143672e-06,83.96845390812022,0,100,3.0,2,0.1280881962004005
2.89,4.725434140340885e-06,83.22285905389919,0,100,3.0,2,0.11332394166137001
2.895,2.299606063738814e-06,82.50271820124429,0,100,3.0,2,0.09906372675731272
2.9,1.0945633976635486e-06,81.82095216403631,0,100,3.0,2,0.0855634091888379
2.905,5.095703414287532e-07,81.18751083200898,0,100,3.0,2,0.07302001647542539
2.91,2.3202944964797243e-07,80.60933545563019,0,100,3.0,2,0.06157099912138985
2.915,1.0333746954038608e-07,80.09049215613837,0,100,3.0,2,0.05129687437897757
2.92,4.501406988770349e-08,79.6324429058189,0,100,3.0,2,0.04222659219443377
2.925,0.0,79.23441480011142,0,100,3.0,2,0.03434484752695888
2.93,0.0,78.89382727108968,0,100,3.0,2,0.02760054002157776
2.935,0.0,78.60673940294778,0,100,3.0,2,0.02191563174154022
2.94,0.0,78.36828483344408,0,100,3.0,2,0.017193759078100578
2.945,0.0,78.17306884141654,0,100,3.0,2,0.013328095869634399
2.95,0.0,78.01551010783703,0,100,3.0,2,0.010208120947267935
2.955,0.0,77.89011739198064,0,100,3.0,2,0.0077250968709037275
2.96,0.0,77.79169827936764,0,100,3.0,2,0.005776203551834392
2.965,0.0,77.71550276692628,0,100,3.0,2,0.004267381523292632
2.97,0.0,77.65730852609023,0,100,3.0,2,0.0031150203186184784
2.975,0.0,77.6134572104197,0,100,3.0,2,0.002246677434053391
2.98,0.0,77.58085229814589,0,100,3.0,2,0.0016010356068492083
2.985,0.0,77.55692893566152,0,100,3.0,2,0.0011273056566637079
2.99,0.0,77.53960538031276,0,100,3.0,2,0.0007842649566884016
2.995,0.0,77.5272242384317,0,100,3.0,2,0.0005390938303306858
3.0,0.0,77.51849003441343,0,100,3.0,2,0.00036613929531548515
3.005,0.0,77.51240795264492,0,100,3.0,2,0.0002457020325726888
3.01,0.0,77.50822702776999,0,100,3.0,2,0.00016291144098991116
3.015,0.0,77.50538972029054,0,100,3.0,2,0.00010672713446608961
3.02,0.0,77.5034887505611,0,100,3.0,2,6.908416952680932e-05
3.025,0.0,77.50223127982962,0,100,3.0,2,4.4183759002288585e-05
3.03,0.0,77.5014099982958,0,100,3.0,2,2.792075833264726e-05
3.035,0.0,77.50088036661307,0,100,3.0,2,1.7433002239100138e-05
3.04,0.0,77.50054311146208,0,100,3.0,2,1.0754682417407568e-05
3.045,0.0,77.50033105092136,0,100,3.0,2,6.55546378931768e-06
3.05,0.0,77.5001993797566,0,100,3.0,2,3.948113991969372e-06
3.055,0.0,77.50011864453815,0,100,3.0,2,2.349396795006043e-06
3.06,0.0,77.50006975813591,0,100,3.0,2,1.3813492258951456e-06
3.065,0.0,77.50004052494289,0,100,3.0,2,8.02474116622167e-07
3.07,0.0,77.50002326110729,0,100,3.0,2,4.606159858901652e-07
3.075,0.0,77.50001319224734,0,100,3.0,2,2.6123262053864317e-07
3.08,0.0,77.5000073924367,0,100,3.0,2,1.4638488515080136e-07
3.085,0.0,77.50000409295407,0,100,3.0,2,8.104859547853662e-08
3.09,0.0,77.50000223906426,0,100,3.0,2,4.4337906107859163e-08
3.095,0.001684486749771458,77.5000012102544,0,100,3.0,2,2.3965433589218815e-08
3.1,0.00456624331333666,77.50000064634919,0,100,3.0,2,1.2798993917511884e-08
3.105,0.011079731271581421,77.5000003410658,0,100,3.0,2,6.753778209956478e-09
3.11,0.024064571490409,77.50000017782368,0,100,3.0,2,3.521260976971336e-09
3.115,0.046784906529573234,77.50000009160547,0,100,3.0,2,1.813969735696158e-09
3.12,0.08141644351188804,77.5000000466266,0,100,3.0,2,9.232989290611309e-10
3.125,0.12682276464025305,77.5000000234491,0,100,3.0,2,4.643386929085026e-10
3.13,0.1768320708657512,77.50000001165198,0,100,3.0,2,2.3073222100810208e-10
3.135,0.22070063230473494,77.50000000572075,0,100,3.0,2,1.1328218011606236e-10
3.14,0.24656126505113576,77.50000000277515,0,100,3.0,2,5.4953515885217984e-11
3.145,0.24656126505724016,77.50000000133015,0,100,3.0,2,2.6339608162329164e-11
3.15,0.220700632329898,77.50000000062994,0,100,3.0,2,1.2474035006247018e-11
3.155,0.17683207093748562,77.50000000029476,0,100,3.0,2,5.836862346588514e-12
3.16,0.12682276483597799,77.50000000013628,0,100,3.0,2,2.698655380570044e-12
3.165,0.08141644409447898,77.50000000006226,0,100,3.0,2,1.2328268219267323e-12
3.17,0.04678490952598309,77.5000000000281,0,100,3.0,2,5.563338568703834e-13
3.175,0.024064605020532023,77.50000000001253,0,100,3.0,2,2.481975021546172e-13
3.18,0.011080171739334697,77.50000000000551,0,100,3.0,2,1.0918438870293816e-13
3.185,0.004571212771509492,77.5000000000024,0,100,3.0,2,4.755711775978492e-14
3.19,0.0017299316936037438,77.50000000000104,0,100,3.0,2,2.0542423647717747e-14
3.195,0.0008899431850697582,77.50000000000044,0,100,3.0,2,8.723494973688359e-15
3.2,0.002128806368910263,77.50000000000018,0,100,3.0,2,3.6582398276757634e-15
3.205,0.009309664818487698,77.50000000000007,0,100,3.0,2,1.4070153183368321e-15
3.21,0.03503263543368747,77.50000000000003,0,100,3.0,2,5.628061273347328e-16
3.215,0.10606267793605692,77.50000000000001,0,100,3.0,2,2.814030636673664e-16
3.22,0.25734927343160535,77.5,0,100,3.0,2,0.0
3.225,0.5003202479539708,77.5,0,100,3.0,2,0.0
3.23,0.7793067891790435,77.5,0,100,3.0,2,0.0
3.235,0.9720477407234077,77.50000297682912,1,100,3.0,2,5.894711134174887e-08
3.24,0.967267334488097,77.50000644330252,0,100,3.0,2,1.2759014899835742e-07
3.245,0.7505869905515209,77.5000152857257,0,100,3.0,2,3.026876375243584e-07
3.25,0.4028369574773956,77.50004176629017,0,100,3.0,2,8.27055250828389e-07
3.255,0.04553881263121314,77.50013105560434,0,100,3.0,2,2.5951604820222365e-06
3.26,-0.189138810908105,77.50044488722678,0,100,3.0,2,8.809648054995417e-06
3.265,-0.22868072635956738,77.50152741496863,0,100,3.0,2,3.0245840963066212e-05
3.27,-0.14104670682394166,77.50507191996074,0,100,3.0,2,0.0001004340586285428
3.275,-0.051158381651102834,77.51591237767056,0,100,3.0,2,0.0003150965875358389
3.28,-0.008206426846427752,77.54664318495337,0,100,3.0,2,0.0009236274248191628
3.285,0.005350271385530505,77.62707313229895,0,100,3.0,2,0.0025162996494840838
3.29,0.01084668799215426,77.82095772461896,0,100,3.0,2,0.006355598507306216
3.295,0.016256859896386415,78.25065421083119,0,100,3.0,2,0.01486443981843933
3.3,0.02345021205790711,79.12465661250958,0,100,3.0,2,0.03217141806949668
3.305,0.0330621597308209,80.75291471256554,0,100,3.0,2,0.06441415272407013
3.31,0.04559141319943196,83.52418692756659,0,100,3.0,2,0.11929083024884335
3.315,0.06149084917446989,87.8180869015123,0,100,3.0,2,0.2043185525051941
3.32,0.08111733445924295,93.84389846636032,0,100,3.0,2,0.3236415537893132
3.325,0.1046628598272375,101.44211177113385,0,100,3.0,2,0.47410122319076936
3.33,0.1320831047748631,109.93592006093229,0,100,3.0,2,0.6422954467511345
3.335,0.16303381314489318,118.14132463767484,0,100,3.0,2,0.8047787056965315
3.34,0.19682662652900276,124.60095505949394,0,100,3.0,2,0.9326921793959196
3.345,0.23241585813229,128.0,0,100,3.0,2,1.0
3.35,0.26842527782774417,127.6074388486669,0,100,3.0,2,0.9922265118547902
3.355,0.30321927900592993,123.54146413142652,0,100,3.0,2,0.911712161018347
3.36,0.3350163137995362,116.72845096846851,0,100,3.0,2,0.7768010092766041
3.365,0.3620352400956416,108.57594924757062,0,100,3.0,2,0.6153653316350618
3.37,0.3826586036805073,100.51841012567104,0,100,3.0,2,0.4558101014984364
3.375,0.39559233134833227,93.63583866964807,0,100,3.0,2,0.3195215578148132
3.38,0.4,88.4768062592669,0,100,3.0,2,0.21736250018350284
3.385,0.39559233134833227,85.09678201200113,0,100,3.0,2,0.15043132697031938
3.39,0.3826586036805073,83.22880029248734,0,100,3.0,2,0.11344158995024427
3.395,0.3620352400956416,82.47816456850022,0,100,3.0,2,0.09857751620792513
3.4,0.3350163137995362,82.46582560396621,0,100,3.0,2,0.0983331802765586
3.405,0.3032192790059296,82.89742970194244,0,100,3.0,2,0.10687979607806818
3.41,0.26842527782774417,83.57340218280083,0,100,3.0,2,0.12026538975843235
3.415,0.23241585813229,84.36864280982073,0,100,3.0,2,0.13601272890734115
3.42,0.19682662652900276,85.20533717654936,0,100,3.0,2,0.15258093418909632
3.425,0.16303381314489318,86.03115850518294,0,100,3.0,2,0.16893383178580088
3.43,0.13208310477486307,86.80599422385167,0,100,3.0,2,0.18427711334359742
3.435,0.10466285982723562,87.4957153338043,0,100,3.0,2,0.1979349571050356
3.44,0.08111733445917907,88.07034988573457,0,100,3.0,2,0.20931385912345687
3.445,0.06149084917398798,88.50447395532824,0,100,3.0,2,0.2179103753530344
3.45,0.04559141333598128,88.77842588279614,0,100,3.0,2,0.2233351659959632
3.455,0.03306217087257399,88.87956664624946,0,100,3.0,2,0.22533795339107837
3.46,0.02345067901074276,88.80318162209397,0,100,3.0,2,0.2238253786553262
3.465,0.016268788896435526,88.55282711877172,0,100,3.0,2,0.2188678637380538
3.47,0.011039026374860051,88.1400513820406,0,100,3.0,2,0.2106940867730811
3.475,0.007326255555493689,87.58351034332568,0,100,3.0,2,0.19967347214506306
3.48,0.0047556414315231815,86.90756971644608,0,100,3.0,2,0.18628850923655596
3.485,0.0030193390635632803,86.14053864781572,0,100,3.0,2,0.1710997752042716
3.49,0.001874953127946523,85.3127128609072,0,100,3.0,2,0.15470718536449896
3.495,0.0011387927410965778,84.4544146804433,0,100,3.0,2,0.13771118179095657
3.5,0.0006765107634274089,83.5942038620777,0,100,3.0,2,0.12067730419955852
3.505,0.00039307957404427924,82.75740031791543,0,100,3.0,2,0.10410693698842428
3.51,0.00022338910511776318,81.96501364486748,0,100,3.0,2,0.08841611177955412
3.515,0.00012417073320013317,81.23312221494596,0,100,3.0,2,0.07392321217714781
3.52,6.750753468904987e-05,80.57269391319508,0,100,3.0,2,0.06084542402366498
3.525,3.5897234866245036e-05,79.98979772895345,0,100,3.0,2,0.049302925325810855
3.53,1.8670050400879738e-05,79.48612467581856,0,100,3.0,2,0.039329201501357595
3.535,9.497421874143672e-06,79.0597199322176,0,100,3.0,2,0.03088554321222978
3.54,4.725434140340885e-06,78.70582535496604,0,100,3.0,2,0.02387772980130768
3.545,2.299606063738814e-06,78.41774045282362,0,100,3.0,2,0.018173078273735096
3.55,1.0945633976635486e-06,78.18762714596294,0,100,3.0,2,0.013616379127978912
3.555,5.095703414287532e-07,78.0072053498429,0,100,3.0,2,0.010043670293918923
3.56,2.3202944964797243e-07,77.8683089838995,0,100,3.0,2,0.007293247205930613
3.565,1.0333746954038608e-07,77.76329249106546,0,100,3.0,2,0.005213712694365477
3.57,4.501406988770349e-08,77.685294406265,0,100,3.0,2,0.003669196163663387
3.575,0.0,77.6283759937939,0,100,3.0,2,0.002542098887007828
3.58,0.0,77.58755944551955,0,100,3.0,2,0.001733850406327632
3.585,0.0,77.55879222021566,0,100,3.0,2,0.0011642023805082133
3.59,0.0,77.5388628274054,0,100,3.0,2,0.000769560938720707
3.595,0.0,77.52528987023435,0,100,3.0,2,0.0005007895095910062
3.6,0.0,77.51620154690102,0,100,3.0,2,0.0003208227109112023
3.605,0.0,77.51021795623286,0,100,3.0,2,0.00020233576698741322
3.61,0.0,77.50634408901792,0,100,3.0,2,0.00012562552510723103
3.615,0.0,77.50387768183894,0,100,3.0,3,7.678577898898334e-05
3.62,0.0,77.50233331166066,0,100,3.0,3,4.6204191300270086e-05
3.625,0.0,77.50138220036888,0,100,3.0,3,2.7370304334260372e-05
3.63,0.0,77.50080605918664,0,100,3.0,3,1.596156805235431e-05
3.635,0.0,77.50046276503086,0,100,3.0,3,9.163663977438088e-06
3.64,0.0,77.5002615482448,0,100,3.0,3,5.1791731642303e-06
3.645,0.0,77.50014552605633,0,100,3.0,3,2.8817040857228505e-06
3.65,0.0,77.50007971267532,0,100,3.0,3,1.5784688181305106e-06
3.655,0.0,77.5000429844807,0,100,3.0,3,8.511778356469312e-07
3.66,0.0,77.50002281884497,0,100,3.0,3,4.5185831620281283e-07
3.665,0.001684486749771458,77.50001192540962,0,100,3.0,3,2.3614672521502917e-07
3.67,0.00456624331333666,77.50000613550942,0,100,3.0,3,1.2149523610274303e-07
3.675,0.011079731271581421,77.50000310760366,0,100,3.0,3,6.153670615096398e-08
3.68,0.024064571490409,77.50000154952396,0,100,3.0,3,3.06836427333308e-08
3.685,0.046784906529573234,77.50000076062157,0,100,3.0,3,1.5061813358686166e-08
3.69,0.08141644351188804,77.50000036756713,0,100,3.0,3,7.2785569342825216e-09
3.695,0.12682276464025305,77.50000017486478,0,100,3.0,3,3.4626689194728987e-09
3.7,0.1768320708657512,77.50000008189657,0,100,3.0,3,1.6217143183894223e-09
3.705,0.22070063230473494,77.50000003775955,0,100,3.0,3,7.4771382924605e-10
3.71,0.24656126505113576,77.500000017139,0,100,3.0,3,3.393861649360273e-10
3.715,0.24656126505724016,77.50000000765847,0,100,3.0,3,1.516528948624261e-10
3.72,0.220700632329898,77.50000000336895,0,100,3.0,3,6.671194290055889e-11
3.725,0.17683207093748562,77.50000000145897,0,100,3.0,3,2.889052693447384e-11
3.73,0.12682276483597799,77.50000000062201,0,100,3.0,3,1.2317012096720628e-11
3.735,0.08141644409447898,77.50000000026107,0,100,3.0,3,5.169655682633189e-12
3.74,0.04678490952598309,77.50000000010786,0,100,3.0,3,2.135849253235311e-12
3.745,0.024064605020532023,77.50000000004387,0,100,3.0,3,8.686912575411601e-13
3.75,0.011080171739334697,77.50000000001756,0,100,3.0,3,3.478141866928649e-13
3.755,0.004571212771509492,77.50000000000692,0,100,3.0,3,1.3704329200600744e-13
3.76,0.0017299316936037438,77.50000000000269,0,100,3.0,3,5.3185179033132255e-14
3.765,0.0008899431850697582,77.50000000000102,0,100,3.0,3,2.026102058405038e-14
3.77,0.002128806368910263,77.50000000000038,0,100,3.0,3,7.597882719018894e-15
3.775,0.009309664818487698,77.50000000000014,0,100,3.0,3,2.8140306366736642e-15
3.78,0.03503263543368747,77.50000000000006,0,100,3.0,3,1.1256122546694657e-15
3.785,0.10606267793605692,77.50000000000001,0,100,3.0,3,2.814030636673664e-16
3.79,0.25734927343160535,77.5,0,100,3.0,3,0.0
3.795,0.5003202479539708,77.5,0,100,3.0,3,0.0
3.8,0.7793067891790435,77.5,0,100,3.0,3,0.0
3.805,0.9720477407234077,77.50000295858521,1,100,3.0,3,5.858584580720963e-08
3.81,0.967267334488097,77.50000627158161,0,100,3.0,3,1.2418973487865964e-07
3.815,0.7505869905515209,77.50001448202111,0,100,3.0,3,2.867726953417611e-07
3.82,0.4028369574773956,77.5000381880034,0,100,3.0,3,7.56198087153937e-07
3.825,0.04553881263121314,77.50011515393722,0,100,3.0,3,2.2802759844742666e-06
3.83,-0.189138810908105,77.5003768133724,0,100,3.0,3,7.461650938574905e-06
3.835,-0.22868072635956738,77.50125530195008,0,100,3.0,3,2.4857464358047304e-05
3.84,-0.14104670682394166,77.50407161723201,0,100,3.0,3,8.062608380226824e-05
3.845,-0.051158381651102834,77.5125498908563,0,100,3.0,3,0.00024851269022388076
3.85,-0.008206426846427752,77.53632357375037,0,100,3.0,3,0.0007192786881260548
3.855,0.005350271385530505,77.59816032657108,0,100,3.0,3,0.0019437688429916036
3.86,0.01084668799215426,77.74699421583978,0,100,3.0,3,0.004890974571084695
3.865,0.016256859896386415,78.0778955905149,0,100,3.0,3,0.011443477039898991
3.87,0.02345021205790711,78.75638253739591,0,100,3.0,3,0.024878862126651635
3.875,0.0330621597308209,80.03714578164362,0,100,3.0,3,0.050240510527596365
3.88,0.04559141319943196,82.2581074321164,0,100,3.0,3,0.09421994915081988
3.885,0.06149084917446989,85.78593960996649,0,100,3.0,3,0.16407801207854436
3.89,0.08111733445924295,90.89811556558197,0,100,3.0,3,0.26530921912043515
3.895,0.1046628598272375,97.61546592808551,0,100,3.0,3,0.39832605798189136
3.9,0.1320831047748631,105.5415466537269,0,100,3.0,3,0.5552781515589484
3.905,0.16303381314489318,113.79708988561208,0,100,3.0,3,0.7187542551606353
3.91,0.19682662652900276,121.12822094684294,0,100,3.0,3,0.8639251672642168
3.915,0.23241585813229,126.20143333597863,0,100,3.0,3,0.9643848185342304
3.92,0.26842527782774417,128.0,0,100,3.0,3,1.0
3.925,0.30321927900592993,126.16275066678318,0,100,3.0,3,0.9636188250848154
3.93,0.3350163137995362,121.1116044575634,0,100,3.0,3,0.8635961278725426
3.935,0.3620352400956416,113.90717007869759,0,100,3.0,3,0.7209340609643087
3.94,0.3826586036805073,105.90088318147954,0,100,3.0,3,0.5623937263659315
3.945,0.39559233134833227,98.34046706321053,0,100,3.0,3,0.41268251610317874
3.95,0.4,92.08499814602648,0,100,3.0,3,0.28881184447577185
3.955,0.39559233134833227,87.50864038323002,0,100,3.0,3,0.1981908986778221
3.96,0.3826586036805073,84.57442275691706,0,100,3.0,3,0.14008757934489227
3.965,0.3620352400956416,82.99710802083918,0,100,3.0,3,0.10885362417503323
3.97,0.3350163137995362,82.40804661099806,0,100,3.0,3,0.09718904180194171
3.975,0.3032192790059296,82.46851319639717,0,100,3.0,3,0.0983863999286568
3.98,0.26842527782774417,82.92004890238644,0,100,3.0,3,0.10732770103735526
3.985,0.23241585813229,83.58796849171559,0,100,3.0,3,0.12055383151912051
3.99,0.19682662652900276,84.36197804515345,0,100,3.0,3,0.13588075336937525
3.995,0.16303381314489318,85.17248310799981,0,100,3.0,3,0.15193035857425366
4.0,0.13208310477486307,85.97196310008664,0,100,3.0,3,0.1677616455462701
4.005,0.10466285982723562,86.72363196440325,0,100,3.0,3,0.18264617751293571
4.01,0.08111733445917907,87.39605351764324,0,100,3.0,3,0.1959614557949156
4.015,0.06149084917398798,87.9615095120021,0,100,3.0,3,0.20715860419806129
4.02,0.04559141333598128,88.39629447802281,0,100,3.0,3,0.2157682074856002
4.025,0.03306217087257399,88.6817572080628,0,100,3.0,3,0.22142093481312486
4.03,0.02345067901074276,88.80541912343043,0,100,3.0,3,0.2238696856124837
4.035,0.016268788896435526,88.761813641984,0,100,3.0,3,0.22300621073235655
4.04,0.011039026374860051,88.55286824522712,0,100,3.0,3,0.21886867812330923
4.045,0.007326255555493689,88.18775826412227,0,100,3.0,3,0.2116387775073716
4.05,0.0047556414315231815,87.68223746822366,0,100,3.0,3,0.20162846471730023
4.055,0.0030193390635632803,87.05751062541435,0,100,3.0,3,0.18925763614681884
4.06,0.001874953127946523,86.33875969754904,0,100,3.0,3,0.17502494450592151
4.065,0.0011387927410965778,85.55346606508107,0,100,3.0,3,0.15947457554615976
4.07,0.0006765107634274089,84.72968388537797,0,100,3.0,3,0.14316205713619734
4.075,0.00039307957404427924,83.8944140290608,0,100,3.0,3,0.12662205998140194
4.08,0.00022338910511776318,83.07220603434823,0,100,3.0,3,0.11034071355145003
4.085,0.00012417073320013317,82.2840812711329,0,100,3.0,3,0.09473428259669119
4.09,6.750753468904987e-05,81.54682943609703,0,100,3.0,3,0.08013523635835698
4.095,3.5897234866245036e-05,80.87268841585063,0,100,3.0,3,0.06678590922476499
4.1,1.8670050400879738e-05,80.26937973963246,0,100,3.0,3,0.054839202764999116
4.105,9.497421874143672e-06,79.7404423296401,0,100,3.0,3,0.04436519464633868
4.11,4.725434140340885e-06,79.28578839837682,0,100,3.0,3,0.03536214650251135
4.115,2.299606063738814e-06,78.90239771037702,0,100,3.0,3,0.02777025169063399
4.12,1.0945633976635486e-06,78.58506900977153,0,100,3.0,3,0.021486515044980795
4.125,5.095703414287532e-07,78.32715803895881,0,100,3.0,3,0.016379367108095323
4.13,2.3202944964797243e-07,78.12124742111936,0,100,3.0,3,0.012301929131076509
4.135,1.0333746954038608e-07,77.95971182173484,0,100,3.0,3,0.009103204390788959
4.14,4.501406988770349e-08,77.83515963913185,0,100,3.0,3,0.006636824537264261
4.145,0.0,77.74074802073012,0,100,3.0,3,0.004767287539210363
4.15,0.0,77.67038003596295,0,100,3.0,3,0.003373862098276232
4.155,0.0,77.61880087924757,0,100,3.0,3,0.0023524926583677777
4.16,0.0,77.5816141709287,0,100,3.0,3,0.001616122196607968
4.165,0.0,77.5552403549693,0,100,3.0,3,0.0010938684152336571
4.17,0.0,77.53683768391573,0,100,3.0,3,0.0007294590874402959
4.175,0.0,77.52420321967791,0,100,3.0,3,0.00047927167679039497
4.18,0.0,77.51566747236087,0,100,3.0,3,0.0003102469774430597
4.185,0.0,77.50999239747283,0,100,3.0,3,0.00019786925688769166
4.19,0.0,77.50627892699517,0,100,3.0,3,0.00012433518802307088
4.195,0.0,77.50388728278739,0,100,3.0,3,7.697589677997649e-05
4.2,0.0,77.50237111056772,0,100,3.0,3,4.695268450935074e-05
4.205,0.0,77.50142495925365,0,100,3.0,3,2.8217014923849084e-05
4.21,0.0,77.5008437194384,0,100,3.0,3,1.6707315611742756e-05
4.215,0.0,77.50049219662667,0,100,3.0,3,9.746467854781015e-06
4.22,0.0,77.50028289428887,0,100,3.0,3,5.601867106388634e-06
4.225,0.0,77.500160197117,0,100,3.0,3,3.172220138565373e-06
4.23,0.0,77.50008937790716,0,100,3.0,3,1.769859547701092e-06
4.235,0.0,77.50004913043793,0,100,3.0,3,9.728799590006794e-07
4.24,0.0,77.50002660823445,0,100,3.0,3,5.268957316743446e-07
4.245,0.0,77.50001419797643,0,100,3.0,3,2.811480480503822e-07
4.25,0.001684486749771458,77.50000746417498,0,100,3.0,3,1.4780544524280167e-07
4.255,0.00456624331333666,77.50000386618065,0,100,3.0,3,7.6558032643865e-08
4.26,0.011079731271581421,77.50000197300162,0,100,3.0,3,3.906933893676528e-08
4.265,0.024064571490409,77.5000009920138,0,100,3.0,3,1.9643837535707885e-08
4.27,0.046784906529573234,77.50000049142014,0,100,3.0,3,9.731091848710877e-09
4.275,0.08141644351188804,77.50000023984637,0,100,3.0,3,4.749433110821946e-09
4.28,0.12682276464025305,77.50000011533426,0,100,3.0,3,2.2838467223006982e-09
4.285,0.1768320708657512,77.50000005464224,0,100,3.0,3,1.0820246085257727e-09
4.29,0.22070063230473494,77.50000002550607,0,100,3.0,3,5.050706607620992e-10
4.295,0.24656126505113576,77.50000001173015,0,100,3.0,3,2.3228021926133627e-10
4.3,0.24656126505724016,77.50000000531507,0,100,3.0,3,1.0524896685755005e-10
4.305,0.220700632329898,77.50000000237279,0,100,3.0,3,4.698586954054017e-11
4.31,0.17683207093748562,77.50000000104365,0,100,3.0,3,2.066624099573139e-11
4.315,0.12682276483597799,77.50000000045226,0,100,3.0,3,8.955652501213936e-12
4.32,0.08141644409447898,77.5000000001931,0,100,3.0,3,3.823704829112175e-12
4.325,0.04678490952598309,77.50000000008123,0,100,3.0,3,1.6084999119226663e-12
4.33,0.024064605020532023,77.50000000003367,0,100,3.0,3,6.66643857827991e-13
4.335,0.011080171739334697,77.50000000001374,0,100,3.0,3,2.7211676256634333e-13
4.34,0.004571212771509492,77.50000000000553,0,100,3.0,3,1.0946579176660553e-13
4.345,0.0017299316936037438,77.50000000000219,0,100,3.0,3,4.333607180477443e-14
4.35,0.0008899431850697582,77.50000000000085,0,100,3.0,3,1.6884183820041984e-14
4.355,0.002128806368910263,77.50000000000033,0,100,3.0,3,6.472270464349428e-15
4.36,0.009309664818487698,77.50000000000013,0,100,3.0,3,2.5326275730062976e-15
4.365,0.03503263543368747,77.50000000000004,0,100,3.0,3,8.442091910020992e-16
4.37,0.10606267793605692,77.50000000000001,0,100,3.0,3,2.814030636673664e-16
4.375,0.25734927343160535,77.5,0,100,3.0,3,0.0
4.38,0.5003202479539708,77.5,0,100,3.0,3,0.0
4.385,0.7793067891790435,77.5,0,100,3.0,3,0.0
4.39,0.9720477407234077,77.5000029632167,1,100,3.0,3,5.867755844249559e-08
4.395,0.967267334488097,77.5000059376048,0,100,3.0,3,1.1757633261719219e-07
4.4,0.7505869905515209,77.50001276355475,0,100,3.0,3,2.5274365841574077e-07
4.405,0.4028369574773956,77.50003064109448,0,100,3.0,3,6.067543461986224e-07
4.41,0.04553881263121314,77.50008298165619,0,100,3.0,3,1.6432011127090117e-06
4.415,-0.189138810908105,77.50024503836143,0,100,3.0,3,4.852244780740965e-06
4.42,-0.22868072635956738,77.50074848054169,0,100,3.0,3,1.4821396865108279e-05
4.425,-0.14104670682394166,77.50226551612232,0,100,3.0,3,4.4861705392500734e-05
4.43,-0.051158381651102834,77.50661940466038,0,100,3.0,3,0.00013107732000760438
4.435,-0.008206426846427752,77.51841054376423,0,100,3.0,3,0.00036456522305411903
4.44,0.005350271385530505,77.54839812828513,0,100,3.0,3,0.0009583787779233446
4.445,0.01084668799215426,77.61982582118479,0,100,3.0,3,0.0023727885383126738
4.45,0.016256859896386415,77.77889256217193,0,100,3.0,3,0.0055226249935036225
4.455,0.02345021205790711,78.10963732186457,0,100,3.0,3,0.012072026175536002
4.46,0.0330621597308209,78.75092151744123,0,100,3.0,3,0.02477072311764807
4.465,0.04559141319943196,79.9087326709927,0,100,3.0,3,0.0476976766533209
4.47,0.06149084917446989,81.85188343427765,0,100,3.0,3,0.0861759095896565
4.475,0.08111733445924295,84.87660047953338,0,100,3.0,3,0.14607129662442336
4.48,0.1046628598272375,89.23015235542505,0,100,3.0,3,0.23228024466188213
4.485,0.1320831047748631,94.99882501874558,0,100,3.0,3,0.3465113865098134
4.49,0.16303381314489318,101.98894029735766,0,100,3.0,3,0.4849295108387655
4.495,0.19682662652900276,109.65089174060849,0,100,3.0,3,0.6366513215962076
4.5,0.23241585813229,117.09986446314402,0,100,3.0,3,0.7841557319434459
4.505,0.26842527782774417,123.26166314833992,0,100,3.0,3,0.9061715474918796
4.51,0.30321927900592993,127.12152069509544,0,100,3.0,3,0.9826043701999098
4.515,0.3350163137995362,128.0,0,100,3.0,3,1.0
4.52,0.3620352400956416,125.753838019447,0,100,3.0,3,0.9555215449395446
4.525,0.3826586036805073,120.82076135998885,0,100,3.0,3,0.8578368586136406
4.53,0.39559233134833227,114.08960455830919,0,100,3.0,3,0.7245466249170137
4.535,0.4,106.64913868340399,0,100,3.0,3,0.5772106669980989
4.54,0.39559233134833227,99.5133886516984,0,100,3.0,3,0.43590868617224565
4.545,0.3826586036805073,93.41762112302557,0,100,3.0,3,0.31520041827773404
4.55,0.3620352400956416,88.73552998548763,0,100,3.0,3,0.22248574228688378
4.555,0.3350163137995362,85.51231074372309,0,100,3.0,3,0.15865961868758596
4.56,0.3032192790059296,83.56875812223683,0,100,3.0,3,0.12017342816310553
4.565,0.26842527782774417,82.62145439320233,0,100,3.0,3,0.10141493847925401
4.57,0.23241585813229,82.37856251014239,0,100,3.0,3,0.09660519822064134
4.575,0.19682662652900276,82.59484163283764,0,100,3.0,3,0.10088795312549786
4.58,0.16303381314489318,83.08955460734782,0,100,3.0,3,0.11068424965045191
4.585,0.13208310477486307,83.74068070754905,0,100,3.0,3,0.12357783579305041
4.59,0.10466285982723562,84.46928792877765,0,100,3.0,3,0.1380057015599534
4.595,0.08111733445917907,85.22350477295976,0,100,3.0,3,0.15294068857346052
4.6,0.06149084917398798,85.96643451289296,0,100,3.0,3,0.16765216857213783
4.605,0.04559141333598128,86.66877212581805,0,100,3.0,3,0.181559844075605
4.61,0.03306217087257399,87.30517905319509,0,100,3.0,3,0.19416196144940773
4.615,0.02345067901074276,87.85308057266846,0,100,3.0,3,0.20501149648848438
4.62,0.016268788896435526,88.29277433001748,0,100,3.0,3,0.21371830356470256
4.625,0.011039026374860051,88.60810467392501,0,100,3.0,3,0.2199624687905943
4.63,0.007326255555493689,88.78725860971063,0,100,3.0,3,0.22351007147941848
4.635,0.0047556414315231815,88.82343447722398,0,100,3.0,3,0.22422642529156403
4.64,0.0030193390635632803,88.71524935893723,0,100,3.0,3,0.22208414572152926
4.645,0.001874953127946523,88.46682050888896,0,100,3.0,3,0.21716476255225658
4.65,0.0011387927410965778,88.08750355955483,0,100,3.0,3,0.20965353583276897
4.655,0.0006765107634274089,87.59130736152696,0,100,3.0,3,0.19982786854508827
4.66,0.00039307957404427924,86.99603550232074,0,100,3.0,3,0.18804030697664825
4.665,0.00022338910511776318,86.32222756000658,0,100,3.0,3,0.17469757544567488
4.67,0.00012417073320013317,85.5919876730514,0,100,3.0,3,0.16023737966438428
4.675,6.750753468904987e-05,84.82779312309145,0,100,3.0,3,0.14510481431864264
4.68,3.5897234866245036e-05,84.05137136185039,0,100,3.0,3,0.12973012597723535
4.685,1.8670050400879738e-05,83.28272136314028,0,100,3.0,3,0.11450933392356996
4.69,9.497421874143672e-06,82.53933634560707,0,100,3.0,3,0.09978883852687265
4.695,4.725434140340885e-06,81.83566237670279,0,100,3.0,3,0.08585470052876804
4.7,2.299606063738814e-06,81.182803916743,0,100,3.0,3,0.07292681023253461
4.705,1.0945633976635486e-06,80.5884655936849,0,100,3.0,3,0.06115773452841389
4.71,5.095703414287532e-07,80.05710151400747,0,100,3.0,3,0.050635673544702386
4.715,2.3202944964797243e-07,79.59023060237372,0,100,3.0,3,0.04139070499749946
4.72,1.0333746954038608e-07,79.18686941841649,0,100,3.0,3,0.03340335482012856
4.725,4.501406988770349e-08,78.8440324631707,0,100,3.0,3,0.026614504221202092
4.73,0.0,78.55725338170798,0,100,3.0,3,0.020935710528870895
4.735,0.0,78.32108749492411,0,100,3.0,3,0.016259158315329
4.74,0.0,78.12956535899671,0,100,3.0,3,0.012466640772212169
4.745,0.0,77.97657717630197,0,100,3.0,3,0.009437171807959858
4.75,0.0,77.8561776684136,0,100,3.0,3,0.007053023136902843
4.755,0.0,77.76280956302601,0,100,3.0,3,0.005204149762891298
4.76,0.0,77.691450573779,0,100,3.0,3,0.0037911004708711636
4.765,0.0,77.63769342762592,0,100,3.0,3,0.0027266025272459243
4.77,0.0,77.59777116282646,0,100,3.0,3,0.00193606263022696
4.775,0.0,77.56854083334795,0,100,3.0,3,0.0013572442247119388
4.78,0.0,77.54743828840738,0,100,3.0,3,0.0009393720476708441
4.785,0.0,77.53241527216751,0,100,3.0,3,0.0006418865775744939
4.79,0.0,77.52186811576739,0,100,3.0,3,0.0004330319953938593
4.795,0.0,77.5145651206646,0,100,3.0,3,0.0002884182309821656
4.8,0.0,77.50957762524908,0,100,3.0,3,0.00018965594552632369
4.805,0.0,77.50621788411807,0,100,3.0,3,0.00012312641817965243
4.81,0.0,77.50398536808234,0,100,3.0,3,7.891817984831379e-05
4.815,0.0,77.50252194309775,0,100,3.0,3,4.993946728212328e-05
4.82,0.0,77.50157558979458,0,100,3.0,4,3.1199797912548924e-05
4.825,0.0,77.50097183394746,0,100,3.0,4,1.9244236583371374e-05
4.83,0.0,77.50059180959549,0,100,3.0,4,1.1719001890912862e-05
4.835,0.0,77.50035580575643,0,100,3.0,4,7.045658543122477e-06
4.84,0.0,77.50021119564977,0,100,3.0,4,4.182092074625142e-06
4.845,0.0,77.50012376504303,0,100,3.0,4,2.4507929312545853e-06
4.85,0.0,77.5000716064357,0,100,3.0,4,1.4179492217124898e-06
4.855,0.0,77.5000409022451,0,100,3.0,4,8.099454475996026e-07
4.86,0.0,77.50002306658317,0,100,3.0,4,4.5676402312820564e-07
4.865,0.0,77.50001284282068,0,100,3.0,4,2.5431328080599943e-07
4.87,0.0,77.50000705957572,0,100,3.0,4,1.3979357865789305e-07
4.875,0.0,77.50000383122638,0,100,3.0,4,7.586586890499915e-08
4.88,0.001684486749771458,77.50000205275943,0,100,3.0,4,4.064870153126664e-08
4.885,0.00456624331333666,77.50000108587373,0,100,3.0,4,2.1502450179036488e-08
4.89,0.011079731271581421,77.50000056710259,0,100,3.0,4,1.1229754235419834e-08
4.895,0.024064571490409,77.50000029240512,0,100,3.0,4,5.790200371974255e-09
4.9,0.046784906529573234,77.50000014885018,0,100,3.0,4,2.947528250077463e-09
4.905,0.08141644351188804,77.50000007480915,0,100,3.0,4,1.4813693242374057e-09
4.91,0.12682276464025305,77.50000003711942,0,100,3.0,4,7.350380282431535e-10
4.915,0.1768320708657512,77.50000001818397,0,100,3.0,4,3.600785764166797e-10
4.92,0.22070063230473494,77.50000000879461,0,100,3.0,4,1.7415078839956838e-10
4.925,0.24656126505113576,77.50000000419939,0,100,3.0,4,8.315629373208878e-11
4.93,0.24656126505724016,77.50000000197969,0,100,3.0,4,3.920169799337348e-11
4.935,0.220700632329898,77.5000000009214,0,100,3.0,4,1.8245611842064705e-11
4.94,0.17683207093748562,77.50000000042338,0,100,3.0,4,8.383841475841848e-12
4.945,0.12682276483597799,77.50000000019207,0,100,3.0,4,3.803443808528125e-12
4.95,0.08141644409447898,77.50000000008603,0,100,3.0,4,1.7036141474422362e-12
4.955,0.04678490952598309,77.50000000003804,0,100,3.0,4,7.533160014375399e-13
4.96,0.024064605020532023,77.50000000001661,0,100,3.0,4,3.2896018142715135e-13
4.965,0.011080171739334697,77.50000000000716,0,100,3.0,4,1.4182714408835267e-13
4.97,0.004571212771509492,77.50000000000304,0,100,3.0,4,6.022025562481641e-14
4.975,0.0017299316936037438,77.50000000000128,0,100,3.0,4,2.5326275730062977e-14
4.98,0.0008899431850697582,77.50000000000053,0,100,3.0,4,1.0411913355692557e-14
4.985,0.002128806368910263,77.50000000000021,0,100,3.0,4,4.221045955010496e-15
4.99,0.009309664818487698,77.50000000000009,0,100,3.0,4,1.6884183820041984e-15
4.995,0.03503263543368747,77.50000000000003,0,100,3.0,4,5.628061273347328e-16
5.0,0.10606267793605692,77.50000000000001,0,100,3.0,4,2.814030636673664e-16
5.005,0.25734927343160535,77.5,0,100,3.0,4,0.0
5.01,0.5003202479539708,77.5,0,100,3.0,4,0.0
5.015,0.7793067891790435,77.5,0,100,3.0,4,0.0
5.02,0.9720477407234077,77.50000295863553,1,100,3.0,4,5.8586842255458086e-08
5.025,0.967267334488097,77.50000589453069,0,100,3.0,4,1.1672337995159888e-07
5.03,0.7505869905515209,77.50001258016395,0,100,3.0,4,2.491121575071747e-07
5.035,0.4028369574773956,77.50002991887783,0,100,3.0,4,5.924530263079156e-07
5.04,0.04553881263121314,77.50008014574549,0,100,3.0,4,1.5870444650601604e-06
5.045,-0.189138810908105,77.50023413902163,0,100,3.0,4,4.636416269875662e-06
5.05,-0.22868072635956738,77.50070857773588,0,100,3.0,4,1.4031242294617421e-05
5.055,-0.14104670682394166,77.50212862812675,0,100,3.0,4,4.2151052014949724e-05
5.06,-0.051158381651102834,77.50618263287807,0,100,3.0,4,0.0001224283738230776
5.065,-0.008206426846427752,77.51711785807466,0,100,3.0,4,0.0003389674866268436
5.07,0.005350271385530505,77.5448517347519,0,100,3.0,4,0.0008881531634039905
5.075,0.01084668799215426,77.61080692902989,0,100,3.0,4,0.0021941966144532954
5.08,0.016256859896386415,77.75762785478521,0,100,3.0,4,0.005101541678915102
5.085,0.02345021205790711,78.06315289436618,0,100,3.0,4,0.0111515424626967
5.09,0.0330621597308209,78.65673830666799,0,100,3.0,4,0.022905709042930485
5.095,0.04559141319943196,79.73198134472196,0,100,3.0,4,0.04419765039053384
5.1,0.06149084917446989,81.54501227311613,0,100,3.0,4,0.08009925293299265
5.105,0.08111733445924295,84.38464209821635,0,100,3.0,4,0.1363295464993336
5.11,0.1046628598272375,88.50403246526267,0,100,3.0,4,0.2179016329754984
5.115,0.1320831047748631,94.01656472183686,0,100,3.0,4,0.3270606875611259
5.12,0.16303381314489318,100.77994101177725,0,100,3.0,4,0.46098893092628224
5.125,0.19682662652900276,108.31363751867889,0,100,3.0,4,0.6101710399738394
5.13,0.23241585813229,115.8015723972912,0,100,3.0,4,0.758446978164182
5.135,0.26842527782774417,122.21250830998903,0,100,3.0,4,0.8853962041581986
5.14,0.30321927900592993,126.52603826050846,0,100,3.0,4,0.9708126388219497
5.145,0.3350163137995362,128.0,0,100,3.0,4,1.0
5.15,0.3620352400956416,126.38406092367941,0,100,3.0,4,0.9680012064094934
5.155,0.3826586036805073,121.99556843228333,0,100,3.0,4,0.8811003649957097
5.16,0.39559233134833227,115.6266452242233,0,100,3.0,4,0.7549830737469959
5.165,0.4,108.32036261160054,0,100,3.0,4,0.6103042101307038
5.17,0.39559233134833227,101.10323179979561,0,100,3.0,4,0.4673907287088239
5.175,0.3826586036805073,94.76777473766506,0,100,3.0,4,0.34193613341911017
5.18,0.3620352400956416,89.76439299076465,0,100,3.0,4,0.24285926714385442
5.185,0.3350163137995362,86.20926627172703,0,100,3.0,4,0.17246071825202042
5.19,0.3032192790059296,83.97243167283402,0,100,3.0,4,0.12816696381849543
5.195,0.26842527782774417,82.7938264487047,0,100,3.0,4,0.10482824650900409
5.2,0.23241585813229,82.38399391622505,0,100,3.0,4,0.09671275081633765
5.205,0.19682662652900276,82.48788123894413,0,100,3.0,4,0.09876992552364607
5.21,0.16303381314489318,82.91091906123887,0,100,3.0,4,0.10714691210374003
5.215,0.13208310477486307,83.51852879694448,0,100,3.0,4,0.11917878805830653
5.22,0.10466285982723562,84.22272355972284,0,100,3.0,4,0.13312323880639282
5.225,0.08111733445917907,84.96617934772094,0,100,3.0,4,0.14784513559843443
5.23,0.06149084917398798,85.70924651097013,0,100,3.0,4,0.16255933685089372
5.235,0.04559141333598128,86.42147052118344,0,100,3.0,4,0.17666278259769183
5.24,0.03306217087257399,87.0770715748847,0,100,3.0,4,0.18964498168088512
5.245,0.02345067901074276,87.65314650117571,0,100,3.0,4,0.2010524059638755
5.25,0.016268788896435526,88.12943966856027,0,100,3.0,4,0.21048395383287657
5.255,0.011039026374860051,88.4888612734019,0,100,3.0,4,0.21760121333469098
5.26,0.007326255555493689,88.71824516685794,0,100,3.0,4,0.2221434686506523
5.265,0.0047556414315231815,88.80905557187164,0,100,3.0,4,0.2239416944925077
5.27,0.0030193390635632803,88.75788298162304,0,100,3.0,4,0.22292837587372358
5.275,0.001874953127946523,88.56664693700436,0,100,3.0,4,0.2191415235050369
5.28,0.0011387927410965778,88.24247373671773,0,100,3.0,4,0.21272225221223223
5.285,0.0006765107634274089,87.79725494129089,0,100,3.0,4,0.2039060384414037
5.29,0.00039307957404427924,87.24692328910454,0,100,3.0,4,0.19300838196246622
5.295,0.00022338910511776318,86.6105070604557,0,100,3.0,4,0.18040608040506342
5.3,0.00012417073320013317,85.90904096345788,0,100,3.0,4,0.16651566264273035
5.305,6.750753468904987e-05,85.1644201722591,0,100,3.0,4,0.1517706964803782
5.31,3.5897234866245036e-05,84.39828384642226,0,100,3.0,4,0.13659968012717347
5.315,1.8670050400879738e-05,83.63100589666291,0,100,3.0,4,0.12140605735966165
5.32,9.497421874143672e-06,82.8808554478679,0,100,3.0,4,0.10655159302708715
5.325,4.725434140340885e-06,82.16336957323678,0,100,3.0,4,0.09234395194528273
5.33,2.299606063738814e-06,81.49095896483546,0,100,3.0,4,0.07902889039278133
5.335,1.0945633976635486e-06,80.87274578396709,0,100,3.0,4,0.0667870452270711
5.34,5.095703414287532e-07,80.31461418365399,0,100,3.0,4,0.05573493432978192
5.345,2.3202944964797243e-07,79.81943952585937,0,100,3.0,4,0.0459294955615716
5.35,1.0333746954038608e-07,79.38745303383412,0,100,3.0,4,0.037375307600675645
5.355,4.501406988770349e-08,79.01669470924061,0,100,3.0,4,0.030033558598823968
5.36,0.0,78.70350835049594,0,100,3.0,4,0.023831848524672027
5.365,0.0,78.44303749859628,0,100,3.0,4,0.01867400987319372
5.37,0.0,78.22968889112258,0,100,3.0,4,0.014449284972724314
5.375,0.0,78.05753922233096,0,100,3.0,4,0.011040380640217014
5.38,0.0,77.92067047657592,0,100,3.0,4,0.008330108447047947
5.385,0.0,77.81342783305934,0,100,3.0,4,0.0062064917437492295
5.39,0.0,77.73060143463216,0,100,3.0,4,0.004566365042221053
5.395,0.0,77.66753878732776,0,100,3.0,4,0.0033175997490644984
5.4,0.0,77.62019811267334,0,100,3.0,4,0.0023801606469967484
5.405,0.0,77.58515474396656,0,100,3.0,4,0.0016862325537931723
5.41,0.0,77.55957293052953,0,100,3.0,4,0.001179661990683693
5.415,0.0,77.54115456349685,0,100,3.0,4,0.0008149418514226972
5.42,0.0,77.52807475357761,0,100,3.0,4,0.0005559357144081764
5.425,0.0,77.51891223363421,0,100,3.0,4,0.00037449967592496843
5.43,0.0,77.51258052061632,0,100,3.0,4,0.00024911922012524703
5.435,0.0,77.50826386704453,0,100,3.0,4,0.00016364093157491906
5.44,0.0,77.50536039689462,0,100,3.0,4,0.00010614647316071911
5.445,0.0,77.50343351928187,0,100,3.0,4,6.799048082911267e-05
5.45,0.0,77.50217175561201,0,100,3.0,4,4.30050616239779e-05
5.455,0.0,77.50135647355782,0,100,3.0,4,2.6860862531088745e-05
5.46,0.0,77.50083664386412,0,100,3.0,4,1.656720523007859e-05
5.465,0.0,77.50050956412707,0,100,3.0,4,1.0090378753888541e-05
5.47,0.0,77.50030646859729,0,100,3.0,4,6.068685094798711e-06
5.475,0.0,77.5001820128428,0,100,3.0,4,3.604214708898911e-06
5.48,0.0,77.50010674486768,0,100,3.0,4,2.1137597560248262e-06
5.485,0.0,77.50006181884571,0,100,3.0,4,1.2241355585785532e-06
5.49,0.0,77.50003535279038,0,100,3.0,4,7.000552549884965e-07
5.495,0.0,77.50001996436139,0,100,3.0,4,3.9533388881990153e-07
5.5,0.0,77.50001113309885,0,100,3.0,4,2.204574030039823e-07
5.505,0.0,77.50000613063735,0,100,3.0,4,1.2139875931358919e-07
5.51,0.0,77.5000033336815,0,100,3.0,4,6.601349514987828e-08
5.515,0.001684486749771458,77.50000179007613,0,100,3.0,4,3.544705200871285e-08
5.52,0.00456624331333666,77.50000094917833,0,100,3.0,4,1.8795610471762742e-08
5.525,0.011079731271581421,77.50000049699618,0,100,3.0,4,9.841508501429615e-09
5.53,0.024064571490409,77.50000025697283,0,100,3.0,4,5.088570796852755e-09
5.535,0.046784906529573234,77.50000013120497,0,100,3.0,4,2.59811822661054e-09
5.54,0.08141644351188804,77.50000006615188,0,100,3.0,4,1.3099382964481824e-09
5.545,0.12682276464025305,77.50000003293542,0,100,3.0,4,6.521864940290164e-10
5.55,0.1768320708657512,77.50000001619246,0,100,3.0,4,3.20642751074335e-10
5.555,0.22070063230473494,77.50000000786125,0,100,3.0,4,1.5566823517789575e-10
5.56,0.24656126505113576,77.50000000376876,0,100,3.0,4,7.462893669377658e-11
5.565,0.24656126505724016,77.50000000178417,0,100,3.0,4,3.533015464343785e-11
5.57,0.220700632329898,77.50000000083406,0,100,3.0,4,1.6516108612765068e-11
5.575,0.17683207093748562,77.50000000038503,0,100,3.0,4,7.624334607003625e-12
5.58,0.12682276483597799,77.50000000017552,0,100,3.0,4,3.4756092393556427e-12
5.585,0.08141644409447898,77.50000000007901,0,100,3.0,4,1.5646010339905572e-12
5.59,0.04678490952598309,77.50000000003512,0,100,3.0,4,6.953469703220624e-13
5.595,0.024064605020532023,77.50000000001542,0,100,3.0,4,3.0532232407909255e-13
5.6,0.011080171739334697,77.50000000000668,0,100,3.0,4,1.322594399236622e-13
5.605,0.004571212771509492,77.50000000000286,0,100,3.0,4,5.656201579714065e-14
5.61,0.0017299316936037438,77.50000000000121,0,100,3.0,4,2.3919260411726144e-14
5.615,0.0008899431850697582,77.5000000000005,0,100,3.0,4,9.849107228357824e-15
5.62,0.002128806368910263,77.50000000000021,0,100,3.0,4,4.221045955010496e-15
5.625,0.009309664818487698,77.50000000000009,0,100,3.0,4,1.6884183820041984e-15
5.63,0.03503263543368747,77.50000000000003,0,100,3.0,4,5.628061273347328e-16
5.635,0.10606267793605692,77.50000000000001,0,100,3.0,4,2.814030636673664e-16
5.64,0.25734927343160535,77.5,0,100,3.0,4,0.0
5.645,0.5003202479539708,77.5,0,100,3.0,4,0.0
5.65,0.7793067891790435,77.5,0,100,3.0,4,0.0
5.655,0.9720477407234077,77.50000295858096,1,100,3.0,4,5.85857616676936e-08
5.66,0.967267334488097,77.50000649780915,0,100,3.0,4,1.2866948817744662e-07
5.665,0.7505869905515209,77.50001571079831,0,100,3.0,4,3.111049170006436e-07
5.67,0.4028369574773956,77.50004401685699,0,100,3.0,4,8.716209304854448e-07
5.675,0.04553881263121314,77.50014199796655,0,100,3.0,4,2.8118409218087877e-06
5.68,-0.189138810908105,77.50049432191162,0,100,3.0,4,9.7885527052898e-06
5.685,-0.22868072635956738,77.50173211644027,0,100,3.0,4,3.42993354508107e-05
5.69,-0.14104670682394166,77.50584288582245,0,100,3.0,4,0.00011570070935536563
5.695,-0.051158381651102834,77.51854730297484,0,100,3.0,4,0.00036727332623441534
5.7,-0.008206426846427752,77.55481496280055,0,100,3.0,4,0.001085444807931663
5.705,0.005350271385530505,77.65008419708057,0,100,3.0,4,0.0029719642986252228
5.71,0.01084668799215426,77.87981851286148,0,100,3.0,4,0.00752115867052428
5.715,0.016256859896386415,78.38742298606793,0,100,3.0,4,0.017572732397384796
5.72,0.02345021205790711,79.41315942805718,0,100,3.0,4,0.03788434511004326
5.725,0.0330621597308209,81.30460163111171,0,100,3.0,4,0.0753386461606279
5.73,0.04559141319943196,84.47809489490693,0,100,3.0,4,0.1381800969288501
5.735,0.06149084917446989,89.30317826768169,0,100,3.0,4,0.23372630233033045
5.74,0.08111733445924295,95.91109716494718,0,100,3.0,4,0.36457618148410254
5.745,0.1046628598272375,103.98360250134391,0,100,3.0,4,0.5244277723038397
5.75,0.1320831047748631,112.63196549089727,0,100,3.0,4,0.6956824849682628
5.755,0.16303381314489318,120.48176915990015,0,100,3.0,4,0.851124141780201
5.76,0.19682662652900276,126.00411814452141,0,100,3.0,4,0.960477587020226
5.765,0.23241585813229,128.0,0,100,3.0,4,1.0
5.77,0.26842527782774417,126.03166825490115,0,100,3.0,4,0.9610231337604188
5.775,0.30321927900592993,120.59024835370354,0,100,3.0,4,0.8532722446277929
5.78,0.3350163137995362,112.91318697147013,0,100,3.0,4,0.7012512271578243
5.785,0.3620352400956416,104.54533238728061,0,100,3.0,4,0.5355511363817943
5.79,0.3826586036805073,96.85710937740994,0,100,3.0,4,0.38330909658237505
5.795,0.39559233134833227,90.72270386050883,0,100,3.0,4,0.2618357200100758
5.8,0.4,86.44535081746378,0,100,3.0,4,0.17713565975175793
5.805,0.39559233134833227,83.88417312505604,0,100,3.0,4,0.12641926980308985
5.81,0.3826586036805073,82.66571321886003,0,100,3.0,4,0.10229135086851553
5.815,0.3620352400956416,82.37202450792604,0,100,3.0,4,0.09647573283021865
5.82,0.3350163137995362,82.65192834843367,0,100,3.0,4,0.10201838313730041
5.825,0.3032192790059296,83.25634189984378,0,100,3.0,4,0.11398696831373813
5.83,0.26842527782774417,84.0264242558057,0,100,3.0,4,0.12923612387734046
5.835,0.23241585813229,84.86484526486245,0,100,3.0,4,0.1458385200962862
5.84,0.19682662652900276,85.70909511705845,0,100,3.0,4,0.16255633895165253
5.845,0.16303381314489318,86.51374059129739,0,100,3.0,4,0.17848991269895825
5.85,0.13208310477486307,87.24132622835091,0,100,3.0,4,0.19289754907625573
5.855,0.10466285982723562,87.85911768203138,0,100,3.0,4,0.20513104320854222
5.86,0.08111733445917907,88.33897458047528,0,100,3.0,4,0.2146331600094115
5.865,0.06149084917398798,88.65851542478347,0,100,3.0,4,0.22096070148086086
5.87,0.04559141333598128,88.80252600599808,0,100,3.0,4,0.22381239615837772
5.875,0.03306217087257399,88.76406271594287,0,100,3.0,4,0.22305074685035386
5.88,0.02345067901074276,88.5449807473852,0,100,3.0,4,0.21871249004723162
5.885,0.016268788896435526,88.15577906783629,0,100,3.0,4,0.21100552609576817
5.89,0.011039026374860051,87.61476482243962,0,100,3.0,4,0.20029237272157674
5.895,0.007326255555493689,86.94662571979583,0,100,3.0,4,0.18706189544150165
5.9,0.0047556414315231815,86.18056443389439,0,100,3.0,4,0.17189236502761168
5.905,0.0030193390635632803,85.34819090517139,0,100,3.0,4,0.15540972089448302
5.91,0.001874953127946523,84.48138340308783,0,100,3.0,4,0.13824521590272937
5.915,0.0011387927410965778,83.61031721315373,0,100,3.0,4,0.1209963804584898
5.92,0.0006765107634274089,82.7618245365926,0,100,3.0,4,0.10419454527906136
5.925,0.00039307957404427924,81.9581974975489,0,100,3.0,4,0.08828113856532464
5.93,0.00022338910511776318,81.21648669901883,0,100,3.0,4,0.07359379602017485
5.935,0.00012417073320013317,80.54828942211552,0,100,3.0,4,0.06036216677456468
5.94,6.750753468904987e-05,79.95997193468784,0,100,3.0,4,0.04871231553837313
5.945,3.5897234866245036e-05,79.45323475258576,0,100,3.0,4,0.038677915892787275
5.95,1.8670050400879738e-05,79.02591053115628,0,100,3.0,4,0.030216050121906632
5.955,9.497421874143672e-06,78.67288122682059,0,100,3.0,4,0.023225370828130552
5.96,4.725434140340885e-06,78.38701167635604,0,100,3.0,4,0.01756458765061463
5.965,2.299606063738814e-06,78.16001677799984,0,100,3.0,4,0.013069639168313722
5.97,1.0945633976635486e-06,77.98320447949557,0,100,3.0,4,0.009568405534565727
5.975,5.095703414287532e-07,77.84806252373428,0,100,3.0,4,0.0068923272026591076
5.98,2.3202944964797243e-07,77.74667998599702,0,100,3.0,4,0.0048847521979607815
5.985,1.0333746954038608e-07,77.6720128543322,0,100,3.0,4,0.0034061951352909866
5.99,4.501406988770349e-08,77.61801527615162,0,100,3.0,4,0.002336936161418297
5.995,0.0,77.5796646933126,0,100,3.0,4,0.0015775186794573105
6.0,0.0,77.5529107463042,0,100,3.0,4,0.0010477375505783498
6.005,0.0,77.53457579886194,0,100,3.0,4,0.000684669284394789
6.01,0.0,77.52223058524193,0,100,3.0,4,0.00044020960875105396
6.015,0.0,77.51406306247611,0,100,3.0,4,0.00027847648467547634
6.02,0.0,77.50875304685681,0,100,3.0,4,0.00017332766053089986
6.025,0.0,77.50536029803884,0,100,3.0,5,0.00010614451562054735
6.03,0.0,77.50322975038792,0,100,3.0,5,6.395545322606727e-05
6.035,0.0,77.501914693741,0,100,3.0,5,3.791472754455348e-05
6.04,0.0,77.50111681184963,0,100,3.0,5,2.211508613123163e-05
6.045,0.0,77.50064093065815,0,100,3.0,5,1.2691696200995961e-05
6.05,0.0,77.50036190319393,0,100,3.0,5,7.166399879875231e-06
6.055,0.0,77.50020105927997,0,100,3.0,5,3.981371880663213e-06
6.06,0.0,77.50010990214456,0,100,3.0,5,2.1762800902634618e-06
6.065,0.0,77.5000591069498,0,100,3.0,5,1.1704346496180103e-06
6.07,0.0,77.50003127672464,0,100,3.0,5,6.193410820062559e-07
6.075,0.001684486749771458,77.5000162837461,0,100,3.0,5,3.2245041794421114e-07
6.08,0.00456624331333666,77.50000834137632,0,100,3.0,5,1.651757686139006e-07
6.085,0.011079731271581421,77.50000420408458,0,100,3.0,5,8.324919951636469e-08
6.09,0.024064571490409,77.50000208475734,0,100,3.0,5,4.128232358378245e-08
6.095,0.046784906529573234,77.50000101716151,0,100,3.0,5,2.0141812055413483e-08
6.1,0.08141644351188804,77.50000048828643,0,100,3.0,5,9.669038252126268e-09
6.105,0.12682276464025305,77.50000023062678,0,100,3.0,5,4.5668669638034055e-09
6.11,0.1768320708657512,77.50000010717541,0,100,3.0,5,2.1222853441634805e-09
6.115,0.22070063230473494,77.50000004900393,0,100,3.0,5,9.703748475820447e-10
6.12,0.24656126505113576,77.50000002204536,0,100,3.0,5,4.365416982794402e-10
6.125,0.24656126505724016,77.50000000975783,0,100,3.0,5,1.9322428805494247e-10
6.13,0.220700632329898,77.50000000424953,0,100,3.0,5,8.414908374070725e-11
6.135,0.17683207093748562,77.50000000182087,0,100,3.0,5,3.605673735382699e-11
6.14,0.12682276483597799,77.50000000076766,0,100,3.0,5,1.5201112096247465e-11
6.145,0.08141644409447898,77.50000000031842,0,100,3.0,5,6.305398447594679e-12
6.15,0.04678490952598309,77.50000000012996,0,100,3.0,5,2.573431017238066e-12
6.155,0.024064605020532023,77.50000000005218,0,100,3.0,5,1.0333120497865694e-12
6.16,0.011080171739334697,77.50000000002062,0,100,3.0,5,4.0831584538134865e-13
6.165,0.004571212771509492,77.50000000000801,0,100,3.0,5,1.5871132790839464e-13
6.17,0.0017299316936037438,77.50000000000307,0,100,3.0,5,6.078306175215115e-14
6.175,0.0008899431850697582,77.50000000000115,0,100,3.0,5,2.279364815705668e-14
6.18,0.002128806368910263,77.50000000000043,0,100,3.0,5,8.442091910020992e-15
6.185,0.009309664818487698,77.50000000000016,0,100,3.0,5,3.0954337003410305e-15
6.19,0.03503263543368747,77.50000000000006,0,100,3.0,5,1.1256122546694657e-15
6.195,0.10606267793605692,77.50000000000001,0,100,3.0,5,2.814030636673664e-16
6.2,0.25734927343160535,77.5,0,100,3.0,5,0.0
6.205,0.5003202479539708,77.5,0,100,3.0,5,0.0
6.21,0.7793067891790435,77.5,0,100,3.0,5,0.0
6.215,0.9720477407234077,77.500002961856,1,100,3.0,5,5.865061381774638e-08
6.22,0.967267334488097,77.500006041423,0,100,3.0,5,1.1963213873878877e-07
6.225,0.7505869905515209,77.50001328138595,0,100,3.0,5,2.629977415165173e-07
6.23,0.4028369574773956,77.50003283321637,0,100,3.0,5,6.501627003199426e-07
6.235,0.04553881263121314,77.50009198824264,0,100,3.0,5,1.8215493592959877e-06
6.24,-0.189138810908105,77.50028074560149,0,100,3.0,5,5.559318841314602e-06
6.245,-0.22868072635956738,77.50088215537116,0,100,3.0,5,1.7468423191256096e-05
6.25,-0.14104670682394166,77.5027317136506,0,100,3.0,5,5.409333961592487e-05
6.255,-0.051158381651102834,77.50812515206187,0,100,3.0,5,0.00016089410023495125
6.26,-0.008206426846427752,77.52290585167412,0,100,3.0,5,0.0004535812212697967
6.265,0.005350271385530505,77.5607994860294,0,100,3.0,5,0.0012039502184038745
6.27,0.01084668799215426,77.65144697964095,0,100,3.0,5,0.0029989500919000286
6.275,0.016256859896386415,77.85343089561607,0,100,3.0,5,0.00699863159635785
6.28,0.02345021205790711,78.27206809920676,0,100,3.0,5,0.015288477212015105
6.285,0.0330621597308209,79.07802187804528,0,100,3.0,5,0.031247957981094594
6.29,0.04559141319943196,80.51693895137673,0,100,3.0,5,0.05974136537379663
6.295,0.06149084917446989,82.89454088046219,0,100,3.0,5,0.10682259169232054
6.3,0.08111733445924295,86.52074732919208,0,100,3.0,5,0.17862865998400151
6.305,0.1046628598272375,91.60628022891433,0,100,3.0,5,0.2793322817606798
6.31,0.1320831047748631,98.12800786254579,0,100,3.0,5,0.40847540321872844
6.315,0.16303381314489318,105.70840989696592,0,100,3.0,5,0.5585823741973449
6.32,0.19682662652900276,113.57344353324595,0,100,3.0,5,0.7143256145197218
6.325,0.23241585813229,120.64276888442222,0,100,3.0,5,0.8543122551370738
6.33,0.26842527782774417,125.75956336367835,0,100,3.0,5,0.9556349180926407
6.335,0.30321927900592993,128.0,0,100,3.0,5,1.0
6.34,0.3350163137995362,126.95061745029365,0,100,3.0,5,0.9792201475305673
6.345,0.3620352400956416,122.84001560912182,0,100,3.0,5,0.897822091269739
6.35,0.3826586036805073,116.46801010317881,0,100,3.0,5,0.7716437644193824
6.355,0.39559233134833227,108.96296573740314,0,100,3.0,5,0.6230290245030324
6.36,0.4,101.46881286087532,0,100,3.0,5,0.4746299576410954
6.365,0.39559233134833227,94.88053871179497,0,100,3.0,5,0.34416908340188057
6.37,0.3826586036805073,89.70779311233117,0,100,3.0,5,0.24173847747190444
6.375,0.3620352400956416,86.07956026661839,0,100,3.0,5,0.1698922825072948
6.38,0.3350163137995362,83.84687409322002,0,100,3.0,5,0.1256806751132678
6.385,0.3032192790059296,82.7187027867249,0,100,3.0,5,0.10334064924207731
6.39,0.26842527782774417,82.37771688222631,0,100,3.0,5,0.09658845311339226
6.395,0.23241585813229,82.55072048744152,0,100,3.0,5,0.10001426707804997
6.4,0.19682662652900276,83.03453037589074,0,100,3.0,5,0.1095946609087275
6.405,0.16303381314489318,83.69208055632127,0,100,3.0,5,0.12261545656081728
6.41,0.13208310477486307,84.43544696634281,0,100,3.0,5,0.1373355834919368
6.415,0.10466285982723562,85.20760297898806,0,100,3.0,5,0.15262580156412006
6.42,0.08111733445917907,85.96850260217812,0,100,3.0,5,0.1676931208352103
6.425,0.06149084917398798,86.6865931944108,0,100,3.0,5,0.18191273652298623
6.43,0.04559141333598128,87.33469336179016,0,100,3.0,5,0.19474640320376552
6.435,0.03306217087257399,87.88866412777621,0,100,3.0,5,0.20571612134210315
6.44,0.02345067901074276,88.32756689971691,0,100,3.0,5,0.21440726534092897
6.445,0.016268788896435526,88.63444229094094,0,100,3.0,5,0.22048400576120672
6.45,0.011039026374860051,88.7972016808272,0,100,3.0,5,0.22370696397677625
6.455,0.007326255555493689,88.80935150413694,0,100,3.0,5,0.22394755453736517
6.46,0.0047556414315231815,88.67040269484706,0,100,3.0,5,0.22119609296726842
6.465,0.0030193390635632803,88.38589749796584,0,100,3.0,5,0.21556232669239292
6.47,0.001874953127946523,87.96704111602165,0,100,3.0,5,0.20726814091131976
6.475,0.0011387927410965778,87.42996910265714,0,100,3.0,5,0.19663305153776514
6.48,0.0006765107634274089,86.79471636674512,0,100,3.0,5,0.18405378944049744
6.485,0.00039307957404427924,86.08397933237504,0,100,3.0,5,0.16997978875990172
6.49,0.00022338910511776318,85.32177758289465,0,100,3.0,5,0.15488668480979514
6.495,0.00012417073320013317,84.53212429988861,0,100,3.0,5,0.13924998613640807
6.5,6.750753468904987e-05,83.7378064113005,0,100,3.0,5,0.1235209190356534
6.505,3.5897234866245036e-05,82.95935736032456,0,100,3.0,5,0.1081060863430606
6.51,1.8670050400879738e-05,82.21428063285789,0,100,3.0,5,0.09335209173976025
6.515,9.497421874143672e-06,81.51655406697313,0,100,3.0,5,0.0795357240984778
6.52,4.725434140340885e-06,80.8764170164331,0,100,3.0,5,0.06685974289966524
6.525,2.299606063738814e-06,80.30041774319758,0,100,3.0,5,0.05545381669698188
6.53,1.0945633976635486e-06,79.7916792805792,0,100,3.0,5,0.04537978773424164
6.535,5.095703414287532e-07,79.35032975682887,0,100,3.0,5,0.03664019320453208
6.54,2.3202944964797243e-07,78.97403808767992,0,100,3.0,5,0.029188873023364655
6.545,1.0333746954038608e-07,78.65859741440458,0,100,3.0,5,0.022942523057516477
6.55,4.501406988770349e-08,78.39850537991533,0,100,3.0,5,0.01779218574089772
6.555,0.0,78.1875006071592,0,100,3.0,5,0.01361387340909295
6.56,0.0,78.01902678123402,0,100,3.0,5,0.010277758044237983
6.565,0.0,77.8866079019436,0,100,3.0,5,0.007655602018685262
6.57,0.0,77.78412926151917,0,100,3.0,5,0.0056263220102805754
6.575,0.0,77.70602763440992,0,100,3.0,5,0.004079755136830114
6.58,0.0,77.64740060525696,0,100,3.0,5,0.002918823866474497
6.585,0.0,77.604048862077,0,100,3.0,5,0.0020603735064751187
6.59,0.0,77.57246689949535,0,100,3.0,5,0.0014349881088188759
6.595,0.0,77.54979735814472,0,100,3.0,5,0.000986086299895357
6.6,0.0,77.53376270259416,0,100,3.0,5,0.0006685683682011887
6.605,0.0,77.52258563891289,0,100,3.0,5,0.000447240374512603
6.61,0.0,77.51490705436474,0,100,3.0,5,0.0002951891953414091
6.615,0.0,77.50970768257822,0,100,3.0,5,0.00019223133818265054
6.62,0.0,77.50623739972342,0,100,3.0,5,0.000123512865810248
6.625,0.0,77.50395417479393,0,100,3.0,5,7.830049096895945e-05
6.63,0.0,77.50247327511215,0,100,3.0,5,4.8975744795087046e-05
6.635,0.0,77.50152634696913,0,100,3.0,5,3.0224692458002417e-05
6.64,0.0,77.50092939083888,0,100,3.0,5,1.840377898766332e-05
6.645,0.0,77.50055835162344,0,100,3.0,5,1.1056467790881876e-05
6.65,0.0,77.50033096453323,0,100,3.0,5,6.553753133339972e-06
6.655,0.0,77.50019356169078,0,100,3.0,5,3.832904767894361e-06
6.66,0.0,77.50011169188872,0,100,3.0,5,2.2117205686966075e-06
6.665,0.0,77.50006358989972,0,100,3.0,5,1.2592059351395573e-06
6.67,0.0,77.5000357206146,0,100,3.0,5,7.07338903067007e-07
6.675,0.0,77.50001979766552,0,100,3.0,5,3.920329805119349e-07
6.68,0.0,77.50001082613204,0,100,3.0,5,2.1437885228950486e-07
6.685,0.0,77.50000584113084,0,100,3.0,5,1.156659572873173e-07
6.69,0.001684486749771458,77.50000310945893,0,100,3.0,5,6.157344416513495e-08
6.695,0.00456624331333666,77.50000163319106,0,100,3.0,5,3.234041705942254e-08
6.7,0.011079731271581421,77.50000084635671,0,100,3.0,5,1.6759538865618098e-08
6.705,0.024064571490409,77.5000004327471,0,100,3.0,5,8.569249512400364e-09
6.71,0.046784906529573234,77.50000021831278,0,100,3.0,5,4.323025299671295e-09
6.715,0.08141644351188804,77.5000001086647,0,100,3.0,5,2.151776103832757e-09
6.72,0.12682276464025305,77.50000005336567,0,100,3.0,5,1.0567458899134695e-09
6.725,0.1768320708657512,77.50000002585828,0,100,3.0,5,5.120452356950949e-10
6.73,0.22070063230473494,77.50000001236238,0,100,3.0,5,2.447995601608337e-10
6.735,0.24656126505113576,77.50000000583134,0,100,3.0,5,1.154720587575218e-10
6.74,0.24656126505724016,77.50000000271393,0,100,3.0,5,5.374123148693897e-11
6.745,0.220700632329898,77.50000000124622,0,100,3.0,5,2.4677641668309697e-11
6.75,0.17683207093748562,77.50000000056461,0,100,3.0,5,1.1180425122568135e-11
6.755,0.12682276483597799,77.50000000025238,0,100,3.0,5,4.997718410732428e-12
6.76,0.08141644409447898,77.50000000011131,0,100,3.0,5,2.204230197706481e-12
6.765,0.04678490952598309,77.50000000004844,0,100,3.0,5,9.59303044042052e-13
6.77,0.024064605020532023,77.5000000000208,0,100,3.0,5,4.1197408520902444e-13
6.775,0.011080171739334697,77.50000000000881,0,100,3.0,5,1.7446989947376718e-13
6.78,0.004571212771509492,77.50000000000368,0,100,3.0,5,7.28833934898479e-14
6.785,0.0017299316936037438,77.50000000000152,0,100,3.0,5,3.011012781240821e-14
6.79,0.0008899431850697582,77.50000000000061,0,100,3.0,5,1.2100331737696755e-14
6.795,0.002128806368910263,77.50000000000024,0,100,3.0,5,4.783852082345229e-15
6.8,0.009309664818487698,77.5000000000001,0,100,3.0,5,1.969821445671565e-15
6.805,0.03503263543368747,77.50000000000004,0,100,3.0,5,8.442091910020992e-16
6.81,0.10606267793605692,77.50000000000001,0,100,3.0,5,2.814030636673664e-16
6.815,0.25734927343160535,77.5,0,100,3.0,5,0.0
6.82,0.5003202479539708,77.5,0,100,3.0,5,0.0
6.825,0.7793067891790435,77.5,0,100,3.0,5,0.0
6.83,0.9720477407234077,77.500002961856,1,100,3.0,5,5.865061381774638e-08
6.835,0.967267334488097,77.500006041423,0,100,3.0,5,1.1963213873878877e-07
6.84,0.7505869905515209,77.50001328138595,0,100,3.0,5,2.629977415165173e-07
6.845,0.4028369574773956,77.50003283321637,0,100,3.0,5,6.501627003199426e-07
6.85,0.04553881263121314,77.50009198824264,0,100,3.0,5,1.8215493592959877e-06
6.855,-0.189138810908105,77.50028074560149,0,100,3.0,5,5.559318841314602e-06
6.86,-0.22868072635956738,77.50088215537116,0,100,3.0,5,1.7468423191256096e-05
6.865,-0.14104670682394166,77.5027317136506,0,100,3.0,5,5.409333961592487e-05
6.87,-0.051158381651102834,77.50812515206187,0,100,3.0,5,0.00016089410023495125
6.875,-0.008206426846427752,77.52290585167412,0,100,3.0,5,0.0004535812212697967
6.88,0.005350271385530505,77.5607994860294,0,100,3.0,5,0.0012039502184038745
6.885,0.01084668799215426,77.65144697964095,0,100,3.0,5,0.0029989500919000286
6.89,0.016256859896386415,77.85343089561607,0,100,3.0,5,0.00699863159635785
6.895,0.02345021205790711,78.27206809920676,0,100,3.0,5,0.015288477212015105
6.9,0.0330621597308209,79.07802187804528,0,100,3.0,5,0.031247957981094594
6.905,0.04559141319943196,80.51693895137673,0,100,3.0,5,0.05974136537379663
6.91,0.06149084917446989,82.89454088046219,0,100,3.0,5,0.10682259169232054
6.915,0.08111733445924295,86.52074732919208,0,100,3.0,5,0.17862865998400151
6.92,0.1046628598272375,91.60628022891433,0,100,3.0,5,0.2793322817606798
6.925,0.1320831047748631,98.12800786254579,0,100,3.0,5,0.40847540321872844
6.93,0.16303381314489318,105.70840989696592,0,100,3.0,5,0.5585823741973449
6.935,0.19682662652900276,113.57344353324595,0,100,3.0,5,0.7143256145197218
6.94,0.23241585813229,120.64276888442222,0,100,3.0,5,0.8543122551370738
6.945,0.26842527782774417,125.75956336367835,0,100,3.0,5,0.9556349180926407
6.95,0.30321927900592993,128.0,0,100,3.0,5,1.0
6.955,0.3350163137995362,126.95061745029365,0,100,3.0,5,0.9792201475305673
6.96,0.3620352400956416,122.84001560912182,0,100,3.0,5,0.897822091269739
6.965,0.3826586036805073,116.46801010317881,0,100,3.0,5,0.7716437644193824
6.97,0.39559233134833227,108.96296573740314,0,100,3.0,5,0.6230290245030324
6.975,0.4,101.46881286087532,0,100,3.0,5,0.4746299576410954
6.98,0.39559233134833227,94.88053871179497,0,100,3.0,5,0.34416908340188057
6.985,0.3826586036805073,89.70779311233117,0,100,3.0,5,0.24173847747190444
6.99,0.3620352400956416,86.07956026661839,0,100,3.0,5,0.1698922825072948
6.995,0.3350163137995362,83.84687409322002,0,100,3.0,5,0.1256806751132678
7.0,0.3032192790059296,82.7187027867249,0,100,3.0,5,0.10334064924207731
7.005,0.26842527782774417,82.37771688222631,0,100,3.0,5,0.09658845311339226
7.01,0.23241585813229,82.55072048744152,0,100,3.0,5,0.10001426707804997
7.015,0.19682662652900276,83.03453037589074,0,100,3.0,5,0.1095946609087275
7.02,0.16303381314489318,83.69208055632127,0,100,3.0,5,0.12261545656081728
7.025,0.13208310477486307,84.43544696634281,0,100,3.0,5,0.1373355834919368
7.03,0.10466285982723562,85.20760297898806,0,100,3.0,5,0.15262580156412006
7.035,0.08111733445917907,85.96850260217812,0,100,3.0,5,0.1676931208352103
7.04,0.06149084917398798,86.6865931944108,0,100,3.0,5,0.18191273652298623
7.045,0.04559141333598128,87.33469336179016,0,100,3.0,5,0.19474640320376552
7.05,0.03306217087257399,87.88866412777621,0,100,3.0,5,0.20571612134210315
7.055,0.02345067901074276,88.32756689971691,0,100,3.0,5,0.21440726534092897
7.06,0.016268788896435526,88.63444229094094,0,100,3.0,5,0.22048400576120672
7.065,0.011039026374860051,88.7972016808272,0,100,3.0,5,0.22370696397677625
7.07,0.007326255555493689,88.80935150413694,0,100,3.0,5,0.22394755453736517
7.075,0.0047556414315231815,88.67040269484706,0,100,3.0,5,0.22119609296726842
7.08,0.0030193390635632803,88.38589749796584,0,100,3.0,5,0.21556232669239292
7.085,0.001874953127946523,87.96704111602165,0,100,3.0,5,0.20726814091131976
7.09,0.0011387927410965778,87.42996910265714,0,100,3.0,5,0.19663305153776514
7.095,0.0006765107634274089,86.79471636674512,0,100,3.0,5,0.18405378944049744
7.1,0.00039307957404427924,86.08397933237504,0,100,3.0,5,0.16997978875990172
7.105,0.00022338910511776318,85.32177758289465,0,100,3.0,5,0.15488668480979514
7.11,0.00012417073320013317,84.53212429988861,0,100,3.0,5,0.13924998613640807
7.115,6.750753468904987e-05,83.7378064113005,0,100,3.0,5,0.1235209190356534
7.12,3.5897234866245036e-05,82.95935736032456,0,100,3.0,5,0.1081060863430606
7.125,1.8670050400879738e-05,82.21428063285789,0,100,3.0,5,0.09335209173976025
7.13,9.497421874143672e-06,81.51655406697313,0,100,3.0,5,0.0795357240984778
7.135,4.725434140340885e-06,80.8764170164331,0,100,3.0,5,0.06685974289966524
7.14,2.299606063738814e-06,80.30041774319758,0,100,3.0,5,0.05545381669698188
7.145,1.0945633976635486e-06,79.7916792805792,0,100,3.0,5,0.04537978773424164
7.15,5.095703414287532e-07,79.35032975682887,0,100,3.0,5,0.03664019320453208
7.155,2.3202944964797243e-07,78.97403808767992,0,100,3.0,5,0.029188873023364655
7.16,1.0333746954038608e-07,78.65859741440458,0,100,3.0,5,0.022942523057516477
7.165,4.501406988770349e-08,78.39850537991533,0,100,3.0,5,0.01779218574089772
7.17,0.0,78.1875006071592,0,100,3.0,5,0.01361387340909295
7.175,0.0,78.01902678123402,0,100,3.0,5,0.010277758044237983
7.18,0.0,77.8866079019436,0,100,3.0,5,0.007655602018685262
7.185,0.0,77.78412926151917,0,100,3.0,5,0.0056263220102805754
7.19,0.0,77.70602763440992,0,100,3.0,5,0.004079755136830114
7.195,0.0,77.64740060525696,0,100,3.0,5,0.002918823866474497
7.2,0.0,77.604048862077,0,100,3.0,5,0.0020603735064751187
7.205,0.0,77.57246689949535,0,100,3.0,5,0.0014349881088188759
7.21,0.0,77.54979735814472,0,100,3.0,5,0.000986086299895357
7.215,0.0,77.53376270259416,0,100,3.0,5,0.0006685683682011887
7.22,0.0,77.52258563891289,0,100,3.0,5,0.000447240374512603
7.225,0.0,77.51490705436474,0,100,3.0,5,0.0002951891953414091
7.23,0.0,77.50970768257822,0,100,3.0,6,0.00019223133818265054
7.235,0.0,77.50623739972342,0,100,3.0,6,0.000123512865810248
7.24,0.0,77.50395417479393,0,100,3.0,6,7.830049096895945e-05
7.245,0.0,77.50247327511215,0,100,3.0,6,4.8975744795087046e-05
7.25,0.0,77.50152634696913,0,100,3.0,6,3.0224692458002417e-05
7.255,0.0,77.50092939083888,0,100,3.0,6,1.840377898766332e-05
7.26,0.0,77.50055835162344,0,100,3.0,6,1.1056467790881876e-05
7.265,0.0,77.50033096453323,0,100,3.0,6,6.553753133339972e-06
7.27,0.0,77.50019356169078,0,100,3.0,6,3.832904767894361e-06
7.275,0.0,77.50011169188872,0,100,3.0,6,2.2117205686966075e-06
7.28,0.0,77.50006358989972,0,100,3.0,6,1.2592059351395573e-06
7.285,0.0,77.5000357206146,0,100,3.0,6,7.07338903067007e-07
7.29,0.0,77.50001979766552,0,100,3.0,6,3.920329805119349e-07
7.295,0.0,77.50001082613204,0,100,3.0,6,2.1437885228950486e-07
7.3,0.0,77.50000584113084,0,100,3.0,6,1.156659572873173e-07
7.305,0.001684486749771458,77.50000310945893,0,100,3.0,6,6.157344416513495e-08
7.31,0.00456624331333666,77.50000163319106,0,100,3.0,6,3.234041705942254e-08
7.315,0.011079731271581421,77.50000084635671,0,100,3.0,6,1.6759538865618098e-08
7.32,0.024064571490409,77.5000004327471,0,100,3.0,6,8.569249512400364e-09
7.325,0.046784906529573234,77.50000021831278,0,100,3.0,6,4.323025299671295e-09
7.33,0.08141644351188804,77.5000001086647,0,100,3.0,6,2.151776103832757e-09
7.335,0.12682276464025305,77.50000005336567,0,100,3.0,6,1.0567458899134695e-09
7.34,0.1768320708657512,77.50000002585828,0,100,3.0,6,5.120452356950949e-10
7.345,0.22070063230473494,77.50000001236238,0,100,3.0,6,2.447995601608337e-10
7.35,0.24656126505113576,77.50000000583134,0,100,3.0,6,1.154720587575218e-10
7.355,0.24656126505724016,77.50000000271393,0,100,3.0,6,5.374123148693897e-11
7.36,0.220700632329898,77.50000000124622,0,100,3.0,6,2.4677641668309697e-11
7.365,0.17683207093748562,77.50000000056461,0,100,3.0,6,1.1180425122568135e-11
7.37,0.12682276483597799,77.50000000025238,0,100,3.0,6,4.997718410732428e-12
7.375,0.08141644409447898,77.50000000011131,0,100,3.0,6,2.204230197706481e-12
7.38,0.04678490952598309,77.50000000004844,0,100,3.0,6,9.59303044042052e-13
7.385,0.024064605020532023,77.5000000000208,0,100,3.0,6,4.1197408520902444e-13
7.39,0.011080171739334697,77.50000000000881,0,100,3.0,6,1.7446989947376718e-13
7.395,0.004571212771509492,77.50000000000368,0,100,3.0,6,7.28833934898479e-14
7.4,0.0017299316936037438,77.50000000000152,0,100,3.0,6,3.011012781240821e-14
7.405,0.0008899431850697582,77.50000000000061,0,100,3.0,6,1.2100331737696755e-14
7.41,0.002128806368910263,77.50000000000024,0,100,3.0,6,4.783852082345229e-15
7.415,0.009309664818487698,77.5000000000001,0,100,3.0,6,1.969821445671565e-15
7.42,0.03503263543368747,77.50000000000004,0,100,3.0,6,8.442091910020992e-16
7.425,0.10606267793605692,77.50000000000001,0,100,3.0,6,2.814030636673664e-16
7.43,0.25734927343160535,77.5,0,100,3.0,6,0.0
7.435,0.5003202479539708,77.5,0,100,3.0,6,0.0
7.44,0.7793067891790435,77.5,0,100,3.0,6,0.0
7.445,0.9720477407234077,77.50000296417907,1,100,3.0,6,5.8696615339370215e-08
7.45,0.967267334488097,77.50000671426626,0,100,3.0,6,1.3295576758366115e-07
7.455,0.7505869905515209,77.50001690807775,0,100,3.0,6,3.3481342086923917e-07
7.46,0.4028369574773956,77.50004998152149,0,100,3.0,6,9.897330987161408e-07
7.465,0.04553881263121314,77.50017093493624,0,100,3.0,6,3.3848502224904368e-06
7.47,-0.189138810908105,77.50062682696246,0,100,3.0,6,1.2412415098215026e-05
7.475,-0.22868072635956738,77.50228951654114,0,100,3.0,6,4.533696121069003e-05
7.48,-0.14104670682394166,77.50797121731352,0,100,3.0,6,0.00015784588739653274
7.485,-0.051158381651102834,77.52589581734757,0,100,3.0,6,0.0005127884623282125
7.49,-0.008206426846427752,77.57774358530986,0,100,3.0,6,0.001539476936828929
7.495,0.005350271385530505,77.7147515715821,0,100,3.0,6,0.00425250636796235
7.5,0.01084668799215426,78.04471478880228,0,100,3.0,6,0.01078643146143131
7.505,0.016256859896386415,78.76748649806238,0,100,3.0,6,0.02509874253588876
7.51,0.02345021205790711,80.20427167320135,0,100,3.0,6,0.05354993412279896
7.515,0.0330621597308209,82.78911922275384,0,100,3.0,6,0.10473503411393742
7.52,0.04559141319943196,86.98172744251318,0,100,3.0,6,0.18775697905966685
7.525,0.06149084917446989,93.07887730032347,0,100,3.0,6,0.30849261980838555
7.53,0.08111733445924295,100.95962721250167,0,100,3.0,6,0.4645470735148846
7.535,0.1046628598272375,109.87793025058434,0,100,3.0,6,0.6411471336749375
7.54,0.1320831047748631,118.45853789884562,0,100,3.0,6,0.8110601564127845
7.545,0.16303381314489318,124.99616767138359,0,100,3.0,6,0.9405181717105661
7.55,0.19682662652900276,128.0,0,100,3.0,6,1.0
7.555,0.23241585813229,126.75356838385197,0,100,3.0,6,0.9753181858188509
7.56,0.26842527782774417,121.60504184108623,0,100,3.0,6,0.8733671651700244
7.565,0.30321927900592993,113.82915829348634,0,100,3.0,6,0.7193892731383434
7.57,0.3350163137995362,105.1368956240279,0,100,3.0,6,0.5472652598817406
7.575,0.3620352400956416,97.09121900543379,0,100,3.0,6,0.387944930800669
7.58,0.3826586036805073,90.69899581482312,0,100,3.0,6,0.2613662537588737
7.585,0.39559233134833227,86.30643547151764,0,100,3.0,6,0.1743848608221316
7.59,0.4,83.74771204094193,0,100,3.0,6,0.12371707011766206
7.595,0.39559233134833227,82.59820551494997,0,100,3.0,6,0.1009545646524746
7.6,0.3826586036805073,82.39507218456649,0,100,3.0,6,0.09693212246666312
7.605,0.3620352400956416,82.76100457002498,0,100,3.0,6,0.10417830831732633
7.61,0.3350163137995362,83.43701275683196,0,100,3.0,6,0.11756460904617747
7.615,0.3032192790059296,84.26274473002995,0,100,3.0,6,0.13391573722831585
7.62,0.26842527782774417,85.14136714527861,0,100,3.0,6,0.1513142008966061
7.625,0.23241585813229,86.00990517918865,0,100,3.0,6,0.1685129738453198
7.63,0.19682662652900276,86.82112236316677,0,100,3.0,6,0.1845766804587478
7.635,0.16303381314489318,87.53521333823748,0,100,3.0,6,0.19871709580668284
7.64,0.13208310477486307,88.11753774701205,0,100,3.0,6,0.21024827221806042
7.645,0.10466285982723562,88.53926927071664,0,100,3.0,6,0.2185993914993395
7.65,0.08111733445917907,88.77902403173812,0,100,3.0,6,0.22334701052946768
7.655,0.06149084917398798,88.82443075630417,0,100,3.0,6,0.22424615359018152
7.66,0.04559141333598128,88.67312595457363,0,100,3.0,6,0.22125001890244822
7.665,0.03306217087257399,88.33294216334119,0,100,3.0,6,0.21451370620477597
7.67,0.02345067901074276,87.8212325486588,0,100,3.0,6,0.20438084254769898
7.675,0.016268788896435526,87.16340340705206,0,100,3.0,6,0.19135452291192195
7.68,0.011039026374860051,86.39082504390485,0,100,3.0,6,0.17605594146346246
7.685,0.007326255555493689,85.53835951391795,0,100,3.0,6,0.15917543591916739
7.69,0.0047556414315231815,84.64177552213825,0,100,3.0,6,0.1414212974680841
7.695,0.0030193390635632803,83.73531462915751,0,100,3.0,6,0.12347157681500029
7.7,0.001874953127946523,82.8496326055666,0,100,3.0,6,0.10593331892211084
7.705,0.0011387927410965778,82.01027424192745,0,100,3.0,6,0.0893123612262861
7.71,0.0006765107634274089,81.23676123804874,0,100,3.0,6,0.07399527204056917
7.715,0.00039307957404427924,80.54229383076677,0,100,3.0,6,0.06024344219340132
7.72,0.00022338910511776318,79.93399886750076,0,100,3.0,6,0.04819799737625271
7.725,0.00012417073320013317,79.41360807300065,0,100,3.0,6,0.037893229168329615
7.73,6.750753468904987e-05,78.97842407043797,0,100,3.0,6,0.029275724167088454
7.735,3.5897234866245036e-05,78.62242792395355,0,100,3.0,6,0.022226295523832713
7.74,1.8670050400879738e-05,78.33739682142036,0,100,3.0,6,0.016582115275650608
7.745,9.497421874143672e-06,78.11392816965889,0,100,3.0,6,0.0121569934585919
7.75,4.725434140340885e-06,77.9423002876319,0,100,3.0,6,0.008758421537265242
7.755,2.299606063738814e-06,77.81313404636992,0,100,3.0,6,0.006200674185543062
7.76,1.0945633976635486e-06,77.7178495995346,0,100,3.0,6,0.004313853456130745
7.765,5.095703414287532e-07,77.64893495872354,0,100,3.0,6,0.002949207103436511
7.77,2.3202944964797243e-07,77.60005756748029,0,100,3.0,6,0.0019813379699067666
7.775,1.0333746954038608e-07,77.56605666430328,0,100,3.0,6,0.0013080527584806965
7.78,4.501406988770349e-08,77.54285453088583,0,100,3.0,6,0.0008486045719966978
7.785,0.0,77.5273206016611,0,100,3.0,6,0.0005410020130911431
7.79,0.0,77.51711579911962,0,100,3.0,6,0.0003389267152400488
7.795,0.0,77.5105370128528,0,100,3.0,6,0.00020865371985730172
7.8,0.0,77.50637457516568,0,100,3.0,6,0.00012622921120157684
7.805,0.0,77.50378964379554,0,100,3.0,6,7.504245139688068e-05
7.81,0.0,77.50221390480374,0,100,3.0,6,4.3839699083937465e-05
7.815,0.0,77.50127096298368,0,100,3.0,6,2.5167583835287354e-05
7.82,0.0,77.5007170018383,0,100,3.0,6,1.4198056203890746e-05
7.825,0.0,77.5003974852742,0,100,3.0,6,7.870995528834317e-06
7.83,0.0,77.50021653855089,0,100,3.0,6,4.287892096780893e-06
7.835,0.0,77.50011592118605,0,100,3.0,6,2.2954690307145002e-06
7.84,0.0,77.50006098230187,0,100,3.0,6,1.2075703341564587e-06
7.845,0.001684486749771458,77.50003152522672,0,100,3.0,6,6.2426191519053e-07
7.85,0.00456624331333666,77.50001601496638,0,100,3.0,6,3.1712804707015015e-07
7.855,0.011079731271581421,77.5000079947935,0,100,3.0,6,1.5831274269955187e-07
7.86,0.024064571490409,77.50000392194843,0,100,3.0,6,7.766234521924243e-08
7.865,0.046784906529573234,77.50000189064467,0,100,3.0,6,3.743850828472529e-08
7.87,0.08141644351188804,77.50000089563562,0,100,3.0,6,1.7735358862482105e-08
7.875,0.12682276464025305,77.50000041693293,0,100,3.0,6,8.256097710880856e-09
7.88,0.1768320708657512,77.500000190728,0,100,3.0,6,3.776792124368188e-09
7.885,0.22070063230473494,77.50000008573855,0,100,3.0,6,1.697793043667213e-09
7.89,0.24656126505113576,77.50000003787487,0,100,3.0,6,7.499974151077107e-10
7.895,0.24656126505724016,77.50000001644143,0,100,3.0,6,3.255729327497872e-10
7.9,0.220700632329898,77.50000000701361,0,100,3.0,6,1.3888338663932835e-10
7.905,0.17683207093748562,77.50000000294007,0,100,3.0,6,5.821919843907777e-11
7.91,0.12682276483597799,77.50000000121112,0,100,3.0,6,2.3982576101051303e-11
7.915,0.08141644409447898,77.50000000049026,0,100,3.0,6,9.708124293460474e-12
7.92,0.04678490952598309,77.50000000019502,0,100,3.0,6,3.8616942427072695e-12
7.925,0.024064605020532023,77.50000000007623,0,100,3.0,6,1.5094460335117535e-12
7.93,0.011080171739334697,77.50000000002929,0,100,3.0,6,5.799717142184422e-13
7.935,0.004571212771509492,77.50000000001106,0,100,3.0,6,2.1893158353321106e-13
7.94,0.0017299316936037438,77.50000000000409,0,100,3.0,6,8.104408233620152e-14
7.945,0.0008899431850697582,77.50000000000149,0,100,3.0,6,2.9547321685073474e-14
7.95,0.002128806368910263,77.50000000000054,0,100,3.0,6,1.0693316419359924e-14
7.955,0.009309664818487698,77.50000000000018,0,100,3.0,6,3.6582398276757634e-15
7.96,0.03503263543368747,77.50000000000007,0,100,3.0,6,1.4070153183368321e-15
7.965,0.10606267793605692,77.50000000000003,0,100,3.0,6,5.628061273347328e-16
7.97,0.25734927343160535,77.5,0,100,3.0,6,0.0
7.975,0.5003202479539708,77.5,0,100,3.0,6,0.0
7.98,0.7793067891790435,77.5,0,100,3.0,6,0.0
7.985,0.9720477407234077,77.50000295859651,1,100,3.0,6,5.8586069522645254e-08
7.99,0.967267334488097,77.5000067561685,0,100,3.0,6,1.3378551490841527e-07
7.995,0.7505869905515209,77.50001719779611,0,100,3.0,6,3.405504180523842e-07
8.0,0.4028369574773956,77.5000515647382,0,100,3.0,6,1.0210839247569726e-06
8.005,0.04553881263121314,77.50017905711105,0,100,3.0,6,3.5456853674198706e-06
8.01,-0.189138810908105,77.50066543420391,0,100,3.0,6,1.3176914928907995e-05
8.015,-0.22868072635956738,77.50245623074227,0,100,3.0,6,4.863823252016667e-05
8.02,-0.14104670682394166,77.50861965463233,0,100,3.0,6,0.00017068623034309903
8.025,-0.051158381651102834,77.52816257611583,0,100,3.0,6,0.0005576747745709385
8.03,-0.008206426846427752,77.58486608071702,0,100,3.0,6,0.0016805164498419902
8.035,0.005350271385530505,77.73487888834222,0,100,3.0,6,0.004651067095885605
8.04,0.01084668799215426,78.09587973796046,0,100,3.0,6,0.011799598771494238
8.045,0.016256859896386415,78.88444402686726,0,100,3.0,6,0.02741473320529222
8.05,0.02345021205790711,80.44438680795989,0,100,3.0,6,0.05830468926653242
8.055,0.0330621597308209,83.23080098869458,0,100,3.0,6,0.11348120769692242
8.06,0.04559141319943196,87.70668893967627,0,100,3.0,6,0.2021126522708172
8.065,0.06149084917446989,94.13333093081903,0,100,3.0,6,0.32937288971918866
8.07,0.08111733445924295,102.30231037555089,0,100,3.0,6,0.49113485892179976
8.075,0.1046628598272375,111.34021198838462,0,100,3.0,6,0.6701032076907847
8.08,0.1320831047748631,119.75039744596242,0,100,3.0,6,0.8366415335834143
8.085,0.16303381314489318,125.7775075029916,0,100,3.0,6,0.955990247583992
8.09,0.19682662652900276,128.0,0,100,3.0,6,1.0
8.095,0.23241585813229,125.8837302260334,0,100,3.0,6,0.9580936678422457
8.1,0.26842527782774417,120.00442444611679,0,100,3.0,6,0.8416717712102334
8.105,0.30321927900592993,111.81450952076494,0,100,3.0,6,0.6794952380349494
8.11,0.3350163137995362,103.08448147665294,0,100,3.0,6,0.506623395577286
8.115,0.3620352400956416,95.31267703219518,0,100,3.0,6,0.3527262778652511
8.12,0.3826586036805073,89.3675293197066,0,100,3.0,6,0.2350005805882496
8.125,0.39559233134833227,85.45217753566341,0,100,3.0,6,0.15746886209234473
8.13,0.4,83.3024972126359,0,100,3.0,6,0.11490093490368117
8.135,0.39559233134833227,82.45388413555828,0,100,3.0,6,0.09809671555560957
8.14,0.3826586036805073,82.44762808031379,0,100,3.0,6,0.09797283327354042
8.145,0.3620352400956416,82.93110062408132,0,100,3.0,6,0.10754654701151137
8.15,0.3350163137995362,83.67186230110104,0,100,3.0,6,0.12221509507130779
8.155,0.3032192790059296,84.52902621832729,0,100,3.0,6,0.139188637986679
8.16,0.26842527782774417,85.41685031310809,0,100,3.0,6,0.15676931313085318
8.165,0.23241585813229,86.27738603424606,0,100,3.0,6,0.17380962444051612
8.17,0.19682662652900276,87.06524364772558,0,100,3.0,6,0.18941076530149664
8.175,0.16303381314489318,87.74143830218591,0,100,3.0,6,0.20280075845912698
8.18,0.13208310477486307,88.27236282853896,0,100,3.0,6,0.21331411541661305
8.185,0.10466285982723562,88.63099644233273,0,100,3.0,6,0.22041577113530159
8.19,0.08111733445917907,88.7986725298133,0,100,3.0,6,0.2237360896992733
8.195,0.06149084917398798,88.76653905319374,0,100,3.0,6,0.22309978323155918
8.2,0.04559141333598128,88.53629358627089,0,100,3.0,6,0.21854046705486904
8.205,0.03306217087257399,88.12002543370468,0,100,3.0,6,0.2102975333406868
8.21,0.02345067901074276,87.53916190769036,0,100,3.0,6,0.19879528530079915
8.215,0.016268788896435526,86.82264075718345,0,100,3.0,6,0.184606747666999
8.22,0.011039026374860051,86.00452435542198,0,100,3.0,6,0.16840642287964314
8.225,0.007326255555493689,85.1213287991438,0,100,3.0,6,0.1509174019632435
8.23,0.0047556414315231815,84.20935785951606,0,100,3.0,6,0.13285857147556557
8.235,0.0030193390635632803,83.30230834193938,0,100,3.0,6,0.11489719488988871
8.24,0.001874953127946523,82.42935664000612,0,100,3.0,6,0.0976110225743786
8.245,0.0011387927410965778,81.61385771036055,0,100,3.0,6,0.08146252891803066
8.25,0.0006765107634274089,80.8727013086189,0,100,3.0,6,0.06678616452710694
8.255,0.00039307957404427924,80.21628968940773,0,100,3.0,6,0.05378791464173724
8.26,0.00022338910511776318,79.64903692797822,0,100,3.0,6,0.042555186692637935
8.265,0.00012417073320013317,79.17024915430844,0,100,3.0,6,0.03307424067937498
8.27,6.750753468904987e-05,78.7752291511895,0,100,3.0,6,0.025252062399792212
8.275,3.5897234866245036e-05,78.4564555520702,0,100,3.0,6,0.018939713902380115
8.28,1.8670050400879738e-05,78.20471082421054,0,100,3.0,6,0.013954669786347261
8.285,9.497421874143672e-06,78.0100663591468,0,100,3.0,6,0.010100323943501086
8.29,4.725434140340885e-06,77.86267031462822,0,100,3.0,6,0.007181590388677588
8.295,2.299606063738814e-06,77.75331851077479,0,100,3.0,6,0.005016208134154252
8.3,1.0945633976635486e-06,77.67381667283504,0,100,3.0,6,0.003441914313565247
8.305,5.095703414287532e-07,77.61716166312297,0,100,3.0,6,0.0023200329331281395
8.31,2.3202944964797243e-07,77.57757989946772,0,100,3.0,6,0.001536235633024192
8.315,1.0333746954038608e-07,77.55046409464848,0,100,3.0,6,0.0009992890029401102
8.32,4.501406988770349e-08,77.53224670533048,0,100,3.0,6,0.0006385486204055274
8.325,0.0,77.52024220417289,0,100,3.0,6,0.00040083572619580243
8.33,0.0,77.51248245020372,0,100,3.0,6,0.00024717723175683097
8.335,0.0,77.50756156121719,0,100,3.0,6,0.00014973388548885779
8.34,0.0,77.50449979461789,0,100,3.0,6,8.910484391852079e-05
8.345,0.0,77.50263053146217,0,100,3.0,6,5.208973192423238e-05
8.35,0.0,77.50151065015024,0,100,3.0,6,2.9913864361135146e-05
8.355,0.0,77.50085222424453,0,100,3.0,6,1.6875727614361307e-05
8.36,0.0,77.50047229512309,0,100,3.0,6,9.352378675027403e-06
8.365,0.0,77.50025712400627,0,100,3.0,6,5.091564480551932e-06
8.37,0.0,77.50013751224759,0,100,3.0,6,2.7230148037746727e-06
8.375,0.0,77.50007224532082,0,100,3.0,6,1.4306004123290502e-06
8.38,0.001684486749771458,77.5000372861598,0,100,3.0,6,7.383397979258979e-07
8.385,0.00456624331333666,77.50001890406396,0,100,3.0,6,3.7433790027697083e-07
8.39,0.011079731271581421,77.50000941525938,0,100,3.0,6,1.864407798927126e-07
8.395,0.024064571490409,77.50000460658394,0,100,3.0,6,9.121948401476438e-08
8.4,0.046784906529573234,77.50000221409005,0,100,3.0,6,4.3843367238157884e-08
8.405,0.08141644351188804,77.50000104539677,0,100,3.0,6,2.07009261745529e-08
8.41,0.12682276464025305,77.50000048488262,0,100,3.0,6,9.601636027510532e-09
8.415,0.1768320708657512,77.50000022093356,0,100,3.0,6,4.374921934075894e-09
8.42,0.22070063230473494,77.5000000988909,0,100,3.0,6,1.958235518734252e-09
8.425,0.24656126505113576,77.50000004348311,0,100,3.0,6,8.610517271687184e-10
8.43,0.24656126505724016,77.50000001878254,0,100,3.0,6,3.7193155486141284e-10
8.435,0.220700632329898,77.50000000796999,0,100,3.0,7,1.5782153142107845e-10
8.44,0.17683207093748562,77.50000000332224,0,100,3.0,7,6.578697103028425e-11
8.445,0.12682276483597799,77.50000000136042,0,100,3.0,7,2.6938996687940655e-11
8.45,0.08141644409447898,77.50000000054725,0,100,3.0,7,1.0836550578766614e-11
8.455,0.04678490952598309,77.50000000021626,0,100,3.0,7,4.282391822889982e-12
8.46,0.024064605020532023,77.50000000008394,0,100,3.0,7,1.6622478970831335e-12
8.465,0.011080171739334697,77.50000000003202,0,100,3.0,7,6.340011024425766e-13
8.47,0.004571212771509492,77.500000000012,0,100,3.0,7,2.3750418573525726e-13
8.475,0.0017299316936037438,77.50000000000442,0,100,3.0,7,8.751635280055096e-14
8.48,0.0008899431850697582,77.50000000000159,0,100,3.0,7,3.151714313074504e-14
8.485,0.002128806368910263,77.50000000000057,0,100,3.0,7,1.1256122546694657e-14
8.49,0.009309664818487698,77.5000000000002,0,100,3.0,7,3.93964289134313e-15
8.495,0.03503263543368747,77.50000000000007,0,100,3.0,7,1.4070153183368321e-15
8.5,0.10606267793605692,77.50000000000003,0,100,3.0,7,5.628061273347328e-16
8.505,0.25734927343160535,77.5,0,100,3.0,7,0.0
8.51,0.5003202479539708,77.5,0,100,3.0,7,0.0
8.515,0.7793067891790435,77.5,0,100,3.0,7,0.0
8.52,0.9720477407234077,77.5000029632167,1,100,3.0,7,5.867755844249559e-08
8.525,0.967267334488097,77.50000611949993,0,100,3.0,7,1.2117821641611342e-07
8.53,0.7505869905515209,77.5000136661605,0,100,3.0,7,2.706170395714874e-07
8.535,0.4028369574773956,77.50003448761683,0,100,3.0,7,6.829231055424244e-07
8.54,0.04553881263121314,77.50009893563154,0,100,3.0,7,1.9591214166635243e-06
8.545,-0.189138810908105,77.50030887479707,0,100,3.0,7,6.1163326152625205e-06
8.55,-0.22868072635956738,77.50098936987865,0,100,3.0,7,1.9591482745598493e-05
8.555,-0.14104670682394166,77.50311109919818,0,100,3.0,7,6.160592471641763e-05
8.56,-0.051158381651102834,77.50936430658398,0,100,3.0,7,0.00018543181354407307
8.565,-0.008206426846427752,77.52663503308537,0,100,3.0,7,0.0005274263977300939
