Time,ECG,Pressure,R_Peaks,mean_hr,hrv_scale,Phase_Bin,Normalized_Pressure
0.0,0.001684486749771458,77.5,0,100,3.0,0,0.0
0.005,0.00456624331333666,77.5,0,100,3.0,0,0.0
0.01,0.011079731271581421,77.5,0,100,3.0,0,0.0
0.015,0.024064571490409,77.5,0,100,3.0,0,0.0
0.02,0.046784906529573234,77.5,0,100,3.0,0,0.0
0.025,0.08141644351188804,77.5,0,100,3.0,0,0.0
0.03,0.12682276464025305,77.5,0,100,3.0,0,0.0
0.035,0.1768320708657512,77.5,0,100,3.0,0,0.0
0.04,0.22070063230473494,77.5,0,100,3.0,0,0.0
0.045,0.24656126505113576,77.5,0,100,3.0,0,0.0
0.05,0.24656126505724016,77.5,0,100,3.0,0,0.0
0.055,0.220700632329898,77.5,0,100,3.0,0,0.0
0.06,0.17683207093748562,77.5,0,100,3.0,0,0.0
0.065,0.12682276483597799,77.5,0,100,3.0,0,0.0
0.07,0.08141644409447898,77.5,0,100,3.0,0,0.0
0.075,0.04678490952598309,77.5,0,100,3.0,0,0.0
0.08,0.024064605020532023,77.5,0,100,3.0,0,0.0
0.085,0.011080171739334697,77.5,0,100,3.0,0,0.0
0.09,0.004571212771509492,77.5,0,100,3.0,0,0.0
0.095,0.0017299316936037438,77.5,0,100,3.0,0,0.0
0.1,0.0008899431850697582,77.5,0,100,3.0,0,0.0
0.105,0.002128806368910263,77.5,0,100,3.0,0,0.0
0.11,0.009309664818487698,77.5,0,100,3.0,0,0.0
0.115,0.03503263543368747,77.5,0,100,3.0,0,0.0
0.12,0.10606267793605692,77.5,0,100,3.0,0,0.0
0.125,0.25734927343160535,77.5,0,100,3.0,0,0.0
0.13,0.5003202479539708,77.5,0,100,3.0,0,0.0
0.135,0.7793067891790435,77.5,0,100,3.0,0,0.0
0.14,0.9720477407234077,77.5,0,100,3.0,0,0.0
0.145,0.967267334488097,77.5,0,100,3.0,0,0.0
0.15,0.7505869905515209,77.5,0,100,3.0,0,0.0
0.155,0.4028369574773956,77.5,0,100,3.0,0,0.0
0.16,0.04553881263121314,77.5,0,100,3.0,0,0.0
0.165,-0.189138810908105,77.5,0,100,3.0,0,0.0
0.17,-0.22868072635956738,77.5,0,100,3.0,0,0.0
0.175,-0.14104670682394166,77.5,0,100,3.0,0,0.0
0.18,-0.051158381651102834,77.5,0,100,3.0,0,0.0
0.185,-0.008206426846427752,77.5,0,100,3.0,0,0.0
0.19,0.005350271385530505,77.5,0,100,3.0,0,0.0
0.195,0.01084668799215426,77.5,0,100,3.0,0,0.0
0.2,0.016256859896386415,77.5,0,100,3.0,0,0.0
0.205,0.02345021205790711,77.5,0,100,3.0,0,0.0
0.21,0.0330621597308209,77.5,0,100,3.0,0,0.0
0.215,0.04559141319943196,77.5,0,100,3.0,0,0.0
0.22,0.06149084917446989,77.5,0,100,3.0,0,0.0
0.225,0.08111733445924295,77.5,0,100,3.0,0,0.0
0.23,0.1046628598272375,77.5,0,100,3.0,0,0.0
0.235,0.1320831047748631,77.5,0,100,3.0,0,0.0
0.24,0.16303381314489318,77.5,0,100,3.0,0,0.0
0.245,0.19682662652900276,77.5,0,100,3.0,0,0.0
0.25,0.23241585813229,77.5,0,100,3.0,0,0.0
0.255,0.26842527782774417,77.5,0,100,3.0,0,0.0
0.26,0.30321927900592993,77.5,0,100,3.0,0,0.0
0.265,0.3350163137995362,77.5,0,100,3.0,0,0.0
0.27,0.3620352400956416,77.5,0,100,3.0,0,0.0
0.275,0.3826586036805073,77.5,0,100,3.0,0,0.0
0.28,0.39559233134833227,77.5,0,100,3.0,0,0.0
0.285,0.4,77.5,0,100,3.0,0,0.0
0.29,0.39559233134833227,77.5,0,100,3.0,0,0.0
0.295,0.3826586036805073,77.5,0,100,3.0,0,0.0
0.3,0.3620352400956416,77.5,0,100,3.0,0,0.0
0.305,0.3350163137995362,77.5,0,100,3.0,0,0.0
0.31,0.3032192790059296,77.5,0,100,3.0,0,0.0
0.315,0.26842527782774417,77.5,0,100,3.0,0,0.0
0.32,0.23241585813229,77.5,0,100,3.0,0,0.0
0.325,0.19682662652900276,77.5,0,100,3.0,0,0.0
0.33,0.16303381314489318,77.5,0,100,3.0,0,0.0
0.335,0.13208310477486307,77.5,0,100,3.0,0,0.0
0.34,0.10466285982723562,77.5,0,100,3.0,0,0.0
0.345,0.08111733445917907,77.5,0,100,3.0,0,0.0
0.35,0.06149084917398798,77.5,0,100,3.0,0,0.0
0.355,0.04559141333598128,77.5,0,100,3.0,0,0.0
0.36,0.03306217087257399,77.5,0,100,3.0,0,0.0
0.365,0.02345067901074276,77.5,0,100,3.0,0,0.0
0.37,0.016268788896435526,77.5,0,100,3.0,0,0.0
0.375,0.011039026374860051,77.5,0,100,3.0,0,0.0
0.38,0.007326255555493689,77.5,0,100,3.0,0,0.0
0.385,0.0047556414315231815,77.5,0,100,3.0,0,0.0
0.39,0.0030193390635632803,77.5,0,100,3.0,0,0.0
0.395,0.001874953127946523,77.5,0,100,3.0,0,0.0
0.4,0.0011387927410965778,77.5,0,100,3.0,0,0.0
0.405,0.0006765107634274089,77.5,0,100,3.0,0,0.0
0.41,0.00039307957404427924,77.5,0,100,3.0,0,0.0
0.415,0.00022338910511776318,77.5,0,100,3.0,0,0.0
0.42,0.00012417073320013317,77.5,0,100,3.0,0,0.0
0.425,6.750753468904987e-05,77.5,0,100,3.0,0,0.0
0.43,3.5897234866245036e-05,77.5,0,100,3.0,0,0.0
0.435,1.8670050400879738e-05,77.5,0,100,3.0,0,0.0
0.44,9.497421874143672e-06,77.5,0,100,3.0,0,0.0
0.445,4.725434140340885e-06,77.5,0,100,3.0,0,0.0
0.45,2.299606063738814e-06,77.5,0,100,3.0,0,0.0
0.455,1.0945633976635486e-06,77.5,0,100,3.0,0,0.0
0.46,5.095703414287532e-07,77.5,0,100,3.0,0,0.0
0.465,2.3202944964797243e-07,77.5,0,100,3.0,0,0.0
0.47,1.0333746954038608e-07,77.5,0,100,3.0,0,0.0
0.475,4.501406988770349e-08,77.5,0,100,3.0,0,0.0
0.48,0.0,77.5,0,100,3.0,0,0.0
0.485,0.0,77.5,0,100,3.0,0,0.0
0.49,0.0,77.5,0,100,3.0,0,0.0
0.495,0.0,77.5,0,100,3.0,0,0.0
0.5,0.0,77.5,0,100,3.0,0,0.0
0.505,0.0,77.5,0,100,3.0,0,0.0
0.51,0.0,77.5,0,100,3.0,0,0.0
0.515,0.0,77.5,0,100,3.0,0,0.0
0.52,0.0,77.5,0,100,3.0,0,0.0
0.525,0.0,77.5,0,100,3.0,0,0.0
0.53,0.0,77.5,0,100,3.0,0,0.0
0.535,0.0,77.5,0,100,3.0,0,0.0
0.54,0.0,77.5,0,100,3.0,0,0.0
0.545,0.0,77.5,0,100,3.0,0,0.0
0.55,0.0,77.5,0,100,3.0,0,0.0
0.555,0.0,77.5,0,100,3.0,0,0.0
0.56,0.0,77.5,0,100,3.0,0,0.0
0.565,0.0,77.5,0,100,3.0,0,0.0
0.57,0.001684486749771458,77.5,0,100,3.0,0,0.0
0.575,0.00456624331333666,77.5,0,100,3.0,0,0.0
0.58,0.011079731271581421,77.5,0,100,3.0,0,0.0
0.585,0.024064571490409,77.5,0,100,3.0,0,0.0
0.59,0.046784906529573234,77.5,0,100,3.0,0,0.0
0.595,0.08141644351188804,77.5,0,100,3.0,0,0.0
0.6,0.12682276464025305,77.5,0,100,3.0,0,0.0
0.605,0.1768320708657512,77.5,0,100,3.0,0,0.0
0.61,0.22070063230473494,77.5,0,100,3.0,0,0.0
0.615,0.24656126505113576,77.5,0,100,3.0,0,0.0
0.62,0.24656126505724016,77.5,0,100,3.0,0,0.0
0.625,0.220700632329898,77.5,0,100,3.0,0,0.0
0.63,0.17683207093748562,77.5,0,100,3.0,0,0.0
0.635,0.12682276483597799,77.5,0,100,3.0,0,0.0
0.64,0.08141644409447898,77.5,0,100,3.0,0,0.0
0.645,0.04678490952598309,77.5,0,100,3.0,0,0.0
0.65,0.024064605020532023,77.5,0,100,3.0,0,0.0
0.655,0.011080171739334697,77.5,0,100,3.0,0,0.0
0.66,0.004571212771509492,77.5,0,100,3.0,0,0.0
0.665,0.0017299316936037438,77.5,0,100,3.0,0,0.0
0.67,0.0008899431850697582,77.5,0,100,3.0,0,0.0
0.675,0.002128806368910263,77.5,0,100,3.0,0,0.0
0.68,0.009309664818487698,77.5,0,100,3.0,0,0.0
0.685,0.03503263543368747,77.5,0,100,3.0,0,0.0
0.69,0.10606267793605692,77.5,0,100,3.0,0,0.0
0.695,0.25734927343160535,77.5,0,100,3.0,0,0.0
0.7,0.5003202479539708,77.5,0,100,3.0,0,0.0
0.705,0.7793067891790435,77.5,0,100,3.0,0,0.0
0.71,0.9720477407234077,77.5000029632167,1,100,3.0,0,5.867755844249559e-08
0.715,0.967267334488097,77.50000682291645,0,100,3.0,0,1.3510725637496592e-07
0.72,0.7505869905515209,77.50001756024393,0,100,3.0,0,3.4772760262841426e-07
0.725,0.4028369574773956,77.50005342195217,0,100,3.0,0,1.0578604390880938e-06
0.73,0.04553881263121314,77.50018840392086,0,100,3.0,0,3.7307707100803828e-06
0.735,-0.189138810908105,77.50070967490346,0,100,3.0,0,1.4052968385378857e-05
0.74,-0.22868072635956738,77.50264736798302,0,100,3.0,0,5.242312837655692e-05
0.745,-0.14104670682394166,77.50936430658398,0,100,3.0,0,0.00018543181354407307
0.75,-0.051158381651102834,77.53076934741445,0,100,3.0,0,0.0006092940082069027
0.755,-0.008206426846427752,77.59306177469023,0,100,3.0,0,0.0018428074196084581
0.76,0.005350271385530505,77.75802676786665,0,100,3.0,0,0.005109440947854515
0.765,0.01084668799215426,78.15461689924777,0,100,3.0,0,0.012962710876193472
0.77,0.016256859896386415,79.01828265856908,0,100,3.0,0,0.030065003139981734
0.775,0.02345021205790711,80.71788402888605,0,100,3.0,0,0.06372047581952568
0.78,0.0330621597308209,83.73079902637203,0,100,3.0,0,0.12338215893805991
0.785,0.04559141319943196,88.52107119930265,0,100,3.0,0,0.2182390336495575
0.79,0.06149084917446989,95.30690819667116,0,100,3.0,0,0.3526120434984388
0.795,0.08111733445924295,103.7805137153438,0,100,3.0,0,0.5204062121850258
0.8,0.1046628598272375,112.93009024750643,0,100,3.0,0,0.7015859454951768
0.805,0.1320831047748631,121.13525691684497,0,100,3.0,0,0.8640644934028706
0.81,0.16303381314489318,126.6019505798869,0,100,3.0,0,0.9723158530670674
0.815,0.19682662652900276,128.0,0,100,3.0,0,1.0
0.82,0.23241585813229,124.99911850064926,0,100,3.0,0,0.9405766039732527
0.825,0.26842527782774417,118.41082419885984,0,100,3.0,0,0.8101153306704919
0.83,0.30321927900592993,109.85508918464754,0,100,3.0,0,0.6406948353395553
0.835,0.3350163137995362,101.13977923732722,0,100,3.0,0,0.4681144403431132
0.84,0.3620352400956416,93.67740219718712,0,100,3.0,0,0.3203445979641014
0.845,0.3826586036805073,88.18807433450232,0,100,3.0,0,0.21164503632677856
0.85,0.39559233134833227,84.73520644729146,0,100,3.0,0,0.14327141479785072
0.855,0.4,82.96744827784511,0,100,3.0,0,0.1082663025315863
0.86,0.39559233134833227,82.39155633242602,0,100,3.0,0,0.09686250163219842
0.865,0.3826586036805073,82.55988591100417,0,100,3.0,0,0.10019576061394402
0.87,0.3620352400956416,83.1463378415175,0,100,3.0,0,0.11180867012905926
0.875,0.3350163137995362,83.94360114320315,0,100,3.0,0,0.1275960622416466
0.88,0.3032192790059296,84.8277522116186,0,100,3.0,0,0.14510400419046737
0.885,0.26842527782774417,85.72195777553705,0,100,3.0,0,0.1628110450601396
0.89,0.23241585813229,86.57191545419312,0,100,3.0,0,0.17964189018204194
0.895,0.19682662652900276,87.33344446152883,0,100,3.0,0,0.19472167250552133
0.9,0.16303381314489318,87.96825352116706,0,100,3.0,0,0.20729214893400114
0.905,0.13208310477486307,88.44394081009204,0,100,3.0,0,0.21671169920974345
0.91,0.10466285982723562,88.73561558960037,0,100,3.0,0,0.22248743741782914
0.915,0.08111733445917907,88.82770800558913,0,100,3.0,0,0.22431104961562634
0.92,0.06149084917398798,88.71524935893723,0,100,3.0,0,0.22208414572152926
0.925,0.04559141333598128,88.40429210697437,0,100,3.0,0,0.21592657637573004
0.93,0.03306217087257399,87.9113648010271,0,100,3.0,0,0.2061656396242991
0.935,0.02345067901074276,87.26201550499496,0,100,3.0,0,0.19330723772267253
0.94,0.016268788896435526,86.48861883511692,0,100,3.0,0,0.17799245218053314
0.945,0.011039026374860051,85.62770772453368,0,100,3.0,0,0.1609447074165085
0.95,0.007326255555493689,84.71713506982503,0,100,3.0,0,0.14291356573910957
0.955,0.0047556414315231815,83.79336949573046,0,100,3.0,0,0.12462117813327643
0.96,0.0030193390635632803,82.88918720853592,0,100,3.0,0,0.10671657838684981
0.965,0.001874953127946523,82.03194835275565,0,100,3.0,0,0.08974155153971582
0.97,0.0011387927410965778,81.24255572514794,0,100,3.0,0,0.0741100143593651
0.975,0.0006765107634274089,80.53510165291061,0,100,3.0,0,0.06010102282991311
0.98,0.00039307957404427924,79.91712911156813,0,100,3.0,0,0.047863942803329305
0.985,0.00022338910511776318,79.39037558157813,0,100,3.0,0,0.03743317983323023
0.99,0.00012417073320013317,78.95183743607636,0,100,3.0,0,0.028749256159927926
0.995,6.750753468904987e-05,78.59498841544391,0,100,3.0,0,0.021682938919681337
1.0,3.5897234866245036e-05,78.31100344773567,0,100,3.0,0,0.016059474212587566
1.005,1.8670050400879738e-05,78.0898716426395,0,100,3.0,0,0.011680626586920675
1.01,9.497421874143672e-06,77.92132184618897,0,100,3.0,0,0.008343006855227205
1.015,4.725434140340885e-06,77.79552354015783,0,100,3.0,0,0.005851951290254073
1.02,2.299606063738814e-06,77.70355971062563,0,100,3.0,0,0.00403088535892329
1.025,1.0945633976635486e-06,77.63769342762592,0,100,3.0,0,0.0027266025272459243
1.03,5.095703414287532e-07,77.59146527391141,0,100,3.0,0,0.001811193542800205
1.035,2.3202944964797243e-07,77.55966517374333,0,100,3.0,0,0.0011814885889767574
1.04,1.0333746954038608e-07,77.53822145556238,0,100,3.0,0,0.0007568605061857226
1.045,4.501406988770349e-08,77.52404446821832,0,100,3.0,0,0.00047612808353110806
1.05,0.0,77.51485404628625,0,100,3.0,0,0.0002941395304207059
1.055,0.0,77.50901147768072,0,100,3.0,0,0.00017844510258842634
1.06,0.0,77.5053686969771,0,100,3.0,0,0.00010631083122971762
1.065,0.0,77.5031409672966,0,100,3.0,0,6.2197372209942e-05
1.07,0.0,77.50180459429171,0,100,3.0,0,3.57345404299534e-05
1.075,0.0,77.50101816317644,0,100,3.0,0,2.016164705821103e-05
1.08,0.0,77.50056412693317,0,100,3.0,0,1.1170830359810455e-05
1.085,0.0,77.50030694313577,0,100,3.0,0,6.078081896410565e-06
1.09,0.0,77.50016400634816,0,100,3.0,0,3.2476504585621016e-06
1.095,0.0,77.5000860567684,0,100,3.0,0,1.7040944236790586e-06
1.1,0.001684486749771458,77.50004434361045,0,100,3.0,0,8.780912961324562e-07
1.105,0.00456624331333666,77.50002243875255,0,100,3.0,0,4.443317337036476e-07
1.11,0.011079731271581421,77.50001115033744,0,100,3.0,0,2.207987612415885e-07
1.115,0.024064571490409,77.50000544125342,0,100,3.0,0,1.0774759249837342e-07
1.12,0.046784906529573234,77.50000260754337,0,100,3.0,0,5.163452208375254e-08
1.125,0.08141644351188804,77.50000122711641,0,100,3.0,0,2.42993349270409e-08
1.13,0.12682276464025305,77.50000056710259,0,100,3.0,0,1.1229754235419834e-08
1.135,0.1768320708657512,77.50000025737073,0,100,3.0,0,5.096450082635441e-09
1.14,0.22070063230473494,77.50000011470392,0,100,3.0,0,2.271364808008668e-09
1.145,0.24656126505113576,77.50000005020178,0,100,3.0,0,9.940945932216307e-10
1.15,0.24656126505724016,77.50000002157653,0,100,3.0,0,4.2725792980599007e-10
1.155,0.220700632329898,77.5000000091068,0,100,3.0,0,1.8033265090221308e-10
1.16,0.17683207093748562,77.5000000037746,0,100,3.0,0,7.474459335294387e-11
1.165,0.12682276483597799,77.50000000153638,0,100,3.0,0,3.042332942226998e-11
1.17,0.08141644409447898,77.50000000061411,0,100,3.0,0,1.2160551993321572e-11
1.175,0.04678490952598309,77.50000000024106,0,100,3.0,0,4.7734401689895364e-12
1.18,0.024064605020532023,77.50000000009292,0,100,3.0,0,1.840094633320909e-12
1.185,0.011080171739334697,77.50000000003517,0,100,3.0,0,6.964725825767319e-13
1.19,0.004571212771509492,77.50000000001307,0,100,3.0,0,2.588908185739771e-13
1.195,0.0017299316936037438,77.50000000000477,0,100,3.0,0,9.455142939223511e-14
1.2,0.0008899431850697582,77.5000000000017,0,100,3.0,0,3.376836764008397e-14
1.205,0.002128806368910263,77.5000000000006,0,100,3.0,1,1.1818928674029389e-14
1.21,0.009309664818487698,77.50000000000021,0,100,3.0,1,4.221045955010496e-15
1.215,0.03503263543368747,77.50000000000007,0,100,3.0,1,1.4070153183368321e-15
1.22,0.10606267793605692,77.50000000000003,0,100,3.0,1,5.628061273347328e-16
1.225,0.25734927343160535,77.5,0,100,3.0,1,0.0
1.23,0.5003202479539708,77.5,0,100,3.0,1,0.0
1.235,0.7793067891790435,77.5,0,100,3.0,1,0.0
1.24,0.9720477407234077,77.50000297262514,1,100,3.0,1,5.8863864154827213e-08
1.245,0.967267334488097,77.50000602692357,0,100,3.0,1,1.193450212231075e-07
1.25,0.7505869905515209,77.50001314884915,0,100,3.0,1,2.603732504761829e-07
1.255,0.4028369574773956,77.50003218277465,0,100,3.0,1,6.372826662597374e-07
1.26,0.04553881263121314,77.5000891336331,0,100,3.0,1,1.7650224375563202e-06
1.265,-0.189138810908105,77.5002690214767,0,100,3.0,1,5.32715795439925e-06
1.27,-0.22868072635956738,77.50083732265789,0,100,3.0,1,1.6580646690828313e-05
1.275,-0.14104670682394166,77.50257317183726,0,100,3.0,1,5.09538977674351e-05
1.28,-0.051158381651102834,77.5076082097914,0,100,3.0,1,0.00015065761963167613
1.285,-0.008206426846427752,77.52135258747315,0,100,3.0,1,0.0004228235143197217
1.29,0.005350271385530505,77.55649700924465,0,100,3.0,1,0.0011187526583099309
1.295,0.01084668799215426,77.64045440057028,0,100,3.0,1,0.0027812752588173757
1.3,0.016256859896386415,77.82751617390053,0,100,3.0,1,0.006485468790109587
1.305,0.02345021205790711,78.21569569973141,0,100,3.0,1,0.014172192073889358
1.31,0.0330621597308209,78.96491975294279,0,100,3.0,1,0.029008311939461205
1.315,0.04559141319943196,80.30785299502509,0,100,3.0,1,0.05560104940643736
1.32,0.06149084917446989,82.53901529227541,0,100,3.0,1,0.0997824810351566
1.325,0.08111733445924295,85.96626012174221,0,100,3.0,1,0.16764871528202394
1.33,0.1046628598272375,90.81658192531896,0,100,3.0,1,0.2636946915904744
1.335,0.1320831047748631,97.10833980159956,0,100,3.0,1,0.38828395646731795
1.34,0.16303381314489318,104.52938760793602,0,100,3.0,1,0.5352353981769508
1.345,0.19682662652900276,112.38094101245923,0,100,3.0,1,0.6907117032170145
1.35,0.23241585813229,119.64223165483207,0,100,3.0,1,0.834499636729348
1.355,0.26842527782774417,125.1719099748606,0,100,3.0,1,0.9439982173239723
1.36,0.30321927900592993,128.0,0,100,3.0,1,1.0
1.365,0.3350163137995362,127.6101393237791,0,100,3.0,1,0.992279986609487
1.37,0.3620352400956416,124.10010403781507,0,100,3.0,1,0.9227743373824767
1.375,0.3826586036805073,118.15277378027952,0,100,3.0,1,0.8050054213916736
1.38,0.39559233134833227,110.8299379581053,0,100,3.0,1,0.6599987714476298
1.385,0.4,103.27489006078626,0,100,3.0,1,0.510393862589827
1.39,0.39559233134833227,96.43814350154825,0,100,3.0,1,0.3750127426049159
1.395,0.3826586036805073,90.9137835998359,0,100,3.0,1,0.26561947722447316
1.4,0.3620352400956416,86.9136909261355,0,100,3.0,1,0.1864097213096139
1.405,0.3350163137995362,84.34894125219122,0,100,3.0,1,0.13562259905329158
1.41,0.3032192790059296,82.95851223358169,0,100,3.0,1,0.10808935116003339
1.415,0.26842527782774417,82.42961246934831,0,100,3.0,1,0.09761608850194681
1.42,0.23241585813229,82.47825904809713,0,100,3.0,1,0.09857938709103227
1.425,0.19682662652900276,82.88510695734854,0,100,3.0,1,0.10663578133363447
1.43,0.16303381314489318,83.49817142324218,0,100,3.0,1,0.11877567174736997
1.435,0.13208310477486307,84.218703403949,0,100,3.0,1,0.1330436317613662
1.44,0.10466285982723562,84.98313005843968,0,100,3.0,1,0.14818079323642938
1.445,0.08111733445917907,85.74806308660983,0,100,3.0,1,0.163327981913066
1.45,0.06149084917398798,86.48049615879853,0,100,3.0,1,0.17783160710492138
1.455,0.04559141333598128,87.1526196872008,0,100,3.0,1,0.19114098390496628
1.46,0.03306217087257399,87.73979816955085,0,100,3.0,1,0.20276828058516538
1.465,0.02345067901074276,88.22034613356011,0,100,3.0,1,0.2122840818526755
1.47,0.016268788896435526,88.57613991279077,0,100,3.0,1,0.2193295032235795
1.475,0.011039026374860051,88.79347868239333,0,100,3.0,1,0.22363324123551145
1.48,0.007326255555493689,88.86386439984123,0,100,3.0,1,0.2250270178186383
1.485,0.0047556414315231815,88.78452238775425,0,100,3.0,1,0.22345588886642082
1.49,0.0030193390635632803,88.55857365850133,0,100,3.0,1,0.21898165660398675
1.495,0.001874953127946523,88.19482866332193,0,100,3.0,1,0.2117787854123154
1.5,0.0011387927410965778,87.70721657209255,0,100,3.0,1,0.2021231004374762
1.505,0.0006765107634274089,87.11390019357708,0,100,3.0,1,0.1903742612589521
1.51,0.00039307957404427924,86.43615452975533,0,100,3.0,1,0.17695355504465995
1.515,0.00022338910511776318,85.6971052748557,0,100,3.0,1,0.16231891633377626
1.52,0.00012417073320013317,84.92043109401514,0,100,3.0,1,0.14693922958445826
1.525,6.750753468904987e-05,84.12913009206147,0,100,3.0,1,0.13126990281309847
1.53,3.5897234866245036e-05,83.3444376315581,0,100,3.0,1,0.11573143824867513
1.535,1.8670050400879738e-05,82.58496182074326,0,100,3.0,1,0.10069231328204475
1.54,9.497421874143672e-06,81.86607755524824,0,100,3.0,1,0.08645698129204434
1.545,4.725434140340885e-06,81.1995932352933,0,100,3.0,1,0.07325927198600607
1.55,2.299606063738814e-06,80.59367928154045,0,100,3.0,1,0.061260975872088036
1.555,1.0945633976635486e-06,80.05302685084085,0,100,3.0,1,0.05055498714536339
1.56,5.095703414287532e-07,79.5791903812813,0,100,3.0,1,0.041172086758045415
1.565,2.3202944964797243e-07,79.17105949996414,0,100,3.0,1,0.03309028712800286
1.57,1.0333746954038608e-07,78.82540422739977,0,100,3.0,1,0.026245628265342033
1.575,4.501406988770349e-08,78.53744138964515,0,100,3.0,1,0.02054339385435946
1.58,0.0,78.30137828670698,0,100,3.0,1,0.01586887696449461
1.585,0.0,78.11090032048983,0,100,3.0,1,0.012097036049303622
1.59,0.0,77.95958084176635,0,100,3.0,1,0.009100610728046602
1.595,0.0,77.84120254425764,0,100,3.0,1,0.006756486024903777
1.6,0.0,77.74998928072644,0,100,3.0,1,0.004950282786662154
1.605,0.0,77.68075457337353,0,100,3.0,1,0.0035792984826442343
1.61,0.0,77.62897810246339,0,100,3.0,1,0.0025540218309582667
1.615,0.0,77.59082417329567,0,100,3.0,1,0.0017984984811024256
1.62,0.0,77.56311690651798,0,100,3.0,1,0.0012498397330292315
1.625,0.0,77.54328612787634,0,100,3.0,1,0.0008571510470562883
1.63,0.0,77.52929615012752,0,100,3.0,1,0.0005801217847033963
1.635,0.0,77.51956731102686,0,100,3.0,1,0.00038747150548240573
1.64,0.0,77.51289764815891,0,100,3.0,1,0.00025539897344380267
1.645,0.0,77.5083897435128,0,100,3.0,1,0.00016613353490680706
1.65,0.0,77.5053857429786,0,100,3.0,1,0.00010664837581393074
1.655,0.0,77.50341193968492,0,100,3.0,1,6.756316207769271e-05
1.66,0.0,77.50213312275217,0,100,3.0,1,4.224005449841435e-05
1.665,0.0,77.50131610073626,0,100,3.0,1,2.606140071804367e-05
1.67,0.0,77.5008013480742,0,100,3.0,1,1.586827869713002e-05
1.675,0.0,77.50048151746557,0,100,3.0,1,9.53499931828185e-06
1.68,0.0,77.5002855365269,0,100,3.0,1,5.654188651540086e-06
1.685,0.0,77.50016709755003,0,100,3.0,1,3.3088623768948633e-06
1.69,0.0,77.50009650221315,0,100,3.0,1,1.910934913937153e-06
1.695,0.0,77.50005500007046,0,100,3.0,1,1.0891103061517737e-06
1.7,0.0,77.50003093484894,0,100,3.0,1,6.125712660728949e-07
1.705,0.0,77.50001717083974,0,100,3.0,1,3.400166285205565e-07
1.71,0.0,77.5000094057591,0,100,3.0,1,1.862526554723805e-07
1.715,0.0,77.50000508457842,0,100,3.0,1,1.0068472116328471e-07
1.72,0.001684486749771458,77.50000271253174,0,100,3.0,1,5.371349977782068e-08
1.725,0.00456624331333666,77.50000142808314,0,100,3.0,1,2.8278874019138535e-08
1.73,0.011079731271581421,77.50000074197783,0,100,3.0,1,1.4692630267547591e-08
1.735,0.024064571490409,77.50000038044087,0,100,3.0,1,7.533482502286362e-09
1.74,0.046784906529573234,77.50000019250507,0,100,3.0,1,3.811981577479792e-09
1.745,0.08141644351188804,77.50000009612934,0,100,3.0,1,1.9035513055809637e-09
1.75,0.12682276464025305,77.50000004737274,0,100,3.0,1,9.38073996918986e-10
1.755,0.1768320708657512,77.5000000230388,0,100,3.0,1,4.562137422512348e-10
1.76,0.22070063230473494,77.50000001105732,0,100,3.0,1,2.1895690980894113e-10
1.765,0.24656126505113576,77.5000000052372,0,100,3.0,1,1.0370687806865288e-10
1.77,0.24656126505724016,77.50000000244798,0,100,3.0,1,4.8474773150404206e-11
1.775,0.220700632329898,77.50000000112921,0,100,3.0,1,2.2360568842072603e-11
1.78,0.17683207093748562,77.50000000051404,0,100,3.0,1,1.0178911618975978e-11
1.785,0.12682276483597799,77.50000000023093,0,100,3.0,1,4.5727997845947045e-12
1.79,0.08141644409447898,77.50000000010237,0,100,3.0,1,2.0272276706597077e-12
1.795,0.04678490952598309,77.50000000004479,0,100,3.0,1,8.869824566795389e-13
1.8,0.024064605020532023,77.50000000001934,0,100,3.0,1,3.829895696512857e-13
1.805,0.011080171739334697,77.50000000000824,0,100,3.0,1,1.632137769270725e-13
1.81,0.004571212771509492,77.50000000000347,0,100,3.0,1,6.86623475348374e-14
1.815,0.0017299316936037438,77.50000000000144,0,100,3.0,1,2.842170943040401e-14
1.82,0.0008899431850697582,77.50000000000058,0,100,3.0,1,1.1537525610362024e-14
1.825,0.002128806368910263,77.50000000000024,0,100,3.0,1,4.783852082345229e-15
1.83,0.009309664818487698,77.5000000000001,0,100,3.0,1,1.969821445671565e-15
1.835,0.03503263543368747,77.50000000000004,0,100,3.0,1,8.442091910020992e-16
1.84,0.10606267793605692,77.50000000000001,0,100,3.0,1,2.814030636673664e-16
1.845,0.25734927343160535,77.5,0,100,3.0,1,0.0
1.85,0.5003202479539708,77.5,0,100,3.0,1,0.0
1.855,0.7793067891790435,77.5,0,100,3.0,1,0.0
1.86,0.9720477407234077,77.50000296527844,1,100,3.0,1,5.871838496177858e-08
1.865,0.967267334488097,77.50000700645296,0,100,3.0,1,1.3874164279054685e-07
1.87,0.7505869905515209,77.50001866949647,0,100,3.0,1,3.696929993994033e-07
1.875,0.4028369574773956,77.50005945083912,0,100,3.0,1,1.1772443389584775e-06
1.88,0.04553881263121314,77.50021999882574,0,100,3.0,1,4.356412390923579e-06
1.885,-0.189138810908105,77.50086359407689,0,100,3.0,1,1.710087280969782e-05
1.89,-0.22868072635956738,77.50332633869756,0,100,3.0,1,6.586809302102845e-05
1.895,-0.14104670682394166,77.51204875046042,0,100,3.0,1,0.00023858911802817332
1.9,-0.051158381651102834,77.54025705190755,0,100,3.0,1,0.0007971693447038686
1.905,-0.008206426846427752,77.62303509149118,0,100,3.0,1,0.002436338445369808
1.91,0.005350271385530505,77.84269814607144,0,100,3.0,1,0.006786101902404783
1.915,0.01084668799215426,78.36850162670893,0,100,3.0,1,0.017198052014038293
1.92,0.016256859896386415,79.50109120486341,0,100,3.0,1,0.039625568413136913
1.925,0.02345021205790711,81.6902018193245,0,100,3.0,1,0.0829742934519703
1.93,0.0330621597308209,85.47245634088574,0,100,3.0,1,0.15787042259179687
1.935,0.04559141319943196,91.28156349234476,0,100,3.0,1,0.27290224737316354
1.94,0.06149084917446989,99.14406815206804,0,100,3.0,1,0.42859540895184245
1.945,0.08111733445924295,108.382822197554,0,100,3.0,1,0.6115410336149308
1.95,0.1046628598272375,117.53654143486888,0,100,3.0,1,0.7928028006904728
1.955,0.1320831047748631,124.66411210492427,0,100,3.0,1,0.9339428139588964
1.96,0.16303381314489318,128.0,0,100,3.0,1,1.0
1.965,0.19682662652900276,126.67170864118145,0,100,3.0,1,0.9736972008154743
1.97,0.23241585813229,121.08520651026575,0,100,3.0,1,0.8630733962428861
1.975,0.26842527782774417,112.74898901331807,0,100,3.0,1,0.6979997824419419
1.98,0.30321927900592993,103.64243283024122,0,100,3.0,1,0.5176719372324994
1.985,0.3350163137995362,95.4897324554285,0,100,3.0,1,0.3562323258500692
1.99,0.3620352400956416,89.29811604458322,0,100,3.0,1,0.23362606028877672
1.995,0.3826586036805073,85.29850850715897,0,100,3.0,1,0.15442591103285092
2.0,0.39559233134833227,83.18253963898181,0,100,3.0,1,0.11252553740558036
2.005,0.4,82.42347603714165,0,100,3.0,1,0.09749457499290404
2.01,0.39559233134833227,82.51675000537965,0,100,3.0,1,0.09934158426494354
2.015,0.3826586036805073,83.08767163801866,0,100,3.0,1,0.11064696312908243
2.02,0.3620352400956416,83.8978205453552,0,100,3.0,1,0.12668951574960796
2.025,0.3350163137995362,84.80637987492258,0,100,3.0,1,0.14468078960242742
2.03,0.3032192790059296,85.72767841740519,0,100,3.0,1,0.16292432509713242
2.035,0.26842527782774417,86.6021045588055,0,100,3.0,1,0.18023969423377215
2.04,0.23241585813229,87.38151142982161,0,100,3.0,1,0.19567349365983394
2.045,0.19682662652900276,88.02436528258878,0,100,3.0,1,0.20840327292255
2.05,0.16303381314489318,88.49584381987314,0,100,3.0,1,0.2177394815816464
2.055,0.13208310477486307,88.76975248418826,0,100,3.0,1,0.2231634155284804
2.06,0.10466285982723562,88.83057420039356,0,100,3.0,1,0.22436780594838726
2.065,0.08111733445917907,88.6748296681961,0,100,3.0,1,0.2212837558058633
2.07,0.06149084917398798,88.31138438289861,0,100,3.0,1,0.2140868194633388
2.075,0.04559141333598128,87.76060809277041,0,100,3.0,1,0.2031803582726814
2.08,0.03306217087257399,87.05248326941906,0,100,3.0,1,0.1891580845429516
2.085,0.02345067901074276,86.22390375393708,0,100,3.0,1,0.17275056938489267
2.09,0.016268788896435526,85.31550129752104,0,100,3.0,1,0.15476240193110966
2.095,0.011039026374860051,84.36837830081043,0,100,3.0,1,0.1360074911051571
2.1,0.007326255555493689,83.42110782121381,0,100,3.0,1,0.11724965982601603
2.105,0.0047556414315231815,82.50729439299111,0,100,3.0,1,0.0991543444156656
2.11,0.0030193390635632803,81.65388697691441,0,100,3.0,1,0.08225518766167143
2.115,0.001874953127946523,80.8803184807592,0,100,3.0,1,0.06693699961899406
2.12,0.0011387927410965778,80.19843497970795,0,100,3.0,1,0.05343435603382088
2.125,0.0006765107634274089,79.61308851802234,0,100,3.0,1,0.04184333699054133
2.13,0.00039307957404427924,79.12321039949006,0,100,3.0,1,0.032142780187922035
2.135,0.00022338910511776318,78.7231601872771,0,100,3.0,1,0.024220993807467374
2.14,0.00012417073320013317,78.40415575531765,0,100,3.0,1,0.017904074362725664
2.145,6.750753468904987e-05,78.15562357182725,0,100,3.0,1,0.012982644986678197
2.15,3.5897234866245036e-05,77.96635567064843,0,100,3.0,1,0.00923476575541437
2.155,1.8670050400879738e-05,77.82541034731804,0,100,3.0,1,0.006443769253822589
2.16,9.497421874143672e-06,77.72273929920736,0,100,3.0,1,0.004410679192224986
2.165,4.725434140340885e-06,77.64955940664728,0,100,3.0,1,0.0029615724088571235
2.17,2.299606063738814e-06,77.59851038402637,0,100,3.0,1,0.0019507006737894857
2.175,1.0945633976635486e-06,77.56365048024176,0,100,3.0,1,0.0012604055493418197
2.18,5.095703414287532e-07,77.54034342370706,0,100,3.0,1,0.0007988796773674656
2.185,2.3202944964797243e-07,77.52508390874634,0,100,3.0,1,0.0004967110642839413
2.19,1.0333746954038608e-07,77.51529921215113,0,100,3.0,1,0.0003029546960620715
2.195,4.501406988770349e-08,77.50915365027589,0,100,3.0,1,0.00018126040150279847
2.2,0.0,77.50537243238824,0,100,3.0,1,0.00010638479976716896
2.205,0.0,77.5030931358569,0,100,3.0,1,6.12502149881313e-05
2.21,0.0,77.50174694175949,0,100,3.0,1,3.4592906128562676e-05
2.215,0.0,77.50096785266774,0,100,3.0,1,1.9165399361225913e-05
2.22,0.0,77.50052600693556,0,100,3.0,1,1.0415978921952442e-05
2.225,0.0,77.50028043039491,0,100,3.0,1,5.553077126912943e-06
2.23,0.0,77.50014665946307,0,100,3.0,1,2.904147783562558e-06
2.235,0.001684486749771458,77.5000752396024,0,100,3.0,1,1.4898931167431104e-06
2.24,0.00456624331333666,77.50003786467967,0,100,3.0,1,7.497956370107294e-07
2.245,0.011079731271581421,77.500018692762,0,100,3.0,1,3.7015370292753533e-07
2.25,0.024064571490409,77.50000905240674,0,100,3.0,1,1.7925557898760786e-07
2.255,0.046784906529573234,77.50000430037211,0,100,3.0,1,8.51558834008504e-08
2.26,0.08141644351188804,77.5000020040078,0,100,3.0,1,3.968332271367694e-08
2.265,0.12682276464025305,77.50000091610272,0,100,3.0,1,1.814064793651065e-08
2.27,0.1768320708657512,77.50000041080936,0,100,3.0,1,8.134838879522078e-09
2.275,0.22070063230473494,77.50000018071238,0,100,3.0,1,3.578462903335256e-09
2.28,0.24656126505113576,77.50000007798064,0,100,3.0,1,1.5441711715683064e-09
2.285,0.24656126505724016,77.50000003300937,0,100,3.0,1,6.536509155723414e-10
2.29,0.220700632329898,77.5000000137069,0,100,3.0,1,2.714236668205306e-10
2.295,0.17683207093748562,77.50000000558332,0,100,3.0,1,1.1056073108733526e-10
2.3,0.12682276483597799,77.50000000223099,0,100,3.0,1,4.4178029771267186e-11
2.305,0.08141644409447898,77.50000000087448,0,100,3.0,1,1.731641892583506e-11
2.31,0.04678490952598309,77.50000000033624,0,100,3.0,1,6.658277889433557e-12
2.315,0.024064605020532023,77.50000000012683,0,100,3.0,1,2.511522343231245e-12
2.32,0.011080171739334697,77.50000000004692,0,100,3.0,1,9.29192916229644e-13
2.325,0.004571212771509492,77.50000000001704,0,100,3.0,1,3.3740227333717235e-13
2.33,0.0017299316936037438,77.50000000000607,0,100,3.0,1,1.2015910818596546e-13
2.335,0.0008899431850697582,77.50000000000212,0,100,3.0,1,4.1929056486437595e-14
2.34,0.002128806368910263,77.50000000000072,0,100,3.0,1,1.4351556247035687e-14
2.345,0.009309664818487698,77.50000000000024,0,100,3.0,1,4.783852082345229e-15
2.35,0.03503263543368747,77.50000000000009,0,100,3.0,1,1.6884183820041984e-15
2.355,0.10606267793605692,77.50000000000003,0,100,3.0,1,5.628061273347328e-16
2.36,0.25734927343160535,77.50000000000001,0,100,3.0,1,2.814030636673664e-16
2.365,0.5003202479539708,77.5,0,100,3.0,1,0.0
2.37,0.7793067891790435,77.5,0,100,3.0,1,0.0
2.375,0.9720477407234077,77.50000297262514,1,100,3.0,1,5.8863864154827213e-08
2.38,0.967267334488097,77.50000602692357,0,100,3.0,1,1.193450212231075e-07
2.385,0.7505869905515209,77.50001314884915,0,100,3.0,1,2.603732504761829e-07
2.39,0.4028369574773956,77.50003218277465,0,100,3.0,1,6.372826662597374e-07
2.395,0.04553881263121314,77.5000891336331,0,100,3.0,1,1.7650224375563202e-06
2.4,-0.189138810908105,77.5002690214767,0,100,3.0,1,5.32715795439925e-06
2.405,-0.22868072635956738,77.50083732265789,0,100,3.0,1,1.6580646690828313e-05
2.41,-0.14104670682394166,77.50257317183726,0,100,3.0,2,5.09538977674351e-05
2.415,-0.051158381651102834,77.5076082097914,0,100,3.0,2,0.00015065761963167613
2.42,-0.008206426846427752,77.52135258747315,0,100,3.0,2,0.0004228235143197217
2.425,0.005350271385530505,77.55649700924465,0,100,3.0,2,0.0011187526583099309
2.43,0.01084668799215426,77.64045440057028,0,100,3.0,2,0.0027812752588173757
2.435,0.016256859896386415,77.82751617390053,0,100,3.0,2,0.006485468790109587
2.44,0.02345021205790711,78.21569569973141,0,100,3.0,2,0.014172192073889358
2.445,0.0330621597308209,78.96491975294279,0,100,3.0,2,0.029008311939461205
2.45,0.04559141319943196,80.30785299502509,0,100,3.0,2,0.05560104940643736
2.455,0.06149084917446989,82.53901529227541,0,100,3.0,2,0.0997824810351566
2.46,0.08111733445924295,85.96626012174221,0,100,3.0,2,0.16764871528202394
2.465,0.1046628598272375,90.81658192531896,0,100,3.0,2,0.2636946915904744
2.47,0.1320831047748631,97.10833980159956,0,100,3.0,2,0.38828395646731795
2.475,0.16303381314489318,104.52938760793602,0,100,3.0,2,0.5352353981769508
2.48,0.19682662652900276,112.38094101245923,0,100,3.0,2,0.6907117032170145
2.485,0.23241585813229,119.64223165483207,0,100,3.0,2,0.834499636729348
2.49,0.26842527782774417,125.1719099748606,0,100,3.0,2,0.9439982173239723
2.495,0.30321927900592993,128.0,0,100,3.0,2,1.0
2.5,0.3350163137995362,127.6101393237791,0,100,3.0,2,0.992279986609487
2.505,0.3620352400956416,124.10010403781507,0,100,3.0,2,0.9227743373824767
2.51,0.3826586036805073,118.15277378027952,0,100,3.0,2,0.8050054213916736
2.515,0.39559233134833227,110.8299379581053,0,100,3.0,2,0.6599987714476298
2.52,0.4,103.27489006078626,0,100,3.0,2,0.510393862589827
2.525,0.39559233134833227,96.43814350154825,0,100,3.0,2,0.3750127426049159
2.53,0.3826586036805073,90.9137835998359,0,100,3.0,2,0.26561947722447316
2.535,0.3620352400956416,86.9136909261355,0,100,3.0,2,0.1864097213096139
2.54,0.3350163137995362,84.34894125219122,0,100,3.0,2,0.13562259905329158
2.545,0.3032192790059296,82.95851223358169,0,100,3.0,2,0.10808935116003339
2.55,0.26842527782774417,82.42961246934831,0,100,3.0,2,0.09761608850194681
2.555,0.23241585813229,82.47825904809713,0,100,3.0,2,0.09857938709103227
2.56,0.19682662652900276,82.88510695734854,0,100,3.0,2,0.10663578133363447
2.565,0.16303381314489318,83.49817142324218,0,100,3.0,2,0.11877567174736997
2.57,0.13208310477486307,84.218703403949,0,100,3.0,2,0.1330436317613662
2.575,0.10466285982723562,84.98313005843968,0,100,3.0,2,0.14818079323642938
2.58,0.08111733445917907,85.74806308660983,0,100,3.0,2,0.163327981913066
2.585,0.06149084917398798,86.48049615879853,0,100,3.0,2,0.17783160710492138
2.59,0.04559141333598128,87.1526196872008,0,100,3.0,2,0.19114098390496628
2.595,0.03306217087257399,87.73979816955085,0,100,3.0,2,0.20276828058516538
2.6,0.02345067901074276,88.22034613356011,0,100,3.0,2,0.2122840818526755
2.605,0.016268788896435526,88.57613991279077,0,100,3.0,2,0.2193295032235795
2.61,0.011039026374860051,88.79347868239333,0,100,3.0,2,0.22363324123551145
2.615,0.007326255555493689,88.86386439984123,0,100,3.0,2,0.2250270178186383
2.62,0.0047556414315231815,88.78452238775425,0,100,3.0,2,0.22345588886642082
2.625,0.0030193390635632803,88.55857365850133,0,100,3.0,2,0.21898165660398675
2.63,0.001874953127946523,88.19482866332193,0,100,3.0,2,0.2117787854123154
2.635,0.0011387927410965778,87.70721657209255,0,100,3.0,2,0.2021231004374762
2.64,0.0006765107634274089,87.11390019357708,0,100,3.0,2,0.1903742612589521
2.645,0.00039307957404427924,86.43615452975533,0,100,3.0,2,0.17695355504465995
2.65,0.00022338910511776318,85.6971052748557,0,100,3.0,2,0.16231891633377626
2.655,0.00012417073320013317,84.92043109401514,0,100,3.0,2,0.14693922958445826
2.66,6.750753468904987e-05,84.12913009206147,0,100,3.0,2,0.13126990281309847
2.665,3.5897234866245036e-05,83.3444376315581,0,100,3.0,2,0.11573143824867513
2.67,1.8670050400879738e-05,82.58496182074326,0,100,3.0,2,0.10069231328204475
2.675,9.497421874143672e-06,81.86607755524824,0,100,3.0,2,0.08645698129204434
2.68,4.725434140340885e-06,81.1995932352933,0,100,3.0,2,0.07325927198600607
2.685,2.299606063738814e-06,80.59367928154045,0,100,3.0,2,0.061260975872088036
2.69,1.0945633976635486e-06,80.05302685084085,0,100,3.0,2,0.05055498714536339
2.695,5.095703414287532e-07,79.5791903812813,0,100,3.0,2,0.041172086758045415
2.7,2.3202944964797243e-07,79.17105949996414,0,100,3.0,2,0.03309028712800286
2.705,1.0333746954038608e-07,78.82540422739977,0,100,3.0,2,0.026245628265342033
2.71,4.501406988770349e-08,78.53744138964515,0,100,3.0,2,0.02054339385435946
2.715,0.0,78.30137828670698,0,100,3.0,2,0.01586887696449461
2.72,0.0,78.11090032048983,0,100,3.0,2,0.012097036049303622
2.725,0.0,77.95958084176635,0,100,3.0,2,0.009100610728046602
2.73,0.0,77.84120254425764,0,100,3.0,2,0.006756486024903777
2.735,0.0,77.74998928072644,0,100,3.0,2,0.004950282786662154
2.74,0.0,77.68075457337353,0,100,3.0,2,0.0035792984826442343
2.745,0.0,77.62897810246339,0,100,3.0,2,0.0025540218309582667
2.75,0.0,77.59082417329567,0,100,3.0,2,0.0017984984811024256
2.755,0.0,77.56311690651798,0,100,3.0,2,0.0012498397330292315
2.76,0.0,77.54328612787634,0,100,3.0,2,0.0008571510470562883
2.765,0.0,77.52929615012752,0,100,3.0,2,0.0005801217847033963
2.77,0.0,77.51956731102686,0,100,3.0,2,0.00038747150548240573
2.775,0.0,77.51289764815891,0,100,3.0,2,0.00025539897344380267
2.78,0.0,77.5083897435128,0,100,3.0,2,0.00016613353490680706
2.785,0.0,77.5053857429786,0,100,3.0,2,0.00010664837581393074
2.79,0.0,77.50341193968492,0,100,3.0,2,6.756316207769271e-05
2.795,0.0,77.50213312275217,0,100,3.0,2,4.224005449841435e-05
2.8,0.0,77.50131610073626,0,100,3.0,2,2.606140071804367e-05
2.805,0.0,77.5008013480742,0,100,3.0,2,1.586827869713002e-05
2.81,0.0,77.50048151746557,0,100,3.0,2,9.53499931828185e-06
2.815,0.0,77.5002855365269,0,100,3.0,2,5.654188651540086e-06
2.82,0.0,77.50016709755003,0,100,3.0,2,3.3088623768948633e-06
2.825,0.0,77.50009650221315,0,100,3.0,2,1.910934913937153e-06
2.83,0.0,77.50005500007046,0,100,3.0,2,1.0891103061517737e-06
2.835,0.0,77.50003093484894,0,100,3.0,2,6.125712660728949e-07
2.84,0.0,77.50001717083974,0,100,3.0,2,3.400166285205565e-07
2.845,0.0,77.5000094057591,0,100,3.0,2,1.862526554723805e-07
2.85,0.0,77.50000508457842,0,100,3.0,2,1.0068472116328471e-07
2.855,0.0,77.50000271253174,0,100,3.0,2,5.371349977782068e-08
2.86,0.0,77.50000142808314,0,100,3.0,2,2.8278874019138535e-08
2.865,0.0,77.50000074197783,0,100,3.0,2,1.4692630267547591e-08
2.87,0.0,77.50000038044087,0,100,3.0,2,7.533482502286362e-09
2.875,0.0,77.50000019250507,0,100,3.0,2,3.811981577479792e-09
2.88,0.0,77.50000009612934,0,100,3.0,2,1.9035513055809637e-09
2.885,0.0,77.50000004737274,0,100,3.0,2,9.38073996918986e-10
2.89,0.0,77.5000000230388,0,100,3.0,2,4.562137422512348e-10
2.895,0.0,77.50000001105732,0,100,3.0,2,2.1895690980894113e-10
2.9,0.001684486749771458,77.5000000052372,0,100,3.0,2,1.0370687806865288e-10
2.905,0.00456624331333666,77.50000000244798,0,100,3.0,2,4.8474773150404206e-11
2.91,0.011079731271581421,77.50000000112921,0,100,3.0,2,2.2360568842072603e-11
2.915,0.024064571490409,77.50000000051404,0,100,3.0,2,1.0178911618975978e-11
2.92,0.046784906529573234,77.50000000023093,0,100,3.0,2,4.5727997845947045e-12
2.925,0.08141644351188804,77.50000000010237,0,100,3.0,2,2.0272276706597077e-12
2.93,0.12682276464025305,77.50000000004479,0,100,3.0,2,8.869824566795389e-13
2.935,0.1768320708657512,77.50000000001934,0,100,3.0,2,3.829895696512857e-13
2.94,0.22070063230473494,77.50000000000824,0,100,3.0,2,1.632137769270725e-13
2.945,0.24656126505113576,77.50000000000347,0,100,3.0,2,6.86623475348374e-14
2.95,0.24656126505724016,77.50000000000144,0,100,3.0,2,2.842170943040401e-14
2.955,0.220700632329898,77.50000000000058,0,100,3.0,2,1.1537525610362024e-14
2.96,0.17683207093748562,77.50000000000024,0,100,3.0,2,4.783852082345229e-15
2.965,0.12682276483597799,77.5000000000001,0,100,3.0,2,1.969821445671565e-15
2.97,0.08141644409447898,77.50000000000004,0,100,3.0,2,8.442091910020992e-16
2.975,0.04678490952598309,77.50000000000001,0,100,3.0,2,2.814030636673664e-16
2.98,0.024064605020532023,77.5,0,100,3.0,2,0.0
2.985,0.011080171739334697,77.5,0,100,3.0,2,0.0
2.99,0.004571212771509492,77.5,0,100,3.0,2,0.0
2.995,0.0017299316936037438,77.5000029754369,1,100,3.0,2,5.8919542565004434e-08
3.0,0.0008899431850697582,77.50000599695579,0,100,3.0,2,1.1875159984946108e-07
3.005,0.002128806368910263,77.50001298600604,0,100,3.0,2,2.571486344784194e-07
3.01,0.009309664818487698,77.50003147504462,0,100,3.0,2,6.232682103405516e-07
3.015,0.03503263543368747,77.50008619286392,0,100,3.0,2,1.7067893845188057e-06
3.02,0.10606267793605692,77.50025730044038,0,100,3.0,2,5.095058225374532e-06
3.025,0.25734927343160535,77.5007933249374,0,100,3.0,2,1.570940470108524e-05
3.03,0.5003202479539708,77.50241950076978,0,100,3.0,2,4.791090633219001e-05
3.035,0.7793067891790435,77.50711144306592,0,100,3.0,2,0.00014082065477076427
3.04,0.9720477407234077,77.51986871228921,0,100,3.0,2,0.0003934398473110814
3.045,0.967267334488097,77.55240190738294,0,100,3.0,2,0.0010376615323355166
3.05,0.7505869905515209,77.63001002590855,0,100,3.0,2,0.0025744559585850857
3.055,0.4028369574773956,77.80289200489227,0,100,3.0,2,0.0059978614830152755
3.06,0.04553881263121314,78.16202929152928,0,100,3.0,2,0.013109490921371869
3.065,-0.189138810908105,78.85684044003119,0,100,3.0,2,0.02686812752537014
3.07,-0.22868072635956738,80.10689364457848,0,100,3.0,2,0.05162165632828668
3.075,-0.14104670682394166,82.19454731190469,0,100,3.0,2,0.09296133290900367
3.08,-0.051158381651102834,85.42322629870154,0,100,3.0,2,0.15689557027131754
3.085,-0.008206426846427752,90.03220955939476,0,100,3.0,2,0.24816256553256946
3.09,0.005350271385530505,96.0763779834986,0,100,3.0,2,0.36784906898017034
3.095,0.01084668799215426,103.30485469372982,0,100,3.0,2,0.5109872216580162
3.1,0.016256859896386415,111.0935870574871,0,100,3.0,2,0.6652195456928138
3.105,0.02345021205790711,118.48679998058978,0,100,3.0,2,0.8116198015958372
3.11,0.0330621597308209,124.3703389478431,0,100,3.0,2,0.9281255237196653
3.115,0.04559141319943196,127.74334061454307,0,100,3.0,2,0.994917635931546
3.12,0.06149084917446989,128.0,0,100,3.0,2,1.0
3.125,0.08111733445924295,125.11330099463837,0,100,3.0,2,0.9428376434581854
3.13,0.1046628598272375,119.64481297500973,0,100,3.0,2,0.8345507519803906
3.135,0.1320831047748631,112.57637305393439,0,100,3.0,2,0.6945816446323642
3.14,0.16303381314489318,105.03340955907804,0,100,3.0,2,0.5452160308728324
3.145,0.19682662652900276,98.00714308426187,0,100,3.0,2,0.4060820412725123
3.15,0.23241585813229,92.16807227358933,0,100,3.0,2,0.29045687670473924
3.155,0.26842527782774417,87.8106625064421,0,100,3.0,2,0.20417153478103167
3.16,0.30321927900592993,84.91128351654942,0,100,3.0,2,0.14675808943662214
3.165,0.3350163137995362,83.24627791934817,0,100,3.0,2,0.11378768157125096
3.17,0.3620352400956416,82.51389380055394,0,100,3.0,2,0.09928502575354345
3.175,0.3826586036805073,82.42351586481769,0,100,3.0,2,0.0974953636597562
3.18,0.39559233134833227,82.74137651779043,0,100,3.0,2,0.10378963401565204
3.185,0.4,83.30063613325049,0,100,3.0,2,0.1148640818465444
3.19,0.39559233134833227,83.99100308268714,0,100,3.0,2,0.1285347145086563
3.195,0.3826586036805073,84.74151848915058,0,100,3.0,2,0.14339640572575404
3.2,0.3620352400956416,85.50482196555724,0,100,3.0,2,0.15851132605063845
3.205,0.3350163137995362,86.24611874995509,0,100,3.0,2,0.17319047029614035
3.21,0.3032192790059296,86.93688968311473,0,100,3.0,2,0.1868691026359352
3.215,0.26842527782774417,87.552095598575,0,100,3.0,2,0.19905139799158403
3.22,0.23241585813229,88.06949801926329,0,100,3.0,2,0.20929699048046124
3.225,0.19682662652900276,88.47004810840187,0,100,3.0,2,0.2172286754138984
3.23,0.16303381314489318,88.73867645530594,0,100,3.0,2,0.2225480486199195
3.235,0.13208310477486307,88.86509801461254,0,100,3.0,2,0.22505144583391173
3.24,0.10466285982723562,88.84442009521223,0,100,3.0,2,0.22464198208341046
3.245,0.08111733445917907,88.6774424986801,0,100,3.0,2,0.2213354950233682
3.25,0.06149084917398798,88.37060213916769,0,100,3.0,2,0.21525944830035024
3.255,0.04559141333598128,87.93556017778981,0,100,3.0,2,0.20664475599583781
3.26,0.03306217087257399,87.38846637634401,0,100,3.0,2,0.19581121537314877
3.265,0.02345067901074276,86.74896474048299,0,100,3.0,2,0.18314781664322752
3.27,0.016268788896435526,86.03902558407252,0,100,3.0,2,0.16908961552618848
3.275,0.011039026374860051,85.2817005402186,0,100,3.0,2,0.1540930800043286
3.28,0.007326255555493689,84.49989815970547,0,100,3.0,2,0.1386118447466429
3.285,0.0047556414315231815,83.71526910843023,0,100,3.0,2,0.1230746358104997
3.29,0.0030193390635632803,82.94727325500796,0,100,3.0,2,0.10786679712887044
3.295,0.001874953127946523,82.21247863298953,0,100,3.0,2,0.0933164085740501
3.3,0.0011387927410965778,81.52411733001249,0,100,3.0,2,0.07968549168341559
3.305,0.0006765107634274089,80.89189878152109,0,100,3.0,2,0.06716631250536817
3.31,0.00039307957404427924,80.32205933831581,0,100,3.0,2,0.05588236313496654
3.315,0.00022338910511776318,79.8176102712143,0,100,3.0,2,0.045893272697313
3.32,0.00012417073320013317,79.3787356692764,0,100,3.0,2,0.03720268652032466
3.325,6.750753468904987e-05,79.00328721222063,0,100,3.0,2,0.02976806360832925
3.33,3.5897234866245036e-05,78.68732401962978,0,100,3.0,2,0.023511366725342264
3.335,1.8670050400879738e-05,78.425651592325,0,100,3.0,2,0.018329734501485076
3.34,9.497421874143672e-06,78.21232282339807,0,100,3.0,2,0.014105402443526104
3.345,4.725434140340885e-06,78.04107463502996,0,100,3.0,2,0.010714349208514011
3.35,2.299606063738814e-06,77.90568457847962,0,100,3.0,2,0.008033357989695492
3.355,1.0945633976635486e-06,77.8002415759474,0,100,3.0,2,0.005945377741532598
3.36,5.095703414287532e-07,77.71933309720917,0,100,3.0,2,0.004343229647706395
3.365,2.3202944964797243e-07,77.658157036978,0,100,3.0,2,0.0031318225144157776
3.37,1.0333746954038608e-07,77.61257031386367,0,100,3.0,2,0.002229115126013285
3.375,4.501406988770349e-08,77.57908793610137,0,100,3.0,2,0.0015660977445816565
3.38,0.0,77.55484633547951,0,100,3.0,2,0.0010860660490992148
3.385,0.0,77.53754360721969,0,100,3.0,2,0.0007434377667265164
3.39,0.0,77.52536736675137,0,100,3.0,2,0.0005023240940864967
3.395,0.0,77.51691865312054,0,100,3.0,2,0.0003350228340701226
3.4,0.0,77.51113799947356,0,100,3.0,2,0.00022055444502101825
3.405,0.0,77.50723768383935,0,100,3.0,2,0.0001433204720663273
3.41,0.0,77.50464240506564,0,100,3.0,2,9.19288131809584e-05
3.415,0.0,77.50293925633632,0,100,3.0,2,5.820309576869035e-05
3.42,0.0,77.5018368889561,0,100,3.0,2,3.637403873477245e-05
3.425,0.0,77.50113312899164,0,100,3.0,2,2.2438197854254743e-05
3.43,0.0,77.50068996459827,0,100,3.0,2,1.3662665312191021e-05
3.435,0.0,77.50041469163281,0,100,3.0,2,8.211715501237458e-06
3.44,0.0,77.50024602245387,0,100,3.0,2,4.8717317597065364e-06
3.445,0.0,77.50014407055438,0,100,3.0,2,2.8528822650347895e-06
3.45,0.0,77.50008327731553,0,100,3.0,2,1.6490557529755503e-06
3.455,0.0,77.50004751483387,0,100,3.0,2,9.40887799337775e-07
3.46,0.0,77.50002675979127,0,100,3.0,2,5.298968567961373e-07
3.465,0.0,77.50001487603653,0,100,3.0,2,2.9457498080413606e-07
3.47,0.0,77.50000816286773,0,100,3.0,2,1.6164094513487276e-07
3.475,0.0,77.50000442129294,0,100,3.0,2,8.755035529554e-08
3.48,0.001684486749771458,77.50000236377878,0,100,3.0,2,4.680750052021623e-08
3.485,0.00456624331333666,77.50000124742768,0,100,3.0,2,2.4701538135073267e-08
3.49,0.011079731271581421,77.50000064979285,0,100,3.0,2,1.2867185196318141e-08
3.495,0.024064571490409,77.50000033410694,0,100,3.0,2,6.61597906932146e-09
3.5,0.046784906529573234,77.50000016956923,0,100,3.0,2,3.3578066004248277e-09
3.505,0.08141644351188804,77.50000008494926,0,100,3.0,2,1.682163636108064e-09
3.51,0.12682276464025305,77.50000004200716,0,100,3.0,2,8.318249235731621e-10
3.515,0.1768320708657512,77.50000002050396,0,100,3.0,2,4.060190335756956e-10
3.52,0.22070063230473494,77.50000000987878,0,100,3.0,2,1.9561930952981544e-10
3.525,0.24656126505113576,77.50000000469808,0,100,3.0,2,9.3031290042304e-11
3.53,0.24656126505724016,77.5000000022054,0,100,3.0,2,4.367122285360226e-11
3.535,0.220700632329898,77.50000000102189,0,100,3.0,2,2.023541290525665e-11
3.54,0.17683207093748562,77.50000000046738,0,100,3.0,2,9.255065360956014e-12
3.545,0.12682276483597799,77.500000000211,0,100,3.0,2,4.178272689333056e-12
3.55,0.08141644409447898,77.50000000009403,0,100,3.0,2,1.8620440722869634e-12
3.555,0.04678490952598309,77.50000000004135,0,100,3.0,2,8.188829152720362e-13
3.56,0.024064605020532023,77.50000000001796,0,100,3.0,2,3.5569347247555116e-13
3.565,0.011080171739334697,77.5000000000077,0,100,3.0,2,1.525204605077126e-13
3.57,0.004571212771509492,77.50000000000325,0,100,3.0,2,6.44413015798269e-14
3.575,0.0017299316936037438,77.50000000000136,0,100,3.0,2,2.7014694112067174e-14
3.58,0.0008899431850697582,77.50000000000055,0,100,3.0,2,1.097471948302729e-14
3.585,0.002128806368910263,77.50000000000023,0,100,3.0,2,4.502449018677863e-15
3.59,0.009309664818487698,77.50000000000009,0,100,3.0,2,1.6884183820041984e-15
3.595,0.03503263543368747,77.50000000000003,0,100,3.0,2,5.628061273347328e-16
3.6,0.10606267793605692,77.50000000000001,0,100,3.0,2,2.814030636673664e-16
3.605,0.25734927343160535,77.5,0,100,3.0,2,0.0
3.61,0.5003202479539708,77.5,0,100,3.0,2,0.0
3.615,0.7793067891790435,77.5,0,100,3.0,3,0.0
3.62,0.9720477407234077,77.50000298257781,1,100,3.0,3,5.9060946760288096e-08
3.625,0.967267334488097,77.50000698562181,0,100,3.0,3,1.3832914473283328e-07
3.63,0.7505869905515209,77.50001839468638,0,100,3.0,3,3.642512154166782e-07
3.635,0.4028369574773956,77.50005766999934,0,100,3.0,3,1.1419801848709954e-06
3.64,0.04553881263121314,77.50020995712008,0,100,3.0,3,4.157566734204353e-06
3.645,-0.189138810908105,77.50081280880359,0,100,3.0,3,1.6095223833415298e-05
3.65,-0.22868072635956738,77.503097351455,0,100,3.0,3,6.133369217815863e-05
3.655,-0.14104670682394166,77.51113090624347,0,100,3.0,3,0.00022041398501912253
3.66,-0.051158381651102834,77.53698570626372,0,100,3.0,3,0.0007323902230439779
3.665,-0.008206426846427752,77.61265550495322,0,100,3.0,3,0.0022308020782816694
3.67,0.005350271385530505,77.81335454355643,0,100,3.0,3,0.006205040466463934
3.675,0.01084668799215426,78.2945754104132,0,100,3.0,3,0.015734166542835687
3.68,0.016256859896386415,79.33525192393353,0,100,3.0,3,0.036341622256109436
3.685,0.02345021205790711,81.35961530766114,0,100,3.0,3,0.07642802589428009
3.69,0.0330621597308209,84.88912272221204,0,100,3.0,3,0.14631926182598093
3.695,0.04559141319943196,90.37654399373201,0,100,3.0,3,0.25498106918281216
3.7,0.06149084917446989,97.92423792213376,0,100,3.0,3,0.40444035489373775
3.705,0.08111733445924295,106.98718963572514,0,100,3.0,3,0.5839047452618841
3.71,0.1046628598272375,116.25086790845694,0,100,3.0,3,0.7673439189793453
3.715,0.1320831047748631,123.85923787688145,0,100,3.0,3,0.918004710433296
3.72,0.16303381314489318,128.0,0,100,3.0,3,1.0
3.725,0.19682662652900276,127.61098502595775,0,100,3.0,3,0.9922967331872821
3.73,0.23241585813229,122.83587158770212,0,100,3.0,3,0.8977400314396459
3.735,0.26842527782774417,114.96520763494516,0,100,3.0,3,0.7418852997018843
3.74,0.30321927900592993,105.89752443347074,0,100,3.0,3,0.562327216504371
3.745,0.3350163137995362,97.4283723807234,0,100,3.0,3,0.39462123526184956
3.75,0.3620352400956416,90.72827099469485,0,100,3.0,3,0.2619459602909872
3.755,0.3826586036805073,86.19634780611744,0,100,3.0,3,0.17220490705183059
3.76,0.39559233134833227,83.63586300786153,0,100,3.0,3,0.12150223777943625
3.765,0.4,82.56052605964184,0,100,3.0,3,0.10020843682459098
3.77,0.39559233134833227,82.45518590911567,0,100,3.0,3,0.09812249324981524
3.775,0.3826586036805073,82.9135053462967,0,100,3.0,3,0.10719812566924163
3.78,0.3620352400956416,83.66619963054956,0,100,3.0,3,0.12210296298117933
3.785,0.3350163137995362,84.55142388335696,0,100,3.0,3,0.13963215610607843
3.79,0.3032192790059296,85.47238297465216,0,100,3.0,3,0.15786896979509235
3.795,0.26842527782774417,86.36478766196998,0,100,3.0,3,0.17554034974197988
3.8,0.23241585813229,87.17876238495688,0,100,3.0,3,0.1916586610882551
3.805,0.19682662652900276,87.87166435112398,0,100,3.0,3,0.205379492101465
3.81,0.16303381314489318,88.40698222909897,0,100,3.0,3,0.21597984612077173
3.815,0.13208310477486307,88.75580649977894,0,100,3.0,3,0.22288725742136517
3.82,0.10466285982723562,88.89887430140394,0,100,3.0,3,0.22572028319611753
3.825,0.08111733445917907,88.82817993521967,0,100,3.0,3,0.22432039475682505
3.83,0.06149084917398798,88.54767901408137,0,100,3.0,3,0.21876592107091816
3.835,0.04559141333598128,88.07291340431424,0,100,3.0,3,0.20936462186760862
3.84,0.03306217087257399,87.42958320393963,0,100,3.0,3,0.19662540997900255
3.845,0.02345067901074276,86.65124282568554,0,100,3.0,3,0.1812127292214959
3.85,0.016268788896435526,85.77640730681179,0,100,3.0,3,0.1638892536002335
3.855,0.011039026374860051,84.8454151685361,0,100,3.0,3,0.14545376571358629
3.86,0.007326255555493689,83.8974007286156,0,100,3.0,3,0.12668120254684345
3.865,0.0047556414315231815,82.96768491225848,0,100,3.0,3,0.108270988361554
3.87,0.0030193390635632803,82.08581065794073,0,100,3.0,3,0.09080813184041042
3.875,0.001874953127946523,81.27434395854696,0,100,3.0,3,0.07473948432766267
3.88,0.0011387927410965778,80.54845330467741,0,100,3.0,3,0.060365411973810075
3.885,0.0006765107634274089,79.91618583984749,0,100,3.0,3,0.047845264155395764
3.89,0.00039307957404427924,79.37929015460902,0,100,3.0,3,0.03721366642790146
3.895,0.00022338910511776318,78.93439927898388,0,100,3.0,3,0.028403946118492576
3.9,0.00012417073320013317,78.57438266865057,0,100,3.0,3,0.021274904329714284
3.905,6.750753468904987e-05,78.28969728617166,0,100,3.0,3,0.01563757002320117
3.91,3.5897234866245036e-05,78.06960660042824,0,100,3.0,3,0.011279338622341472
3.915,1.8670050400879738e-05,77.90318289291574,0,100,3.0,3,0.007983819661697764
3.92,9.497421874143672e-06,77.78005407488197,0,100,3.0,3,0.005545625245187608
3.925,4.725434140340885e-06,77.69089493772672,0,100,3.0,3,0.0037800977767668284
3.93,2.299606063738814e-06,77.62769081034563,0,100,3.0,3,0.002528530897933197
3.935,1.0945633976635486e-06,77.58381805725054,0,100,3.0,3,0.0016597635099116707
3.94,5.095703414287532e-07,77.55399185562284,0,100,3.0,3,0.0010691456558978225
3.945,2.3202944964797243e-07,77.53412963416547,0,100,3.0,3,0.0006758343399102353
3.95,1.0333746954038608e-07,77.52117130985577,0,100,3.0,3,0.0004192338585301734
3.955,4.501406988770349e-08,77.51288773328321,0,100,3.0,3,0.0002552026392714372
3.96,0.0,77.50769871188156,0,100,3.0,3,0.00015244974022890023
3.965,0.0,77.5045130724965,0,100,3.0,3,8.936777220779138e-05
3.97,0.0,77.50259620671603,0,100,3.0,3,5.141003398089107e-05
3.975,0.0,77.50146561177017,0,100,3.0,3,2.9022015250928793e-05
3.98,0.0,77.50081191643977,0,100,3.0,3,1.6077553262824374e-05
3.985,0.0,77.50044138385367,0,100,3.0,3,8.740274330083333e-06
3.99,0.0,77.500235469285,0,100,3.0,3,4.662758118850587e-06
3.995,0.0,77.5001232721027,0,100,3.0,3,2.4410317365945417e-06
4.0,0.001684486749771458,77.50006332979159,0,100,3.0,3,1.2540552789475738e-06
4.005,0.00456624331333666,77.50003192743502,0,100,3.0,3,6.322264359913797e-07
4.01,0.011079731271581421,77.50001579547595,0,100,3.0,3,3.1278170189859274e-07
4.015,0.024064571490409,77.50000766856529,0,100,3.0,3,1.518527779911766e-07
4.02,0.046784906529573234,77.50000365349266,0,100,3.0,3,7.234638920942082e-08
4.025,0.08141644351188804,77.50000170810699,0,100,3.0,3,3.382390084628034e-08
4.03,0.12682276464025305,77.50000078367253,0,100,3.0,3,1.55182679819599e-08
4.035,0.1768320708657512,77.50000035283112,0,100,3.0,3,6.986754901800391e-09
4.04,0.22070063230473494,77.5000001558877,0,100,3.0,3,3.086885238072943e-09
4.045,0.24656126505113576,77.50000006758799,0,100,3.0,3,1.3383760458532154e-09
4.05,0.24656126505724016,77.50000002875676,0,100,3.0,3,5.694407673668183e-10
4.055,0.220700632329898,77.50000001200668,0,100,3.0,3,2.377560414772395e-10
4.06,0.17683207093748562,77.50000000491947,0,100,3.0,3,9.74152683711779e-11
4.065,0.12682276483597799,77.50000000197801,0,100,3.0,3,3.916849243186073e-11
4.07,0.08141644409447898,77.50000000078046,0,100,3.0,3,1.5454656256611765e-11
4.075,0.04678490952598309,77.5000000003022,0,100,3.0,3,5.9840361488865464e-12
4.08,0.024064605020532023,77.50000000011482,0,100,3.0,3,2.2737367544323206e-12
4.085,0.011080171739334697,77.50000000004282,0,100,3.0,3,8.47867430829775e-13
4.09,0.004571212771509492,77.50000000001566,0,100,3.0,3,3.101061761614378e-13
4.095,0.0017299316936037438,77.50000000000563,0,100,3.0,3,1.114356132122771e-13
4.1,0.0008899431850697582,77.50000000000198,0,100,3.0,3,3.911502584976393e-14
4.105,0.002128806368910263,77.50000000000068,0,100,3.0,3,1.3507347056033587e-14
4.11,0.009309664818487698,77.50000000000023,0,100,3.0,3,4.502449018677863e-15
4.115,0.03503263543368747,77.50000000000007,0,100,3.0,3,1.4070153183368321e-15
4.12,0.10606267793605692,77.50000000000003,0,100,3.0,3,5.628061273347328e-16
4.125,0.25734927343160535,77.50000000000001,0,100,3.0,3,2.814030636673664e-16
4.13,0.5003202479539708,77.5,0,100,3.0,3,0.0
4.135,0.7793067891790435,77.5,0,100,3.0,3,0.0
4.14,0.9720477407234077,77.50000297262514,1,100,3.0,3,5.8863864154827213e-08
4.145,0.967267334488097,77.50000602692357,0,100,3.0,3,1.193450212231075e-07
4.15,0.7505869905515209,77.50001314884915,0,100,3.0,3,2.603732504761829e-07
4.155,0.4028369574773956,77.50003218277465,0,100,3.0,3,6.372826662597374e-07
4.16,0.04553881263121314,77.5000891336331,0,100,3.0,3,1.7650224375563202e-06
4.165,-0.189138810908105,77.5002690214767,0,100,3.0,3,5.32715795439925e-06
4.17,-0.22868072635956738,77.50083732265789,0,100,3.0,3,1.6580646690828313e-05
4.175,-0.14104670682394166,77.50257317183726,0,100,3.0,3,5.09538977674351e-05
4.18,-0.051158381651102834,77.5076082097914,0,100,3.0,3,0.00015065761963167613
4.185,-0.008206426846427752,77.52135258747315,0,100,3.0,3,0.0004228235143197217
4.19,0.005350271385530505,77.55649700924465,0,100,3.0,3,0.0011187526583099309
4.195,0.01084668799215426,77.64045440057028,0,100,3.0,3,0.0027812752588173757
4.2,0.016256859896386415,77.82751617390053,0,100,3.0,3,0.006485468790109587
4.205,0.02345021205790711,78.21569569973141,0,100,3.0,3,0.014172192073889358
4.21,0.0330621597308209,78.96491975294279,0,100,3.0,3,0.029008311939461205
4.215,0.04559141319943196,80.30785299502509,0,100,3.0,3,0.05560104940643736
4.22,0.06149084917446989,82.53901529227541,0,100,3.0,3,0.0997824810351566
4.225,0.08111733445924295,85.96626012174221,0,100,3.0,3,0.16764871528202394
4.23,0.1046628598272375,90.81658192531896,0,100,3.0,3,0.2636946915904744
4.235,0.1320831047748631,97.10833980159956,0,100,3.0,3,0.38828395646731795
4.24,0.16303381314489318,104.52938760793602,0,100,3.0,3,0.5352353981769508
4.245,0.19682662652900276,112.38094101245923,0,100,3.0,3,0.6907117032170145
4.25,0.23241585813229,119.64223165483207,0,100,3.0,3,0.834499636729348
4.255,0.26842527782774417,125.1719099748606,0,100,3.0,3,0.9439982173239723
4.26,0.30321927900592993,128.0,0,100,3.0,3,1.0
4.265,0.3350163137995362,127.6101393237791,0,100,3.0,3,0.992279986609487
4.27,0.3620352400956416,124.10010403781507,0,100,3.0,3,0.9227743373824767
4.275,0.3826586036805073,118.15277378027952,0,100,3.0,3,0.8050054213916736
4.28,0.39559233134833227,110.8299379581053,0,100,3.0,3,0.6599987714476298
4.285,0.4,103.27489006078626,0,100,3.0,3,0.510393862589827
4.29,0.39559233134833227,96.43814350154825,0,100,3.0,3,0.3750127426049159
4.295,0.3826586036805073,90.9137835998359,0,100,3.0,3,0.26561947722447316
4.3,0.3620352400956416,86.9136909261355,0,100,3.0,3,0.1864097213096139
4.305,0.3350163137995362,84.34894125219122,0,100,3.0,3,0.13562259905329158
4.31,0.3032192790059296,82.95851223358169,0,100,3.0,3,0.10808935116003339
4.315,0.26842527782774417,82.42961246934831,0,100,3.0,3,0.09761608850194681
4.32,0.23241585813229,82.47825904809713,0,100,3.0,3,0.09857938709103227
4.325,0.19682662652900276,82.88510695734854,0,100,3.0,3,0.10663578133363447
4.33,0.16303381314489318,83.49817142324218,0,100,3.0,3,0.11877567174736997
4.335,0.13208310477486307,84.218703403949,0,100,3.0,3,0.1330436317613662
4.34,0.10466285982723562,84.98313005843968,0,100,3.0,3,0.14818079323642938
4.345,0.08111733445917907,85.74806308660983,0,100,3.0,3,0.163327981913066
4.35,0.06149084917398798,86.48049615879853,0,100,3.0,3,0.17783160710492138
4.355,0.04559141333598128,87.1526196872008,0,100,3.0,3,0.19114098390496628
4.36,0.03306217087257399,87.73979816955085,0,100,3.0,3,0.20276828058516538
4.365,0.02345067901074276,88.22034613356011,0,100,3.0,3,0.2122840818526755
4.37,0.016268788896435526,88.57613991279077,0,100,3.0,3,0.2193295032235795
4.375,0.011039026374860051,88.79347868239333,0,100,3.0,3,0.22363324123551145
4.38,0.007326255555493689,88.86386439984123,0,100,3.0,3,0.2250270178186383
4.385,0.0047556414315231815,88.78452238775425,0,100,3.0,3,0.22345588886642082
4.39,0.0030193390635632803,88.55857365850133,0,100,3.0,3,0.21898165660398675
4.395,0.001874953127946523,88.19482866332193,0,100,3.0,3,0.2117787854123154
4.4,0.0011387927410965778,87.70721657209255,0,100,3.0,3,0.2021231004374762
4.405,0.0006765107634274089,87.11390019357708,0,100,3.0,3,0.1903742612589521
4.41,0.00039307957404427924,86.43615452975533,0,100,3.0,3,0.17695355504465995
4.415,0.00022338910511776318,85.6971052748557,0,100,3.0,3,0.16231891633377626
4.42,0.00012417073320013317,84.92043109401514,0,100,3.0,3,0.14693922958445826
4.425,6.750753468904987e-05,84.12913009206147,0,100,3.0,3,0.13126990281309847
4.43,3.5897234866245036e-05,83.3444376315581,0,100,3.0,3,0.11573143824867513
4.435,1.8670050400879738e-05,82.58496182074326,0,100,3.0,3,0.10069231328204475
4.44,9.497421874143672e-06,81.86607755524824,0,100,3.0,3,0.08645698129204434
4.445,4.725434140340885e-06,81.1995932352933,0,100,3.0,3,0.07325927198600607
4.45,2.299606063738814e-06,80.59367928154045,0,100,3.0,3,0.061260975872088036
4.455,1.0945633976635486e-06,80.05302685084085,0,100,3.0,3,0.05055498714536339
4.46,5.095703414287532e-07,79.5791903812813,0,100,3.0,3,0.041172086758045415
4.465,2.3202944964797243e-07,79.17105949996414,0,100,3.0,3,0.03309028712800286
4.47,1.0333746954038608e-07,78.82540422739977,0,100,3.0,3,0.026245628265342033
4.475,4.501406988770349e-08,78.53744138964515,0,100,3.0,3,0.02054339385435946
4.48,0.0,78.30137828670698,0,100,3.0,3,0.01586887696449461
4.485,0.0,78.11090032048983,0,100,3.0,3,0.012097036049303622
4.49,0.0,77.95958084176635,0,100,3.0,3,0.009100610728046602
4.495,0.0,77.84120254425764,0,100,3.0,3,0.006756486024903777
4.5,0.0,77.74998928072644,0,100,3.0,3,0.004950282786662154
4.505,0.0,77.68075457337353,0,100,3.0,3,0.0035792984826442343
4.51,0.0,77.62897810246339,0,100,3.0,3,0.0025540218309582667
4.515,0.0,77.59082417329567,0,100,3.0,3,0.0017984984811024256
4.52,0.0,77.56311690651798,0,100,3.0,3,0.0012498397330292315
4.525,0.0,77.54328612787634,0,100,3.0,3,0.0008571510470562883
4.53,0.0,77.52929615012752,0,100,3.0,3,0.0005801217847033963
4.535,0.0,77.51956731102686,0,100,3.0,3,0.00038747150548240573
4.54,0.0,77.51289764815891,0,100,3.0,3,0.00025539897344380267
4.545,0.0,77.5083897435128,0,100,3.0,3,0.00016613353490680706
4.55,0.0,77.5053857429786,0,100,3.0,3,0.00010664837581393074
4.555,0.0,77.50341193968492,0,100,3.0,3,6.756316207769271e-05
4.56,0.0,77.50213312275217,0,100,3.0,3,4.224005449841435e-05
4.565,0.0,77.50131610073626,0,100,3.0,3,2.606140071804367e-05
4.57,0.0,77.5008013480742,0,100,3.0,3,1.586827869713002e-05
4.575,0.0,77.50048151746557,0,100,3.0,3,9.53499931828185e-06
4.58,0.0,77.5002855365269,0,100,3.0,3,5.654188651540086e-06
4.585,0.0,77.50016709755003,0,100,3.0,3,3.3088623768948633e-06
4.59,0.0,77.50009650221315,0,100,3.0,3,1.910934913937153e-06
4.595,0.0,77.50005500007046,0,100,3.0,3,1.0891103061517737e-06
4.6,0.0,77.50003093484894,0,100,3.0,3,6.125712660728949e-07
4.605,0.0,77.50001717083974,0,100,3.0,3,3.400166285205565e-07
4.61,0.0,77.5000094057591,0,100,3.0,3,1.862526554723805e-07
4.615,0.0,77.50000508457842,0,100,3.0,3,1.0068472116328471e-07
4.62,0.001684486749771458,77.50000271253174,0,100,3.0,3,5.371349977782068e-08
4.625,0.00456624331333666,77.50000142808314,0,100,3.0,3,2.8278874019138535e-08
4.63,0.011079731271581421,77.50000074197783,0,100,3.0,3,1.4692630267547591e-08
4.635,0.024064571490409,77.50000038044087,0,100,3.0,3,7.533482502286362e-09
4.64,0.046784906529573234,77.50000019250507,0,100,3.0,3,3.811981577479792e-09
4.645,0.08141644351188804,77.50000009612934,0,100,3.0,3,1.9035513055809637e-09
4.65,0.12682276464025305,77.50000004737274,0,100,3.0,3,9.38073996918986e-10
4.655,0.1768320708657512,77.5000000230388,0,100,3.0,3,4.562137422512348e-10
4.66,0.22070063230473494,77.50000001105732,0,100,3.0,3,2.1895690980894113e-10
4.665,0.24656126505113576,77.5000000052372,0,100,3.0,3,1.0370687806865288e-10
4.67,0.24656126505724016,77.50000000244798,0,100,3.0,3,4.8474773150404206e-11
4.675,0.220700632329898,77.50000000112921,0,100,3.0,3,2.2360568842072603e-11
4.68,0.17683207093748562,77.50000000051404,0,100,3.0,3,1.0178911618975978e-11
4.685,0.12682276483597799,77.50000000023093,0,100,3.0,3,4.5727997845947045e-12
4.69,0.08141644409447898,77.50000000010237,0,100,3.0,3,2.0272276706597077e-12
4.695,0.04678490952598309,77.50000000004479,0,100,3.0,3,8.869824566795389e-13
4.7,0.024064605020532023,77.50000000001934,0,100,3.0,3,3.829895696512857e-13
4.705,0.011080171739334697,77.50000000000824,0,100,3.0,3,1.632137769270725e-13
4.71,0.004571212771509492,77.50000000000347,0,100,3.0,3,6.86623475348374e-14
4.715,0.0017299316936037438,77.50000000000144,0,100,3.0,3,2.842170943040401e-14
4.72,0.0008899431850697582,77.50000000000058,0,100,3.0,3,1.1537525610362024e-14
4.725,0.002128806368910263,77.50000000000024,0,100,3.0,3,4.783852082345229e-15
4.73,0.009309664818487698,77.5000000000001,0,100,3.0,3,1.969821445671565e-15
4.735,0.03503263543368747,77.50000000000004,0,100,3.0,3,8.442091910020992e-16
4.74,0.10606267793605692,77.50000000000001,0,100,3.0,3,2.814030636673664e-16
4.745,0.25734927343160535,77.5,0,100,3.0,3,0.0
4.75,0.5003202479539708,77.5,0,100,3.0,3,0.0
4.755,0.7793067891790435,77.5,0,100,3.0,3,0.0
4.76,0.9720477407234077,77.5000029632167,1,100,3.0,3,5.867755844249559e-08
4.765,0.967267334488097,77.50000632443192,0,100,3.0,3,1.252362756864692e-07
4.77,0.7505869905515209,77.50001473324576,0,100,3.0,3,2.917474408505849e-07
4.775,0.4028369574773956,77.50003930345265,0,100,3.0,3,7.782861911378535e-07
4.78,0.04553881263121314,77.50012007178523,0,100,3.0,3,2.37765911352014e-06
4.785,-0.189138810908105,77.50039768906025,0,100,3.0,3,7.875030896043021e-06
4.79,-0.22868072635956738,77.50133813309903,0,100,3.0,3,2.6497685129220596e-05
4.795,-0.14104670682394166,77.50437429970992,0,100,3.0,3,8.661979623609861e-05
4.8,-0.051158381651102834,77.51356283545961,0,100,3.0,3,0.0002685709992001851
4.805,-0.008206426846427752,77.539423280672,0,100,3.0,3,0.0007806590232078606
4.81,0.005350271385530505,77.60683292766095,0,100,3.0,3,0.0021155035180385365
4.815,0.01084668799215426,77.7691843879838,0,100,3.0,3,0.005330383920471266
4.82,0.016256859896386415,78.1298195737859,0,100,3.0,4,0.012471674728433559
4.825,0.02345021205790711,78.8674564682652,0,100,3.0,4,0.027078345906241648
4.83,0.0330621597308209,80.25416185836706,0,100,3.0,4,0.05453785858152585
4.835,0.04559141319943196,82.64472323642266,0,100,3.0,4,0.10187570765193393
4.84,0.06149084917446989,86.41224109374863,0,100,3.0,4,0.17648002165838877
4.845,0.08111733445924295,91.81665598492147,0,100,3.0,4,0.2834981383152766
4.85,0.1046628598272375,98.826395638257,0,100,3.0,4,0.42230486412390095
4.855,0.1320831047748631,106.95895384922622,0,100,3.0,4,0.5833456207767568
4.86,0.16303381314489318,115.23602411394728,0,100,3.0,4,0.7472480022563818
4.865,0.19682662652900276,122.32971667135199,0,100,3.0,4,0.8877171618089502
4.87,0.23241585813229,126.89775582948093,0,100,3.0,4,0.9781733827619986
4.875,0.26842527782774417,128.0,0,100,3.0,4,1.0
4.88,0.30321927900592993,125.42125272540896,0,100,3.0,4,0.9489356975328508
4.885,0.3350163137995362,119.74965133212939,0,100,3.0,4,0.8366267590520671
4.89,0.3620352400956416,112.17257946470455,0,100,3.0,4,0.6865857319743476
4.895,0.3826586036805073,104.08785511981466,0,100,3.0,4,0.5264921805903894
4.9,0.39559233134833227,96.70488803956961,0,100,3.0,4,0.38029481266474474
4.905,0.4,90.78889417401182,0,100,3.0,4,0.2631464192873627
4.91,0.39559233134833227,86.60772759605685,0,100,3.0,4,0.18035104150607617
4.915,0.3826586036805073,84.04089578195409,0,100,3.0,4,0.12952268875156617
4.92,0.3620352400956416,82.75786879881116,0,100,3.0,4,0.10411621383784475
4.925,0.3350163137995362,82.37959366821764,0,100,3.0,4,0.09662561719242846
4.93,0.3032192790059296,82.57856812118584,0,100,3.0,4,0.1005657053700166
4.935,0.26842527782774417,83.11531036543767,0,100,3.0,4,0.11119426466213198
4.94,0.23241585813229,83.83263983129649,0,100,3.0,4,0.12539880854052454
4.945,0.19682662652900276,84.63250912217958,0,100,3.0,4,0.14123780439959574
4.95,0.16303381314489318,85.45226040314074,0,100,3.0,4,0.1574705030324899
4.955,0.13208310477486307,86.2475629773933,0,100,3.0,4,0.1732190688592733
4.96,0.10466285982723562,86.98281595132833,0,100,3.0,4,0.18777853368966999
4.965,0.08111733445917907,87.62707318852279,0,100,3.0,4,0.20053610274302547
4.97,0.06149084917398798,88.15320332098976,0,100,3.0,4,0.21095452120771804
4.975,0.04559141333598128,88.5385782151131,0,100,3.0,4,0.21858570722996248
4.98,0.03306217087257399,88.76624892522591,0,100,3.0,4,0.22309403812328532
4.985,0.02345067901074276,88.82603771663241,0,100,3.0,4,0.22427797458678045
4.99,0.016268788896435526,88.71524935893723,0,100,3.0,4,0.22208414572152926
4.995,0.011039026374860051,88.43886075670979,0,100,3.0,4,0.2166111040932631
5.0,0.007326255555493689,88.00914720955005,0,100,3.0,4,0.20810192494158516
5.005,0.0047556414315231815,87.44477763798974,0,100,3.0,4,0.19692628986118307
5.01,0.0030193390635632803,86.76946988444872,0,100,3.0,4,0.18355385909799454
5.015,0.001874953127946523,86.0103405328122,0,100,3.0,4,0.16852159470915234
5.02,0.0011387927410965778,85.1961087935566,0,100,3.0,4,0.15239819393181395
5.025,0.0006765107634274089,84.35531914558466,0,100,3.0,4,0.13574889397197343
5.03,0.00039307957404427924,83.51473332893123,0,100,3.0,4,0.11910363027586592
5.035,0.00022338910511776318,82.69801221580293,0,100,3.0,4,0.10293093496639472
5.04,0.00012417073320013317,81.92476728085217,0,100,3.0,4,0.08761915407628051
5.045,6.750753468904987e-05,81.2100160794701,0,100,3.0,4,0.07346566494000187
5.05,3.5897234866245036e-05,80.56403251225963,0,100,3.0,4,0.06067391113385405
5.055,1.8670050400879738e-05,79.99254590939884,0,100,3.0,4,0.04935734474057114
5.06,9.497421874143672e-06,79.49721667177356,0,100,3.0,4,0.039548844985615
5.065,4.725434140340885e-06,79.07630197143015,0,100,3.0,4,0.031213900424359505
5.07,2.299606063738814e-06,78.72542256815419,0,100,3.0,4,0.024265793428795777
5.075,1.0945633976635486e-06,78.43834933264405,0,100,3.0,4,0.018581174903842604
5.08,5.095703414287532e-07,78.20774277436361,0,100,3.0,4,0.01401470840323979
5.085,2.3202944964797243e-07,78.02579755035103,0,100,3.0,4,0.010411832680218405
5.09,1.0333746954038608e-07,77.88476352268945,0,100,3.0,4,0.007619079657216909
5.095,4.501406988770349e-08,77.77733293361308,0,100,3.0,4,0.005491741259664978
5.1,0.0,77.69689796089891,0,100,3.0,4,0.0038989695227506687
5.105,0.0,77.63769342762592,0,100,3.0,4,0.0027266025272459243
5.11,0.0,77.59484565128201,0,100,3.0,4,0.0018781317085547404
5.115,0.0,77.56435078582085,0,100,3.0,4,0.0012742729865514734
5.12,0.0,77.54300535190977,0,100,3.0,4,0.0008515911269261333
5.125,0.0,77.52830892491497,0,100,3.0,4,0.0005605727705934027
5.13,0.0,77.5183550878223,0,100,3.0,4,0.0003634670855901034
5.135,0.0,77.51172254143796,0,100,3.0,4,0.0002321295334249863
5.14,0.0,77.50737427460564,0,100,3.0,4,0.00014602523971560832
5.145,0.0,77.50456929349846,0,100,3.0,4,9.04810593755032e-05
5.15,0.0,77.5027887592473,0,100,3.0,4,5.522295539198113e-05
5.155,0.0,77.50167650638357,0,100,3.0,4,3.319814620940318e-05
5.16,0.0,77.50099273108047,0,100,3.0,4,1.9658041197479378e-05
5.165,0.0,77.50057901557518,0,100,3.0,4,1.1465654954136962e-05
5.17,0.0,77.50033264507117,0,100,3.0,4,6.587031112242738e-06
5.175,0.0,77.50018823663869,0,100,3.0,4,3.727458191926218e-06
5.18,0.0,77.50010492028098,0,100,3.0,4,2.0776293262437016e-06
5.185,0.0,77.50005760324511,0,100,3.0,4,1.1406583190242906e-06
5.19,0.0,77.50003115061858,0,100,3.0,4,6.168439323245015e-07
5.195,0.0,77.50001659275955,0,100,3.0,4,3.285694960465149e-07
5.2,0.001684486749771458,77.5000087056817,0,100,3.0,4,1.7238973650999488e-07
5.205,0.00456624331333666,77.50000449903288,0,100,3.0,4,8.908976006201592e-08
5.21,0.011079731271581421,77.50000229017026,0,100,3.0,4,4.5349906096618887e-08
5.215,0.024064571490409,77.5000011482821,0,100,3.0,4,2.2738259310631967e-08
5.22,0.046784906529573234,77.50000056710259,0,100,3.0,4,1.1229754235419834e-08
5.225,0.08141644351188804,77.50000027587154,0,100,3.0,4,5.4628028217596484e-09
5.23,0.12682276464025305,77.50000013218568,0,100,3.0,4,2.617538133437289e-09
5.235,0.1768320708657512,77.500000062387,0,100,3.0,4,1.235386182790787e-09
5.24,0.22070063230473494,77.50000002900254,0,100,3.0,4,5.743076333529454e-10
5.245,0.24656126505113576,77.50000001328037,0,100,3.0,4,2.629776352676183e-10
5.25,0.24656126505724016,77.50000000598986,0,100,3.0,4,1.1861110993273127e-10
5.255,0.220700632329898,77.50000000266107,0,100,3.0,4,5.2694412090096365e-11
5.26,0.17683207093748562,77.50000000116447,0,100,3.0,4,2.3058729843031337e-11
5.265,0.12682276483597799,77.50000000050191,0,100,3.0,4,9.938874805667714e-12
5.27,0.08141644409447898,77.50000000021309,0,100,3.0,4,4.219638939692159e-12
5.275,0.04678490952598309,77.50000000008912,0,100,3.0,4,1.7646786122580548e-12
5.28,0.024064605020532023,77.5000000000367,0,100,3.0,4,7.268641134528074e-13
5.285,0.011080171739334697,77.5000000000149,0,100,3.0,4,2.949104107234e-13
5.29,0.004571212771509492,77.50000000000595,0,100,3.0,4,1.1790788367662653e-13
5.295,0.0017299316936037438,77.50000000000234,0,100,3.0,4,4.6431505505115455e-14
5.3,0.0008899431850697582,77.50000000000091,0,100,3.0,4,1.800979607471145e-14
5.305,0.002128806368910263,77.50000000000034,0,100,3.0,4,6.7536735280167935e-15
5.31,0.009309664818487698,77.50000000000013,0,100,3.0,4,2.5326275730062976e-15
5.315,0.03503263543368747,77.50000000000004,0,100,3.0,4,8.442091910020992e-16
5.32,0.10606267793605692,77.50000000000001,0,100,3.0,4,2.814030636673664e-16
5.325,0.25734927343160535,77.5,0,100,3.0,4,0.0
5.33,0.5003202479539708,77.5,0,100,3.0,4,0.0
5.335,0.7793067891790435,77.5,0,100,3.0,4,0.0
5.34,0.9720477407234077,77.50000297262514,1,100,3.0,4,5.8863864154827213e-08
5.345,0.967267334488097,77.50000602692357,0,100,3.0,4,1.193450212231075e-07
5.35,0.7505869905515209,77.50001314884915,0,100,3.0,4,2.603732504761829e-07
5.355,0.4028369574773956,77.50003218277465,0,100,3.0,4,6.372826662597374e-07
5.36,0.04553881263121314,77.5000891336331,0,100,3.0,4,1.7650224375563202e-06
5.365,-0.189138810908105,77.5002690214767,0,100,3.0,4,5.32715795439925e-06
5.37,-0.22868072635956738,77.50083732265789,0,100,3.0,4,1.6580646690828313e-05
5.375,-0.14104670682394166,77.50257317183726,0,100,3.0,4,5.09538977674351e-05
5.38,-0.051158381651102834,77.5076082097914,0,100,3.0,4,0.00015065761963167613
5.385,-0.008206426846427752,77.52135258747315,0,100,3.0,4,0.0004228235143197217
5.39,0.005350271385530505,77.55649700924465,0,100,3.0,4,0.0011187526583099309
5.395,0.01084668799215426,77.64045440057028,0,100,3.0,4,0.0027812752588173757
5.4,0.016256859896386415,77.82751617390053,0,100,3.0,4,0.006485468790109587
5.405,0.02345021205790711,78.21569569973141,0,100,3.0,4,0.014172192073889358
5.41,0.0330621597308209,78.96491975294279,0,100,3.0,4,0.029008311939461205
5.415,0.04559141319943196,80.30785299502509,0,100,3.0,4,0.05560104940643736
5.42,0.06149084917446989,82.53901529227541,0,100,3.0,4,0.0997824810351566
5.425,0.08111733445924295,85.96626012174221,0,100,3.0,4,0.16764871528202394
5.43,0.1046628598272375,90.81658192531896,0,100,3.0,4,0.2636946915904744
5.435,0.1320831047748631,97.10833980159956,0,100,3.0,4,0.38828395646731795
5.44,0.16303381314489318,104.52938760793602,0,100,3.0,4,0.5352353981769508
5.445,0.19682662652900276,112.38094101245923,0,100,3.0,4,0.6907117032170145
5.45,0.23241585813229,119.64223165483207,0,100,3.0,4,0.834499636729348
5.455,0.26842527782774417,125.1719099748606,0,100,3.0,4,0.9439982173239723
5.46,0.30321927900592993,128.0,0,100,3.0,4,1.0
5.465,0.3350163137995362,127.6101393237791,0,100,3.0,4,0.992279986609487
5.47,0.3620352400956416,124.10010403781507,0,100,3.0,4,0.9227743373824767
5.475,0.3826586036805073,118.15277378027952,0,100,3.0,4,0.8050054213916736
5.48,0.39559233134833227,110.8299379581053,0,100,3.0,4,0.6599987714476298
5.485,0.4,103.27489006078626,0,100,3.0,4,0.510393862589827
5.49,0.39559233134833227,96.43814350154825,0,100,3.0,4,0.3750127426049159
5.495,0.3826586036805073,90.9137835998359,0,100,3.0,4,0.26561947722447316
5.5,0.3620352400956416,86.9136909261355,0,100,3.0,4,0.1864097213096139
5.505,0.3350163137995362,84.34894125219122,0,100,3.0,4,0.13562259905329158
5.51,0.3032192790059296,82.95851223358169,0,100,3.0,4,0.10808935116003339
5.515,0.26842527782774417,82.42961246934831,0,100,3.0,4,0.09761608850194681
5.52,0.23241585813229,82.47825904809713,0,100,3.0,4,0.09857938709103227
5.525,0.19682662652900276,82.88510695734854,0,100,3.0,4,0.10663578133363447
5.53,0.16303381314489318,83.49817142324218,0,100,3.0,4,0.11877567174736997
5.535,0.13208310477486307,84.218703403949,0,100,3.0,4,0.1330436317613662
5.54,0.10466285982723562,84.98313005843968,0,100,3.0,4,0.14818079323642938
5.545,0.08111733445917907,85.74806308660983,0,100,3.0,4,0.163327981913066
5.55,0.06149084917398798,86.48049615879853,0,100,3.0,4,0.17783160710492138
5.555,0.04559141333598128,87.1526196872008,0,100,3.0,4,0.19114098390496628
5.56,0.03306217087257399,87.73979816955085,0,100,3.0,4,0.20276828058516538
5.565,0.02345067901074276,88.22034613356011,0,100,3.0,4,0.2122840818526755
5.57,0.016268788896435526,88.57613991279077,0,100,3.0,4,0.2193295032235795
5.575,0.011039026374860051,88.79347868239333,0,100,3.0,4,0.22363324123551145
5.58,0.007326255555493689,88.86386439984123,0,100,3.0,4,0.2250270178186383
5.585,0.0047556414315231815,88.78452238775425,0,100,3.0,4,0.22345588886642082
5.59,0.0030193390635632803,88.55857365850133,0,100,3.0,4,0.21898165660398675
5.595,0.001874953127946523,88.19482866332193,0,100,3.0,4,0.2117787854123154
5.6,0.0011387927410965778,87.70721657209255,0,100,3.0,4,0.2021231004374762
5.605,0.0006765107634274089,87.11390019357708,0,100,3.0,4,0.1903742612589521
5.61,0.00039307957404427924,86.43615452975533,0,100,3.0,4,0.17695355504465995
5.615,0.00022338910511776318,85.6971052748557,0,100,3.0,4,0.16231891633377626
5.62,0.00012417073320013317,84.92043109401514,0,100,3.0,4,0.14693922958445826
5.625,6.750753468904987e-05,84.12913009206147,0,100,3.0,4,0.13126990281309847
5.63,3.5897234866245036e-05,83.3444376315581,0,100,3.0,4,0.11573143824867513
5.635,1.8670050400879738e-05,82.58496182074326,0,100,3.0,4,0.10069231328204475
5.64,9.497421874143672e-06,81.86607755524824,0,100,3.0,4,0.08645698129204434
5.645,4.725434140340885e-06,81.1995932352933,0,100,3.0,4,0.07325927198600607
5.65,2.299606063738814e-06,80.59367928154045,0,100,3.0,4,0.061260975872088036
5.655,1.0945633976635486e-06,80.05302685084085,0,100,3.0,4,0.05055498714536339
5.66,5.095703414287532e-07,79.5791903812813,0,100,3.0,4,0.041172086758045415
5.665,2.3202944964797243e-07,79.17105949996414,0,100,3.0,4,0.03309028712800286
5.67,1.0333746954038608e-07,78.82540422739977,0,100,3.0,4,0.026245628265342033
5.675,4.501406988770349e-08,78.53744138964515,0,100,3.0,4,0.02054339385435946
5.68,0.0,78.30137828670698,0,100,3.0,4,0.01586887696449461
5.685,0.0,78.11090032048983,0,100,3.0,4,0.012097036049303622
5.69,0.0,77.95958084176635,0,100,3.0,4,0.009100610728046602
5.695,0.0,77.84120254425764,0,100,3.0,4,0.006756486024903777
5.7,0.0,77.74998928072644,0,100,3.0,4,0.004950282786662154
5.705,0.0,77.68075457337353,0,100,3.0,4,0.0035792984826442343
5.71,0.0,77.62897810246339,0,100,3.0,4,0.0025540218309582667
5.715,0.0,77.59082417329567,0,100,3.0,4,0.0017984984811024256
5.72,0.0,77.56311690651798,0,100,3.0,4,0.0012498397330292315
5.725,0.0,77.54328612787634,0,100,3.0,4,0.0008571510470562883
5.73,0.0,77.52929615012752,0,100,3.0,4,0.0005801217847033963
5.735,0.0,77.51956731102686,0,100,3.0,4,0.00038747150548240573
5.74,0.0,77.51289764815891,0,100,3.0,4,0.00025539897344380267
5.745,0.0,77.5083897435128,0,100,3.0,4,0.00016613353490680706
5.75,0.0,77.5053857429786,0,100,3.0,4,0.00010664837581393074
5.755,0.0,77.50341193968492,0,100,3.0,4,6.756316207769271e-05
5.76,0.0,77.50213312275217,0,100,3.0,4,4.224005449841435e-05
5.765,0.0,77.50131610073626,0,100,3.0,4,2.606140071804367e-05
5.77,0.0,77.5008013480742,0,100,3.0,4,1.586827869713002e-05
5.775,0.0,77.50048151746557,0,100,3.0,4,9.53499931828185e-06
5.78,0.0,77.5002855365269,0,100,3.0,4,5.654188651540086e-06
5.785,0.0,77.50016709755003,0,100,3.0,4,3.3088623768948633e-06
5.79,0.0,77.50009650221315,0,100,3.0,4,1.910934913937153e-06
5.795,0.0,77.50005500007046,0,100,3.0,4,1.0891103061517737e-06
5.8,0.0,77.50003093484894,0,100,3.0,4,6.125712660728949e-07
5.805,0.0,77.50001717083974,0,100,3.0,4,3.400166285205565e-07
5.81,0.0,77.5000094057591,0,100,3.0,4,1.862526554723805e-07
5.815,0.0,77.50000508457842,0,100,3.0,4,1.0068472116328471e-07
5.82,0.001684486749771458,77.50000271253174,0,100,3.0,4,5.371349977782068e-08
5.825,0.00456624331333666,77.50000142808314,0,100,3.0,4,2.8278874019138535e-08
5.83,0.011079731271581421,77.50000074197783,0,100,3.0,4,1.4692630267547591e-08
5.835,0.024064571490409,77.50000038044087,0,100,3.0,4,7.533482502286362e-09
5.84,0.046784906529573234,77.50000019250507,0,100,3.0,4,3.811981577479792e-09
5.845,0.08141644351188804,77.50000009612934,0,100,3.0,4,1.9035513055809637e-09
5.85,0.12682276464025305,77.50000004737274,0,100,3.0,4,9.38073996918986e-10
5.855,0.1768320708657512,77.5000000230388,0,100,3.0,4,4.562137422512348e-10
5.86,0.22070063230473494,77.50000001105732,0,100,3.0,4,2.1895690980894113e-10
5.865,0.24656126505113576,77.5000000052372,0,100,3.0,4,1.0370687806865288e-10
5.87,0.24656126505724016,77.50000000244798,0,100,3.0,4,4.8474773150404206e-11
5.875,0.220700632329898,77.50000000112921,0,100,3.0,4,2.2360568842072603e-11
5.88,0.17683207093748562,77.50000000051404,0,100,3.0,4,1.0178911618975978e-11
5.885,0.12682276483597799,77.50000000023093,0,100,3.0,4,4.5727997845947045e-12
5.89,0.08141644409447898,77.50000000010237,0,100,3.0,4,2.0272276706597077e-12
5.895,0.04678490952598309,77.50000000004479,0,100,3.0,4,8.869824566795389e-13
5.9,0.024064605020532023,77.50000000001934,0,100,3.0,4,3.829895696512857e-13
5.905,0.011080171739334697,77.50000000000824,0,100,3.0,4,1.632137769270725e-13
5.91,0.004571212771509492,77.50000000000347,0,100,3.0,4,6.86623475348374e-14
5.915,0.0017299316936037438,77.50000000000144,0,100,3.0,4,2.842170943040401e-14
5.92,0.0008899431850697582,77.50000000000058,0,100,3.0,4,1.1537525610362024e-14
5.925,0.002128806368910263,77.50000000000024,0,100,3.0,4,4.783852082345229e-15
5.93,0.009309664818487698,77.5000000000001,0,100,3.0,4,1.969821445671565e-15
5.935,0.03503263543368747,77.50000000000004,0,100,3.0,4,8.442091910020992e-16
5.94,0.10606267793605692,77.50000000000001,0,100,3.0,4,2.814030636673664e-16
5.945,0.25734927343160535,77.5,0,100,3.0,4,0.0
5.95,0.5003202479539708,77.5,0,100,3.0,4,0.0
5.955,0.7793067891790435,77.5,0,100,3.0,4,0.0
5.96,0.9720477407234077,77.5000029632167,1,100,3.0,4,5.867755844249559e-08
5.965,0.967267334488097,77.50000655696266,0,100,3.0,4,1.298408447513397e-07
5.97,0.7505869905515209,77.50001601034491,0,100,3.0,4,3.170365328240241e-07
5.975,0.4028369574773956,77.50004544101657,0,100,3.0,4,8.99822110244317e-07
5.98,0.04553881263121314,77.50014869178591,0,100,3.0,4,2.9443918001921736e-06
5.985,-0.189138810908105,77.50052429040315,0,100,3.0,4,1.0381988181169357e-05
5.99,-0.22868072635956738,77.50185613108916,0,100,3.0,4,3.675507107238833e-05
5.995,-0.14104670682394166,77.50631081326587,0,100,3.0,4,0.0001249665993241544
6.0,-0.051158381651102834,77.52014975748361,0,100,3.0,4,0.000399005098685312
6.005,-0.008206426846427752,77.55979081098688,0,100,3.0,4,0.001183976455185793
6.01,0.005350271385530505,77.66409531549888,0,100,3.0,4,0.003249412188096704
6.015,0.01084668799215426,77.9156022259755,0,100,3.0,4,0.008229747049019897
6.02,0.016256859896386415,78.47030047466006,0,100,3.0,4,0.019213870785347805
6.025,0.02345021205790711,79.58710350394266,0,100,3.0,5,0.04132878225629024
6.03,0.0330621597308209,81.63493153707977,0,100,3.0,5,0.0818798324174211
6.035,0.04559141319943196,85.04422605737544,0,100,3.0,5,0.14939061499753345
6.04,0.06149084917446989,90.17506082931254,0,100,3.0,5,0.2509913035507434
6.045,0.08111733445924295,97.10922237651356,0,100,3.0,5,0.38830143319828825
6.05,0.1046628598272375,105.4348054683108,0,100,3.0,5,0.5531644647190257
6.055,0.1320831047748631,114.14543827115567,0,100,3.0,5,0.7256522429931815
6.06,0.16303381314489318,121.77068305917047,0,100,3.0,5,0.8766471892905042
6.065,0.19682662652900276,126.76053431716763,0,100,3.0,5,0.9754561250924282
6.07,0.23241585813229,128.0,0,100,3.0,5,1.0
6.075,0.26842527782774417,125.22328551958378,0,100,3.0,5,0.9450155548432432
6.08,0.30321927900592993,119.11876940758584,0,100,3.0,5,0.8241340476749672
6.085,0.3350163137995362,111.06952938464173,0,100,3.0,5,0.6647431561315194
6.09,0.3620352400956416,102.6640997429807,0,100,3.0,5,0.4982990048114989
6.095,0.3826586036805073,95.21435532988534,0,100,3.0,5,0.35077931346307595
6.1,0.39559233134833227,89.47593013908856,0,100,3.0,5,0.23714713146710023
6.105,0.4,85.62914672129747,0,100,3.0,5,0.16097320240193017
6.11,0.39559233134833227,83.44602405169233,0,100,3.0,5,0.11774305052856106
6.115,0.3826586036805073,82.51418034326288,0,100,3.0,5,0.09929069986659167
6.12,0.3620352400956416,82.41498968684074,0,100,3.0,5,0.09732652845229191
6.125,0.3350163137995362,82.8162323398421,0,100,3.0,5,0.10527192752162579
6.13,0.3032192790059296,83.49152410841626,0,100,3.0,5,0.11864404175081698
6.135,0.26842527782774417,84.29989131592993,0,100,3.0,5,0.1346513131867312
6.14,0.23241585813229,85.15492185345755,0,100,3.0,5,0.15158261095955547
6.145,0.19682662652900276,85.99944257654766,0,100,3.0,5,0.16830579359500328
6.15,0.16303381314489318,86.7900828794801,0,100,3.0,5,0.18396203721742763
6.155,0.13208310477486307,87.49011325161499,0,100,3.0,5,0.19782402478445515
6.16,0.10466285982723562,88.06741819367026,0,100,3.0,5,0.20925580581525274
6.165,0.08111733445917907,88.49500148369576,0,100,3.0,5,0.21772280165734176
6.17,0.06149084917398798,88.7523881564347,0,100,3.0,5,0.22281956745415257
6.175,0.04559141333598128,88.82702867957946,0,100,3.0,5,0.22429759761543477
6.18,0.03306217087257399,88.71524935893724,0,100,3.0,5,0.22208414572152957
6.185,0.02345067901074276,88.42253532440515,0,100,3.0,5,0.2162878282060425
6.19,0.016268788896435526,87.96308039899121,0,100,3.0,5,0.20718971087111307
6.195,0.011039026374860051,87.35864540324948,0,100,3.0,5,0.1952207010544452
6.2,0.007326255555493689,86.6368502846674,0,100,3.0,5,0.1809277284092555
6.205,0.0047556414315231815,85.82908607103306,0,100,3.0,5,0.16493239744619922
6.21,0.0030193390635632803,84.96826586573214,0,100,3.0,5,0.14788645278677495
6.215,0.001874953127946523,84.08663760203554,0,100,3.0,5,0.13042846736704033
6.22,0.0011387927410965778,83.2138567338529,0,100,3.0,5,0.11314567789807708
6.225,0.0006765107634274089,82.37547016896139,0,100,3.0,5,0.09654396374180961
6.23,0.00039307957404427924,81.5919021412145,0,100,3.0,5,0.08102776517256444
6.235,0.00022338910511776318,80.8779681711764,0,100,3.0,5,0.06689045883517634
6.24,0.00012417073320013317,80.24288403167223,0,100,3.0,5,0.054314535280638274
6.245,6.750753468904987e-05,79.69068996060383,0,100,3.0,5,0.043379999219877896
6.25,3.5897234866245036e-05,79.22098057593206,0,100,3.0,5,0.03407882328578337
6.255,1.8670050400879738e-05,78.82981919714364,0,100,3.0,5,0.026333053408784855
6.26,9.497421874143672e-06,78.51071987622515,0,100,3.0,5,0.0200142549747555
6.265,4.725434140340885e-06,78.25559764113524,0,100,3.0,5,0.014962329527430474
6.27,2.299606063738814e-06,78.05561243800646,0,100,3.0,5,0.011002226495177486
6.275,1.0945633976635486e-06,77.90186011486975,0,100,3.0,5,0.007957626037024722
6.28,5.095703414287532e-07,77.78589030472493,0,100,3.0,5,0.00566119415296891
6.285,2.3202944964797243e-07,77.70005321255698,0,100,3.0,5,0.003961449753603574
6.29,1.0333746954038608e-07,77.63769342762592,0,100,3.0,5,0.0027266025272459243
6.295,4.501406988770349e-08,77.59321857741432,0,100,3.0,5,0.001845912424045926
6.3,0.0,77.56207451138886,0,100,3.0,5,0.0012291982453239098
6.305,0.0,77.54065797339315,0,100,3.0,5,0.0008051083840228168
6.31,0.0,77.5261938733732,0,100,3.0,5,0.0005186905618455908
6.315,0.0,77.51659874675121,0,100,3.0,5,0.0003286880544794825
6.32,0.0,77.51034599949604,0,100,3.0,5,0.00020487127714928458
6.325,0.0,77.50634294850691,0,100,3.0,5,0.00012560294073093452
6.33,0.0,77.50382500050979,0,100,3.0,5,7.574258435232031e-05
6.335,0.0,77.50226878523836,0,100,3.0,5,4.4926440363503776e-05
6.34,0.0,77.5013236612559,0,100,3.0,5,2.6211113978129872e-05
6.345,0.0,77.50075959466382,0,100,3.0,5,1.5041478491465937e-05
6.35,0.0,77.50042875434282,0,100,3.0,5,8.490185006347038e-06
6.355,0.0,77.50023804372503,0,100,3.0,5,4.71373712938171e-06
6.36,0.0,77.50012999496224,0,100,3.0,5,2.5741576680479963e-06
6.365,0.0,77.50006982611599,0,100,3.0,5,1.3826953661329285e-06
6.37,0.0,77.50003689188343,0,100,3.0,5,7.305323450590648e-07
6.375,0.001684486749771458,77.50001917190855,0,100,3.0,5,3.7964175342242717e-07
6.38,0.00456624331333666,77.50000979989558,0,100,3.0,5,1.9405733820745484e-07
6.385,0.011079731271581421,77.50000492718793,0,100,3.0,5,9.7568077832632e-08
6.39,0.024064571490409,77.50000243667935,0,100,3.0,5,4.825107628739085e-08
6.395,0.046784906529573234,77.50000118527527,0,100,3.0,5,2.34707973540575e-08
6.4,0.08141644351188804,77.50000056710259,0,100,3.0,5,1.1229754235419834e-08
6.405,0.12682276464025305,77.5000002668859,0,100,3.0,5,5.284869413378264e-09
6.41,0.1768320708657512,77.50000012354103,0,100,3.0,5,2.4463569915686023e-09
6.415,0.22070063230473494,77.50000005624946,0,100,3.0,5,1.1138507322204245e-09
6.42,0.24656126505113576,77.5000000251911,0,100,3.0,5,4.988336432589757e-10
6.425,0.24656126505724016,77.50000001109679,0,100,3.0,5,2.197383661167454e-10
6.43,0.220700632329898,77.50000000480806,0,100,3.0,5,9.520906835202575e-11
6.435,0.17683207093748562,77.50000000204909,0,100,3.0,5,4.05760705563249e-11
6.44,0.12682276483597799,77.50000000085898,0,100,3.0,5,1.7009408183373963e-11
6.445,0.08141644409447898,77.50000000035418,0,100,3.0,5,7.013408555781773e-12
6.45,0.04678490952598309,77.50000000014364,0,100,3.0,5,2.8444221675497395e-12
6.455,0.024064605020532023,77.5000000000573,0,100,3.0,5,1.1346171527068214e-12
6.46,0.011080171739334697,77.50000000002248,0,100,3.0,5,4.4517964672177365e-13
6.465,0.004571212771509492,77.50000000000868,0,100,3.0,5,1.7193727190076088e-13
6.47,0.0017299316936037438,77.5000000000033,0,100,3.0,5,6.5285510770829e-14
6.475,0.0008899431850697582,77.50000000000122,0,100,3.0,5,2.420066347539351e-14
6.48,0.002128806368910263,77.50000000000045,0,100,3.0,5,9.004898037355725e-15
6.485,0.009309664818487698,77.50000000000016,0,100,3.0,5,3.0954337003410305e-15
6.49,0.03503263543368747,77.50000000000006,0,100,3.0,5,1.1256122546694657e-15
6.495,0.10606267793605692,77.50000000000001,0,100,3.0,5,2.814030636673664e-16
6.5,0.25734927343160535,77.5,0,100,3.0,5,0.0
6.505,0.5003202479539708,77.5,0,100,3.0,5,0.0
6.51,0.7793067891790435,77.5,0,100,3.0,5,0.0
6.515,0.9720477407234077,77.500002961856,1,100,3.0,5,5.865061381774638e-08
6.52,0.967267334488097,77.500006041423,0,100,3.0,5,1.1963213873878877e-07
6.525,0.7505869905515209,77.50001328138595,0,100,3.0,5,2.629977415165173e-07
6.53,0.4028369574773956,77.50003283321637,0,100,3.0,5,6.501627003199426e-07
6.535,0.04553881263121314,77.50009198824264,0,100,3.0,5,1.8215493592959877e-06
6.54,-0.189138810908105,77.50028074560149,0,100,3.0,5,5.559318841314602e-06
6.545,-0.22868072635956738,77.50088215537116,0,100,3.0,5,1.7468423191256096e-05
6.55,-0.14104670682394166,77.5027317136506,0,100,3.0,5,5.409333961592487e-05
6.555,-0.051158381651102834,77.50812515206187,0,100,3.0,5,0.00016089410023495125
6.56,-0.008206426846427752,77.52290585167412,0,100,3.0,5,0.0004535812212697967
6.565,0.005350271385530505,77.5607994860294,0,100,3.0,5,0.0012039502184038745
6.57,0.01084668799215426,77.65144697964095,0,100,3.0,5,0.0029989500919000286
6.575,0.016256859896386415,77.85343089561607,0,100,3.0,5,0.00699863159635785
6.58,0.02345021205790711,78.27206809920676,0,100,3.0,5,0.015288477212015105
6.585,0.0330621597308209,79.07802187804528,0,100,3.0,5,0.031247957981094594
6.59,0.04559141319943196,80.51693895137673,0,100,3.0,5,0.05974136537379663
6.595,0.06149084917446989,82.89454088046219,0,100,3.0,5,0.10682259169232054
6.6,0.08111733445924295,86.52074732919208,0,100,3.0,5,0.17862865998400151
6.605,0.1046628598272375,91.60628022891433,0,100,3.0,5,0.2793322817606798
6.61,0.1320831047748631,98.12800786254579,0,100,3.0,5,0.40847540321872844
6.615,0.16303381314489318,105.70840989696592,0,100,3.0,5,0.5585823741973449
6.62,0.19682662652900276,113.57344353324595,0,100,3.0,5,0.7143256145197218
6.625,0.23241585813229,120.64276888442222,0,100,3.0,5,0.8543122551370738
6.63,0.26842527782774417,125.75956336367835,0,100,3.0,5,0.9556349180926407
6.635,0.30321927900592993,128.0,0,100,3.0,5,1.0
6.64,0.3350163137995362,126.95061745029365,0,100,3.0,5,0.9792201475305673
6.645,0.3620352400956416,122.84001560912182,0,100,3.0,5,0.897822091269739
6.65,0.3826586036805073,116.46801010317881,0,100,3.0,5,0.7716437644193824
6.655,0.39559233134833227,108.96296573740314,0,100,3.0,5,0.6230290245030324
6.66,0.4,101.46881286087532,0,100,3.0,5,0.4746299576410954
6.665,0.39559233134833227,94.88053871179497,0,100,3.0,5,0.34416908340188057
6.67,0.3826586036805073,89.70779311233117,0,100,3.0,5,0.24173847747190444
6.675,0.3620352400956416,86.07956026661839,0,100,3.0,5,0.1698922825072948
6.68,0.3350163137995362,83.84687409322002,0,100,3.0,5,0.1256806751132678
6.685,0.3032192790059296,82.7187027867249,0,100,3.0,5,0.10334064924207731
6.69,0.26842527782774417,82.37771688222631,0,100,3.0,5,0.09658845311339226
6.695,0.23241585813229,82.55072048744152,0,100,3.0,5,0.10001426707804997
6.7,0.19682662652900276,83.03453037589074,0,100,3.0,5,0.1095946609087275
6.705,0.16303381314489318,83.69208055632127,0,100,3.0,5,0.12261545656081728
6.71,0.13208310477486307,84.43544696634281,0,100,3.0,5,0.1373355834919368
6.715,0.10466285982723562,85.20760297898806,0,100,3.0,5,0.15262580156412006
6.72,0.08111733445917907,85.96850260217812,0,100,3.0,5,0.1676931208352103
6.725,0.06149084917398798,86.6865931944108,0,100,3.0,5,0.18191273652298623
6.73,0.04559141333598128,87.33469336179016,0,100,3.0,5,0.19474640320376552
6.735,0.03306217087257399,87.88866412777621,0,100,3.0,5,0.20571612134210315
6.74,0.02345067901074276,88.32756689971691,0,100,3.0,5,0.21440726534092897
6.745,0.016268788896435526,88.63444229094094,0,100,3.0,5,0.22048400576120672
6.75,0.011039026374860051,88.7972016808272,0,100,3.0,5,0.22370696397677625
6.755,0.007326255555493689,88.80935150413694,0,100,3.0,5,0.22394755453736517
6.76,0.0047556414315231815,88.67040269484706,0,100,3.0,5,0.22119609296726842
6.765,0.0030193390635632803,88.38589749796584,0,100,3.0,5,0.21556232669239292
6.77,0.001874953127946523,87.96704111602165,0,100,3.0,5,0.20726814091131976
6.775,0.0011387927410965778,87.42996910265714,0,100,3.0,5,0.19663305153776514
6.78,0.0006765107634274089,86.79471636674512,0,100,3.0,5,0.18405378944049744
6.785,0.00039307957404427924,86.08397933237504,0,100,3.0,5,0.16997978875990172
6.79,0.00022338910511776318,85.32177758289465,0,100,3.0,5,0.15488668480979514
6.795,0.00012417073320013317,84.53212429988861,0,100,3.0,5,0.13924998613640807
6.8,6.750753468904987e-05,83.7378064113005,0,100,3.0,5,0.1235209190356534
6.805,3.5897234866245036e-05,82.95935736032456,0,100,3.0,5,0.1081060863430606
6.81,1.8670050400879738e-05,82.21428063285789,0,100,3.0,5,0.09335209173976025
6.815,9.497421874143672e-06,81.51655406697313,0,100,3.0,5,0.0795357240984778
6.82,4.725434140340885e-06,80.8764170164331,0,100,3.0,5,0.06685974289966524
6.825,2.299606063738814e-06,80.30041774319758,0,100,3.0,5,0.05545381669698188
6.83,1.0945633976635486e-06,79.7916792805792,0,100,3.0,5,0.04537978773424164
6.835,5.095703414287532e-07,79.35032975682887,0,100,3.0,5,0.03664019320453208
6.84,2.3202944964797243e-07,78.97403808767992,0,100,3.0,5,0.029188873023364655
6.845,1.0333746954038608e-07,78.65859741440458,0,100,3.0,5,0.022942523057516477
6.85,4.501406988770349e-08,78.39850537991533,0,100,3.0,5,0.01779218574089772
6.855,0.0,78.1875006071592,0,100,3.0,5,0.01361387340909295
6.86,0.0,78.01902678123402,0,100,3.0,5,0.010277758044237983
6.865,0.0,77.8866079019436,0,100,3.0,5,0.007655602018685262
6.87,0.0,77.78412926151917,0,100,3.0,5,0.0056263220102805754
6.875,0.0,77.70602763440992,0,100,3.0,5,0.004079755136830114
6.88,0.0,77.64740060525696,0,100,3.0,5,0.002918823866474497
6.885,0.0,77.604048862077,0,100,3.0,5,0.0020603735064751187
6.89,0.0,77.57246689949535,0,100,3.0,5,0.0014349881088188759
6.895,0.0,77.54979735814472,0,100,3.0,5,0.000986086299895357
6.9,0.0,77.53376270259416,0,100,3.0,5,0.0006685683682011887
6.905,0.0,77.52258563891289,0,100,3.0,5,0.000447240374512603
6.91,0.0,77.51490705436474,0,100,3.0,5,0.0002951891953414091
6.915,0.0,77.50970768257822,0,100,3.0,5,0.00019223133818265054
6.92,0.0,77.50623739972342,0,100,3.0,5,0.000123512865810248
6.925,0.0,77.50395417479393,0,100,3.0,5,7.830049096895945e-05
6.93,0.0,77.50247327511215,0,100,3.0,5,4.8975744795087046e-05
6.935,0.0,77.50152634696913,0,100,3.0,5,3.0224692458002417e-05
6.94,0.0,77.50092939083888,0,100,3.0,5,1.840377898766332e-05
6.945,0.0,77.50055835162344,0,100,3.0,5,1.1056467790881876e-05
6.95,0.0,77.50033096453323,0,100,3.0,5,6.553753133339972e-06
6.955,0.0,77.50019356169078,0,100,3.0,5,3.832904767894361e-06
6.96,0.0,77.50011169188872,0,100,3.0,5,2.2117205686966075e-06
6.965,0.0,77.50006358989972,0,100,3.0,5,1.2592059351395573e-06
6.97,0.0,77.5000357206146,0,100,3.0,5,7.07338903067007e-07
6.975,0.0,77.50001979766552,0,100,3.0,5,3.920329805119349e-07
6.98,0.0,77.50001082613204,0,100,3.0,5,2.1437885228950486e-07
6.985,0.0,77.50000584113084,0,100,3.0,5,1.156659572873173e-07
6.99,0.001684486749771458,77.50000310945893,0,100,3.0,5,6.157344416513495e-08
6.995,0.00456624331333666,77.50000163319106,0,100,3.0,5,3.234041705942254e-08
7.0,0.011079731271581421,77.50000084635671,0,100,3.0,5,1.6759538865618098e-08
7.005,0.024064571490409,77.5000004327471,0,100,3.0,5,8.569249512400364e-09
7.01,0.046784906529573234,77.50000021831278,0,100,3.0,5,4.323025299671295e-09
7.015,0.08141644351188804,77.5000001086647,0,100,3.0,5,2.151776103832757e-09
7.02,0.12682276464025305,77.50000005336567,0,100,3.0,5,1.0567458899134695e-09
7.025,0.1768320708657512,77.50000002585828,0,100,3.0,5,5.120452356950949e-10
7.03,0.22070063230473494,77.50000001236238,0,100,3.0,5,2.447995601608337e-10
7.035,0.24656126505113576,77.50000000583134,0,100,3.0,5,1.154720587575218e-10
7.04,0.24656126505724016,77.50000000271393,0,100,3.0,5,5.374123148693897e-11
7.045,0.220700632329898,77.50000000124622,0,100,3.0,5,2.4677641668309697e-11
7.05,0.17683207093748562,77.50000000056461,0,100,3.0,5,1.1180425122568135e-11
7.055,0.12682276483597799,77.50000000025238,0,100,3.0,5,4.997718410732428e-12
7.06,0.08141644409447898,77.50000000011131,0,100,3.0,5,2.204230197706481e-12
7.065,0.04678490952598309,77.50000000004844,0,100,3.0,5,9.59303044042052e-13
7.07,0.024064605020532023,77.5000000000208,0,100,3.0,5,4.1197408520902444e-13
7.075,0.011080171739334697,77.50000000000881,0,100,3.0,5,1.7446989947376718e-13
7.08,0.004571212771509492,77.50000000000368,0,100,3.0,5,7.28833934898479e-14
7.085,0.0017299316936037438,77.50000000000152,0,100,3.0,5,3.011012781240821e-14
7.09,0.0008899431850697582,77.50000000000061,0,100,3.0,5,1.2100331737696755e-14
7.095,0.002128806368910263,77.50000000000024,0,100,3.0,5,4.783852082345229e-15
7.1,0.009309664818487698,77.5000000000001,0,100,3.0,5,1.969821445671565e-15
7.105,0.03503263543368747,77.50000000000004,0,100,3.0,5,8.442091910020992e-16
7.11,0.10606267793605692,77.50000000000001,0,100,3.0,5,2.814030636673664e-16
7.115,0.25734927343160535,77.5,0,100,3.0,5,0.0
7.12,0.5003202479539708,77.5,0,100,3.0,5,0.0
7.125,0.7793067891790435,77.5,0,100,3.0,5,0.0
7.13,0.9720477407234077,77.50000296047277,1,100,3.0,5,5.862322316914125e-08
7.135,0.967267334488097,77.50000556968264,0,100,3.0,5,1.1029074539017006e-07
7.14,0.7505869905515209,77.50001107361088,0,100,3.0,5,2.1927942332758273e-07
7.145,0.4028369574773956,77.5000240274186,0,100,3.0,5,4.757904674074825e-07
7.15,0.04553881263121314,77.50005775887072,0,100,3.0,5,1.1437400143456604e-06
7.155,-0.189138810908105,77.50015126044384,0,100,3.0,5,2.995256313726155e-06
7.16,-0.22868072635956738,77.50041533893004,0,100,3.0,5,8.224533268116154e-06
7.165,-0.14104670682394166,77.5011510522014,0,100,3.0,5,2.2793112898882263e-05
7.17,-0.051158381651102834,77.50313388306245,0,100,3.0,5,6.205709034547187e-05
7.175,-0.008206426846427752,77.50824853235738,0,100,3.0,5,0.00016333727440366087
7.18,0.005350271385530505,77.52080291886513,0,100,3.0,5,0.00041193898742830745
7.185,0.01084668799215426,77.55003339148001,0,100,3.0,5,0.0009907602273270047
7.19,0.016256859896386415,77.6144660480126,0,100,3.0,5,0.00226665441609113
7.195,0.02345021205790711,77.74875586432796,0,100,3.0,5,0.004925858699563589
7.2,0.0330621597308209,78.0131174684089,0,100,3.0,5,0.010160741948690957
7.205,0.04559141319943196,78.50419578045056,0,100,3.0,5,0.019885064959417
7.21,0.06149084917446989,79.36409811046595,0,100,3.0,5,0.03691283387061279
7.215,0.08111733445924295,80.78173370604658,0,100,3.0,5,0.06498482586230853
7.22,0.1046628598272375,82.97877557383904,0,100,3.0,5,0.10849060542255534
7.225,0.1320831047748631,86.1733398687698,0,100,3.0,5,0.17174930433207528
7.23,0.16303381314489318,90.51963997360265,0,100,3.0,6,0.25781465294262673
7.235,0.19682662652900276,96.03170619908008,0,100,3.0,6,0.3669644791897045
7.24,0.23241585813229,102.51124939563206,0,100,3.0,6,0.49527226526004087
7.245,0.26842527782774417,109.508420845892,0,100,3.0,6,0.6338301157602377
7.25,0.30321927900592993,116.34312073822883,0,100,3.0,6,0.7691707076876997
7.255,0.3350163137995362,122.19991598368705,0,100,3.0,6,0.8851468511621198
7.26,0.3620352400956416,126.28414378119781,0,100,3.0,6,0.9660226491326299
7.265,0.3826586036805073,128.0,0,100,3.0,6,1.0
7.27,0.39559233134833227,127.09620305207548,0,100,3.0,6,0.9821030307341679
7.275,0.4,123.73047494474659,0,100,3.0,6,0.9154549494009225
7.28,0.39559233134833227,118.43035369907331,0,100,3.0,6,0.8105020534469962
7.285,0.3826586036805073,111.96402693505901,0,100,3.0,6,0.6824559789120596
7.29,0.3620352400956416,105.16499395104967,0,100,3.0,6,0.5478216623970231
7.295,0.3350163137995362,98.76568295831183,0,100,3.0,6,0.421102632837858
7.3,0.3032192790059296,93.28462585224715,0,100,3.0,6,0.3125668485593494
7.305,0.26842527782774417,88.98673655443307,0,100,3.0,6,0.22746012979075378
7.31,0.23241585813229,85.9093029300082,0,100,3.0,6,0.16652085009917217
7.315,0.19682662652900276,83.92843044777212,0,100,3.0,6,0.127295652431131
7.32,0.16303381314489318,82.83633188842659,0,100,3.0,6,0.10566993838468486
7.325,0.13208310477486307,82.40664661068128,0,100,3.0,6,0.09716131902339165
7.33,0.10466285982723562,82.43673434845005,0,100,3.0,6,0.09775711581089198
7.335,0.08111733445917907,82.76663175759897,0,100,3.0,6,0.10428973777423707
7.34,0.06149084917398798,83.28076331596857,0,100,3.0,6,0.11447056071224893
7.345,0.04559141333598128,83.9002438965322,0,100,3.0,6,0.12673750290162777
7.35,0.03306217087257399,84.572240016131,0,100,3.0,6,0.1400443567550694
7.355,0.02345067901074276,85.26031508227125,0,100,3.0,6,0.15366960558952966
7.36,0.016268788896435526,85.93736730146371,0,100,3.0,6,0.16707658022700414
7.365,0.011039026374860051,86.58127053057453,0,100,3.0,6,0.17982713921929758
7.37,0.007326255555493689,87.1726432429361,0,100,3.0,6,0.19153748995913078
7.375,0.0047556414315231815,87.694028917787,0,100,3.0,6,0.2018619587680593
7.38,0.0030193390635632803,88.12988670856303,0,100,3.0,6,0.2104928061101591
7.385,0.001874953127946523,88.4669720570697,0,100,3.0,6,0.21716776350633063
7.39,0.0011387927410965778,88.69484257659452,0,100,3.0,6,0.22168005102167376
7.395,0.0006765107634274089,88.8063319009262,0,100,3.0,6,0.22388776041438013
7.4,0.00039307957404427924,88.79790084933654,0,100,3.0,6,0.2237208088977533
7.405,0.00022338910511776318,88.66981609089675,0,100,3.0,6,0.2211844770474603
7.41,0.00012417073320013317,88.42613358855499,0,100,3.0,6,0.21635908096148496
7.415,6.750753468904987e-05,88.0744845220037,0,100,3.0,6,0.20939573310898418
7.42,3.5897234866245036e-05,87.62567819440363,0,100,3.0,6,0.20050847909710165
7.425,1.8670050400879738e-05,87.09315034872499,0,100,3.0,6,0.18996337324207901
7.43,9.497421874143672e-06,86.49229604110842,0,100,3.0,6,0.17806526814076074
7.435,4.725434140340885e-06,85.839733183567,0,100,3.0,6,0.1651432313577625
7.44,2.299606063738814e-06,85.15254569378922,0,100,3.0,6,0.15153555829285587
7.445,1.0945633976635486e-06,84.4475538502144,0,100,3.0,6,0.13757532376662188
7.45,5.095703414287532e-07,83.74065431849706,0,100,3.0,6,0.12357731323756563
7.455,2.3202944964797243e-07,83.04626411621985,0,100,3.0,6,0.10982701220237318
7.46,1.0333746954038608e-07,82.37689249608799,0,100,3.0,6,0.09657212863540575
7.465,4.501406988770349e-08,81.74285346228184,0,100,3.0,6,0.08401690024320482
7.47,0.0,81.1521204948284,0,100,3.0,6,0.07231921771937416
7.475,0.0,80.61031502348177,0,100,3.0,6,0.0615903965045896
7.48,0.0,80.12081202893135,0,100,3.0,6,0.051897267899630777
7.485,0.0,79.6849403434688,0,100,3.0,6,0.04326614541522368
7.49,0.0,79.30225197048583,0,100,3.0,6,0.035688157831402514
7.495,0.0,78.9708339622231,0,100,3.0,6,0.029125424994516765
7.5,0.0,78.68763778059531,0,100,3.0,6,0.02351757981376851
7.505,0.0,78.44880414889829,0,100,3.0,6,0.018788200968282973
7.51,0.0,78.2499656296711,0,100,3.0,6,0.01485080454794248
7.515,0.0,78.08651396996184,0,100,3.0,6,0.011614138019046386
7.52,0.0,77.95382412219077,0,100,3.0,6,0.008986616281005284
7.525,0.0,77.84743135229098,0,100,3.0,6,0.006879828758237276
7.53,0.0,77.76316168117287,0,100,3.0,6,0.005211122399462867
7.535,0.0,77.69721889112515,0,100,3.0,6,0.0039053245767355733
7.54,0.0,77.64623340351,0,100,3.0,6,0.0028957109605939743
7.545,0.0,77.60727953405652,0,100,3.0,6,0.00212434720903993
7.55,0.0,77.57786806524479,0,100,3.0,6,0.0015419418860353677
7.555,0.0,77.5559208938475,0,100,3.0,6,0.0011073444326237534
7.56,0.0,77.53973388588446,0,100,3.0,6,0.0007868096214744384
7.565,0.0,77.5279331678281,0,100,3.0,6,0.0005531320361999091
7.57,0.0,77.51942904956836,0,100,3.0,6,0.00038473365481898794
7.575,0.0,77.51337073054874,0,100,3.0,6,0.0002647669415592749
7.58,0.0,77.50910397240045,0,100,3.0,6,0.0001802766811970917
7.585,0.0,77.50613308442568,0,100,3.0,6,0.00012144721635018589
7.59,0.0,77.5040878896962,0,100,3.0,6,8.094831081572723e-05
7.595,0.0,77.5026958244591,0,100,3.0,6,5.338266255635198e-05
7.6,0.0,77.50175896122146,0,100,3.0,6,3.483091527633711e-05
7.605,0.0,77.50113551568005,0,100,3.0,6,2.2485459010844767e-05
7.61,0.0,77.50072527418774,0,100,3.0,6,1.4361865103835792e-05
7.615,0.0,77.50045833552699,0,100,3.0,6,9.075951029422183e-06
7.62,0.0,77.50028657416638,0,100,3.0,6,5.674735967942871e-06
7.625,0.0,77.500177281235,0,100,3.0,6,3.5105195048898997e-06
7.63,0.0,77.50010850773904,0,100,3.0,6,2.1486680998575614e-06
7.635,0.0,77.5000657099104,0,100,3.0,6,1.3011863445896806e-06
7.64,0.0,77.50003937071035,0,100,3.0,6,7.796180268137009e-07
7.645,0.0,77.50002333930081,0,100,3.0,6,4.6216437247962725e-07
7.65,0.0,77.50001368909216,0,100,3.0,6,2.7107113181604163e-07
7.655,0.0,77.50000794389817,0,100,3.0,6,1.5730491422980795e-07
7.66,0.0,77.50000456105074,0,100,3.0,6,9.031783651882487e-08
7.665,0.0,77.50000259100563,0,100,3.0,6,5.130704208244028e-08
7.67,0.0,77.5000014562771,0,100,3.0,6,2.8837170380974935e-08
7.675,0.0,77.50000080982635,0,100,3.0,6,1.603616527576702e-08
7.68,0.001684486749771458,77.50000044556595,0,100,3.0,6,8.823088020369259e-09
7.685,0.00456624331333666,77.50000024255169,0,100,3.0,6,4.803003812052302e-09
7.69,0.011079731271581421,77.50000013063779,0,100,3.0,6,2.586886867533448e-09
7.695,0.024064571490409,77.50000006961544,0,100,3.0,6,1.378523539543575e-09
7.7,0.046784906529573234,77.5000000367041,0,100,3.0,6,7.268137423044109e-10
7.705,0.08141644351188804,77.50000001914678,0,100,3.0,6,3.791441967862711e-10
7.71,0.12682276464025305,77.5000000098821,0,100,3.0,6,1.956851578467136e-10
7.715,0.1768320708657512,77.50000000504632,0,100,3.0,6,9.992707211747282e-11
7.72,0.22070063230473494,77.5000000025496,0,100,3.0,6,5.048708645868954e-11
7.725,0.24656126505113576,77.5000000012745,0,100,3.0,6,2.5237633765007755e-11
7.73,0.24656126505724016,77.50000000063035,0,100,3.0,6,1.2482195695093372e-11
7.735,0.220700632329898,77.50000000030846,0,100,3.0,6,6.108134899963855e-12
7.74,0.17683207093748562,77.50000000014934,0,100,3.0,6,2.9572647960803536e-12
7.745,0.12682276483597799,77.50000000007154,0,100,3.0,6,1.4165830225015225e-12
7.75,0.08141644409447898,77.5000000000339,0,100,3.0,6,6.714277099103363e-13
7.755,0.04678490952598309,77.5000000000159,0,100,3.0,6,3.14890028243783e-13
7.76,0.024064605020532023,77.50000000000738,0,100,3.0,6,1.4604819004336317e-13
7.765,0.011080171739334697,77.50000000000338,0,100,3.0,6,6.69739291528332e-14
7.77,0.004571212771509492,77.50000000000153,0,100,3.0,6,3.0391530876075574e-14
7.775,0.0017299316936037438,77.5000000000007,0,100,3.0,6,1.3788750119700954e-14
7.78,0.0008899431850697582,77.50000000000031,0,100,3.0,6,6.190867400682061e-15
7.785,0.002128806368910263,77.50000000000013,0,100,3.0,6,2.5326275730062976e-15
7.79,0.009309664818487698,77.50000000000006,0,100,3.0,6,1.1256122546694657e-15
7.795,0.03503263543368747,77.50000000000003,0,100,3.0,6,5.628061273347328e-16
7.8,0.10606267793605692,77.50000000000001,0,100,3.0,6,2.814030636673664e-16
7.805,0.25734927343160535,77.5,0,100,3.0,6,0.0
7.81,0.5003202479539708,77.5,0,100,3.0,6,0.0
7.815,0.7793067891790435,77.5,0,100,3.0,6,0.0
7.82,0.9720477407234077,77.50000297947125,1,100,3.0,6,5.8999430643555095e-08
7.825,0.967267334488097,77.50000669548267,0,100,3.0,6,1.3258381520497303e-07
7.83,0.7505869905515209,77.50001668432624,0,100,3.0,6,3.303826978332503e-07
7.835,0.4028369574773956,77.50004864066203,0,100,3.0,6,9.63181426330644e-07
7.84,0.04553881263121314,77.5001638762621,0,100,3.0,6,3.245074497168515e-06
7.845,-0.189138810908105,77.50059305601808,0,100,3.0,6,1.1743683526253451e-05
7.85,-0.22868072635956738,77.50214361864761,0,100,3.0,6,4.244789401204033e-05
7.855,-0.14104670682394166,77.50740440946578,0,100,3.0,6,0.0001466219696193647
7.86,-0.051158381651102834,77.52391675045838,0,100,3.0,6,0.0004735990189778864
7.865,-0.008206426846427752,77.5715281770081,0,100,3.0,6,0.001416399544714948
7.87,0.005350271385530505,77.69717852300056,0,100,3.0,6,0.003904525207931869
7.875,0.01084668799215426,77.99996608244125,0,100,3.0,6,0.009900318464183116
7.88,0.016256859896386415,78.66488444994854,0,100,3.0,6,0.023067018810862275
7.885,0.02345021205790711,79.99269205274055,0,100,3.0,6,0.04936023866812973
7.89,0.0330621597308209,82.39762966193258,0,100,3.0,6,0.09698276558282344
7.895,0.04559141319943196,86.33439214585457,0,100,3.0,6,0.17493845833375377
7.9,0.06149084917446989,92.12891580999748,0,100,3.0,6,0.2896815011880689
7.905,0.08111733445924295,99.73729946877143,0,100,3.0,6,0.44034256373804803
7.91,0.1046628598272375,108.53063759966085,0,100,3.0,6,0.6144680712804128
7.915,0.1320831047748631,117.25196435735869,0,100,3.0,6,0.7871676110368057
7.92,0.16303381314489318,124.25521878140476,0,100,3.0,6,0.9258459164634607
7.925,0.19682662652900276,128.0,0,100,3.0,6,1.0
7.93,0.23241585813229,127.60821013993106,0,100,3.0,6,0.99224178494913
7.935,0.26842527782774417,123.21009401234988,0,100,3.0,6,0.9051503764821759
7.94,0.30321927900592993,115.89514598451852,0,100,3.0,6,0.7602999204855153
7.945,0.3350163137995362,107.29447867544081,0,100,3.0,6,0.5899896767414022
7.95,0.3620352400956416,99.01424251870807,0,100,3.0,6,0.42602460433085293
7.955,0.3826586036805073,92.18796047940592,0,100,3.0,6,0.2908507025624934
7.96,0.39559233134833227,87.30619325917266,0,100,3.0,6,0.19418204473609224
7.965,0.4,84.31153753264881,0,100,3.0,6,0.13488193133958046
7.97,0.39559233134833227,82.8311073691211,0,100,3.0,6,0.10556648255685346
7.975,0.3826586036805073,82.40599310593515,0,100,3.0,6,0.09714837833534956
7.98,0.3620352400956416,82.63713816175672,0,100,3.0,6,0.10172550815359849
7.985,0.3350163137995362,83.23817846509434,0,100,3.0,6,0.1136272963385017
7.99,0.3032192790059296,84.02691167312304,0,100,3.0,6,0.1292457757054067
7.995,0.26842527782774417,84.89307467702398,0,100,3.0,6,0.1463975183569104
8.0,0.23241585813229,85.76705880776896,0,100,3.0,6,0.16370413480730617
8.005,0.19682662652900276,86.59894936510275,0,100,3.0,6,0.1801772151505496
8.01,0.16303381314489318,87.34785757910886,0,100,3.0,6,0.1950070807744329
8.015,0.13208310477486307,87.97819166628076,0,100,3.0,6,0.20748894388674782
8.02,0.10466285982723562,88.45958304429135,0,100,3.0,6,0.2170214464216109
8.025,0.08111733445917907,88.76826866188912,0,100,3.0,6,0.22313403290869552
8.03,0.06149084917398798,88.88869777488769,0,100,3.0,6,0.22551876781955818
8.035,0.04559141333598128,88.8147323001406,0,100,3.0,6,0.22405410495327932
8.04,0.03306217087257399,88.55013959537686,0,100,3.0,6,0.21881464545300716
8.045,0.02345067901074276,88.1082683696946,0,100,3.0,6,0.21006472019197225
8.05,0.016268788896435526,87.51093131541633,0,100,3.0,6,0.19823626367161049
8.055,0.011039026374860051,86.78662085692815,0,100,3.0,6,0.18389348231540897
8.06,0.007326255555493689,85.96826028051984,0,100,3.0,6,0.16768832238653153
8.065,0.0047556414315231815,85.09073675815792,0,100,3.0,6,0.1503116189734241
8.07,0.0030193390635632803,84.18847199298509,0,100,3.0,6,0.1324449899601007
8.075,0.001874953127946523,83.29326166418531,0,100,3.0,6,0.11471805275614473
8.08,0.0011387927410965778,82.4325628331511,0,100,3.0,6,0.09767451154754644
8.085,0.0006765107634274089,81.6283390472271,0,100,3.0,6,0.08174928806390298
8.09,0.00039307957404427924,80.89649780311149,0,100,3.0,6,0.06725738223983142
8.095,0.00022338910511776318,80.24688557285587,0,100,3.0,6,0.05439377371991829
8.1,0.00012417073320013317,79.68375065546115,0,100,3.0,6,0.04324258723685453
8.105,6.750753468904987e-05,79.2065490600829,0,100,3.0,6,0.03379305069471102
8.11,3.5897234866245036e-05,78.81095491810038,0,100,3.0,6,0.02595950332872037
8.115,1.8670050400879738e-05,78.48994253721577,0,100,3.0,6,0.019602822519124118
8.12,9.497421874143672e-06,78.23482760765253,0,100,3.0,6,0.014551041735693738
8.125,4.725434140340885e-06,78.03618442262216,0,100,3.0,6,0.010617513319250621
8.13,2.299606063738814e-06,77.88458839065662,0,100,3.0,6,0.007615611696170638
8.135,1.0945633976635486e-06,77.77116360414196,0,100,3.0,6,0.005369576319642791
8.14,5.095703414287532e-07,77.68794028219736,0,100,3.0,6,0.0037215897464823746
8.145,2.3202944964797243e-07,77.62804469831093,0,100,3.0,6,0.0025355385804144556
8.15,1.0333746954038608e-07,77.58575443254034,0,100,3.0,6,0.001698107575056257
8.155,4.501406988770349e-08,77.55645531088335,0,100,3.0,6,0.0011179269481851636
8.16,0.0,77.5365347616806,0,100,3.0,6,0.0007234606273385961
8.165,0.0,77.52324133142528,0,100,3.0,6,0.00046022438465905734
8.17,0.0,77.51453345862433,0,100,3.0,6,0.00028779125988768274
8.175,0.0,77.508933676106,0,100,3.0,6,0.00017690447734647176
8.18,0.0,77.50539814662669,0,100,3.0,6,0.00010689399260770349
8.185,0.0,77.50320636087476,0,100,3.0,6,6.349229454963054e-05
8.19,0.0,77.50187211866701,0,100,3.0,6,3.707165677245948e-05
8.195,0.0,77.50107450291127,0,100,3.0,6,2.1277285371594854e-05
8.2,0.0,77.50060622671245,0,100,3.0,6,1.2004489355428569e-05
8.205,0.0,77.50033621399805,0,100,3.0,6,6.6577029317591265e-06
8.21,0.0,77.50018329463894,0,100,3.0,6,3.6295968107757594e-06
8.215,0.0,77.50009822838055,0,100,3.0,6,1.9451164465602115e-06
8.22,0.0,77.50005174607993,0,100,3.0,6,1.0246748501577884e-06
8.225,0.001684486749771458,77.50002679607444,0,100,3.0,6,5.30615335379696e-07
8.23,0.00456624331333666,77.50001364011858,0,100,3.0,6,2.701013580454036e-07
8.235,0.011079731271581421,77.50000682524689,0,100,3.0,6,1.3515340366337672e-07
8.24,0.024064571490409,77.50000335715842,0,100,3.0,6,6.647838454858237e-08
8.245,0.046784906529573234,77.50000162322436,0,100,3.0,6,3.214305670913781e-08
8.25,0.08141644351188804,77.5000007715046,0,100,3.0,6,1.5277318859919224e-08
8.255,0.12682276464025305,77.50000036045557,0,100,3.0,6,7.1377341177283975e-09
8.26,0.1768320708657512,77.50000016554581,0,100,3.0,6,3.2781349208301317e-09
8.265,0.22070063230473494,77.50000007473739,0,100,3.0,6,1.4799482387658855e-09
8.27,0.24656126505113576,77.50000003316735,0,100,3.0,6,6.567792734311315e-10
8.275,0.24656126505724016,77.50000001446895,0,100,3.0,6,2.8651390610969314e-10
8.28,0.220700632329898,77.50000000620464,0,100,3.0,6,1.2286423583699984e-10
8.285,0.17683207093748562,77.50000000261547,0,100,3.0,6,5.179138965878779e-11
8.29,0.12682276483597799,77.50000000108376,0,100,3.0,6,2.1460641844464365e-11
8.295,0.08141644409447898,77.50000000044145,0,100,3.0,6,8.74150476976307e-12
8.3,0.04678490952598309,77.50000000017675,0,100,3.0,6,3.5000913058947033e-12
8.305,0.024064605020532023,77.50000000006956,0,100,3.0,6,1.3774679966517585e-12
8.31,0.011080171739334697,77.50000000002692,0,100,3.0,6,5.32977402585992e-13
8.315,0.004571212771509492,77.50000000001023,0,100,3.0,6,2.0261020584050382e-13
8.32,0.0017299316936037438,77.50000000000382,0,100,3.0,6,7.569742412652157e-14
8.325,0.0008899431850697582,77.5000000000014,0,100,3.0,6,2.7858903303069274e-14
8.33,0.002128806368910263,77.50000000000051,0,100,3.0,6,1.013051029202519e-14
8.335,0.009309664818487698,77.50000000000018,0,100,3.0,6,3.6582398276757634e-15
8.34,0.03503263543368747,77.50000000000006,0,100,3.0,6,1.1256122546694657e-15
8.345,0.10606267793605692,77.50000000000001,0,100,3.0,6,2.814030636673664e-16
8.35,0.25734927343160535,77.5,0,100,3.0,6,0.0
8.355,0.5003202479539708,77.5,0,100,3.0,6,0.0
8.36,0.7793067891790435,77.5,0,100,3.0,6,0.0
8.365,0.9720477407234077,77.50000295872167,1,100,3.0,6,5.858854783942697e-08
8.37,0.967267334488097,77.5000055932286,0,100,3.0,6,1.1075700184495746e-07
8.375,0.7505869905515209,77.50001118599165,0,100,3.0,6,2.2150478520695224e-07
8.38,0.4028369574773956,77.50002445531956,0,100,3.0,6,4.842637536913202e-07
8.385,0.04553881263121314,77.50005931938229,0,100,3.0,6,1.1746412334253697e-06
8.39,-0.189138810908105,77.50015679904516,0,100,3.0,6,3.104931587280013e-06
8.395,-0.22868072635956738,77.50043420731463,0,100,3.0,6,8.598164646062935e-06
8.4,-0.14104670682394166,77.50121197097131,0,100,3.0,6,2.3999425174492495e-05
8.405,-0.051158381651102834,77.50331898354592,0,100,3.0,6,6.572244645394001e-05
8.41,-0.008206426846427752,77.50877624721919,0,100,3.0,6,0.00017378707364729403
8.415,0.005350271385530505,77.52221323125288,0,100,3.0,6,0.0004398659654035071
8.42,0.01084668799215426,77.55356624592861,0,100,3.0,6,0.0010607177411605397
8.425,0.016256859896386415,77.62276303809047,0,100,3.0,6,0.002430951249316208
8.43,0.02345021205790711,77.7670277861524,0,100,3.0,6,0.005287678933710833
8.435,0.0330621597308209,78.05085164590436,0,100,3.0,7,0.010907953384244735
8.44,0.04559141319943196,78.57725755962157,0,100,3.0,7,0.021331832863793497
8.445,0.06149084917446989,79.49666642116298,0,100,3.0,7,0.03953794893392049
8.45,0.08111733445924295,81.00695567840827,0,100,3.0,7,0.06944466689917377
8.455,0.1046628598272375,83.33655729974289,0,100,3.0,7,0.11557539207411668
8.46,0.1320831047748631,86.70371308099307,0,100,3.0,7,0.18225174417808057
8.465,0.16303381314489318,91.25108990005721,0,100,3.0,7,0.27229880990212296
8.47,0.19682662652900276,96.965865329362,0,100,3.0,7,0.3854626797893466
8.475,0.23241585813229,103.60798838717419,0,100,3.0,7,0.5169898690529542
8.48,0.26842527782774417,110.67742259527155,0,100,3.0,7,0.656978665252902
8.485,0.30321927900592993,117.44801321809814,0,100,3.0,7,0.7910497666950127
8.49,0.3350163137995362,123.0780143987587,0,100,3.0,7,0.9025349385892811
8.495,0.3620352400956416,126.77928795463778,0,100,3.0,7,0.9758274842502531
8.5,0.3826586036805073,128.0,0,100,3.0,7,1.0
8.505,0.39559233134833227,126.56298087585598,0,100,3.0,7,0.9715441757595245
8.51,0.4,122.71228241463211,0,100,3.0,7,0.895292721081824
8.515,0.39559233134833227,117.05140798117831,0,100,3.0,7,0.7831961976470954
