Time,ECG,Pressure,R_Peaks,mean_hr,hrv_scale,Phase_Bin,Normalized_Pressure
0.0,0.001684486749771458,77.5,0,100,3.0,0,0.0
0.005,0.00456624331333666,77.5,0,100,3.0,0,0.0
0.01,0.011079731271581421,77.5,0,100,3.0,0,0.0
0.015,0.024064571490409,77.5,0,100,3.0,0,0.0
0.02,0.046784906529573234,77.5,0,100,3.0,0,0.0
0.025,0.08141644351188804,77.5,0,100,3.0,0,0.0
0.03,0.12682276464025305,77.5,0,100,3.0,0,0.0
0.035,0.1768320708657512,77.5,0,100,3.0,0,0.0
0.04,0.22070063230473494,77.5,0,100,3.0,0,0.0
0.045,0.24656126505113576,77.5,0,100,3.0,0,0.0
0.05,0.24656126505724016,77.5,0,100,3.0,0,0.0
0.055,0.220700632329898,77.5,0,100,3.0,0,0.0
0.06,0.17683207093748562,77.5,0,100,3.0,0,0.0
0.065,0.12682276483597799,77.5,0,100,3.0,0,0.0
0.07,0.08141644409447898,77.5,0,100,3.0,0,0.0
0.075,0.04678490952598309,77.5,0,100,3.0,0,0.0
0.08,0.024064605020532023,77.5,0,100,3.0,0,0.0
0.085,0.011080171739334697,77.5,0,100,3.0,0,0.0
0.09,0.004571212771509492,77.5,0,100,3.0,0,0.0
0.095,0.0017299316936037438,77.5,0,100,3.0,0,0.0
0.1,0.0008899431850697582,77.5,0,100,3.0,0,0.0
0.105,0.002128806368910263,77.5,0,100,3.0,0,0.0
0.11,0.009309664818487698,77.5,0,100,3.0,0,0.0
0.115,0.03503263543368747,77.5,0,100,3.0,0,0.0
0.12,0.10606267793605692,77.5,0,100,3.0,0,0.0
0.125,0.25734927343160535,77.5,0,100,3.0,0,0.0
0.13,0.5003202479539708,77.5,0,100,3.0,0,0.0
0.135,0.7793067891790435,77.5,0,100,3.0,0,0.0
0.14,0.9720477407234077,77.5,0,100,3.0,0,0.0
0.145,0.967267334488097,77.5,0,100,3.0,0,0.0
0.15,0.7505869905515209,77.5,0,100,3.0,0,0.0
0.155,0.4028369574773956,77.5,0,100,3.0,0,0.0
0.16,0.04553881263121314,77.5,0,100,3.0,0,0.0
0.165,-0.189138810908105,77.5,0,100,3.0,0,0.0
0.17,-0.22868072635956738,77.5,0,100,3.0,0,0.0
0.175,-0.14104670682394166,77.5,0,100,3.0,0,0.0
0.18,-0.051158381651102834,77.5,0,100,3.0,0,0.0
0.185,-0.008206426846427752,77.5,0,100,3.0,0,0.0
0.19,0.005350271385530505,77.5,0,100,3.0,0,0.0
0.195,0.01084668799215426,77.5,0,100,3.0,0,0.0
0.2,0.016256859896386415,77.5,0,100,3.0,0,0.0
0.205,0.02345021205790711,77.5,0,100,3.0,0,0.0
0.21,0.0330621597308209,77.5,0,100,3.0,0,0.0
0.215,0.04559141319943196,77.5,0,100,3.0,0,0.0
0.22,0.06149084917446989,77.5,0,100,3.0,0,0.0
0.225,0.08111733445924295,77.5,0,100,3.0,0,0.0
0.23,0.1046628598272375,77.5,0,100,3.0,0,0.0
0.235,0.1320831047748631,77.5,0,100,3.0,0,0.0
0.24,0.16303381314489318,77.5,0,100,3.0,0,0.0
0.245,0.19682662652900276,77.5,0,100,3.0,0,0.0
0.25,0.23241585813229,77.5,0,100,3.0,0,0.0
0.255,0.26842527782774417,77.5,0,100,3.0,0,0.0
0.26,0.30321927900592993,77.5,0,100,3.0,0,0.0
0.265,0.3350163137995362,77.5,0,100,3.0,0,0.0
0.27,0.3620352400956416,77.5,0,100,3.0,0,0.0
0.275,0.3826586036805073,77.5,0,100,3.0,0,0.0
0.28,0.39559233134833227,77.5,0,100,3.0,0,0.0
0.285,0.4,77.5,0,100,3.0,0,0.0
0.29,0.39559233134833227,77.5,0,100,3.0,0,0.0
0.295,0.3826586036805073,77.5,0,100,3.0,0,0.0
0.3,0.3620352400956416,77.5,0,100,3.0,0,0.0
0.305,0.3350163137995362,77.5,0,100,3.0,0,0.0
0.31,0.3032192790059296,77.5,0,100,3.0,0,0.0
0.315,0.26842527782774417,77.5,0,100,3.0,0,0.0
0.32,0.23241585813229,77.5,0,100,3.0,0,0.0
0.325,0.19682662652900276,77.5,0,100,3.0,0,0.0
0.33,0.16303381314489318,77.5,0,100,3.0,0,0.0
0.335,0.13208310477486307,77.5,0,100,3.0,0,0.0
0.34,0.10466285982723562,77.5,0,100,3.0,0,0.0
0.345,0.08111733445917907,77.5,0,100,3.0,0,0.0
0.35,0.06149084917398798,77.5,0,100,3.0,0,0.0
0.355,0.04559141333598128,77.5,0,100,3.0,0,0.0
0.36,0.03306217087257399,77.5,0,100,3.0,0,0.0
0.365,0.02345067901074276,77.5,0,100,3.0,0,0.0
0.37,0.016268788896435526,77.5,0,100,3.0,0,0.0
0.375,0.011039026374860051,77.5,0,100,3.0,0,0.0
0.38,0.007326255555493689,77.5,0,100,3.0,0,0.0
0.385,0.0047556414315231815,77.5,0,100,3.0,0,0.0
0.39,0.0030193390635632803,77.5,0,100,3.0,0,0.0
0.395,0.001874953127946523,77.5,0,100,3.0,0,0.0
0.4,0.0011387927410965778,77.5,0,100,3.0,0,0.0
0.405,0.0006765107634274089,77.5,0,100,3.0,0,0.0
0.41,0.00039307957404427924,77.5,0,100,3.0,0,0.0
0.415,0.00022338910511776318,77.5,0,100,3.0,0,0.0
0.42,0.00012417073320013317,77.5,0,100,3.0,0,0.0
0.425,6.750753468904987e-05,77.5,0,100,3.0,0,0.0
0.43,3.5897234866245036e-05,77.5,0,100,3.0,0,0.0
0.435,1.8670050400879738e-05,77.5,0,100,3.0,0,0.0
0.44,9.497421874143672e-06,77.5,0,100,3.0,0,0.0
0.445,4.725434140340885e-06,77.5,0,100,3.0,0,0.0
0.45,2.299606063738814e-06,77.5,0,100,3.0,0,0.0
0.455,1.0945633976635486e-06,77.5,0,100,3.0,0,0.0
0.46,5.095703414287532e-07,77.5,0,100,3.0,0,0.0
0.465,2.3202944964797243e-07,77.5,0,100,3.0,0,0.0
0.47,1.0333746954038608e-07,77.5,0,100,3.0,0,0.0
0.475,4.501406988770349e-08,77.5,0,100,3.0,0,0.0
0.48,0.0,77.5,0,100,3.0,0,0.0
0.485,0.0,77.5,0,100,3.0,0,0.0
0.49,0.0,77.5,0,100,3.0,0,0.0
0.495,0.0,77.5,0,100,3.0,0,0.0
0.5,0.0,77.5,0,100,3.0,0,0.0
0.505,0.0,77.5,0,100,3.0,0,0.0
0.51,0.0,77.5,0,100,3.0,0,0.0
0.515,0.0,77.5,0,100,3.0,0,0.0
0.52,0.0,77.5,0,100,3.0,0,0.0
0.525,0.0,77.5,0,100,3.0,0,0.0
0.53,0.0,77.5,0,100,3.0,0,0.0
0.535,0.0,77.5,0,100,3.0,0,0.0
0.54,0.0,77.5,0,100,3.0,0,0.0
0.545,0.0,77.5,0,100,3.0,0,0.0
0.55,0.0,77.5,0,100,3.0,0,0.0
0.555,0.0,77.5,0,100,3.0,0,0.0
0.56,0.0,77.5,0,100,3.0,0,0.0
0.565,0.0,77.5,0,100,3.0,0,0.0
0.57,0.0,77.5,0,100,3.0,0,0.0
0.575,0.0,77.5,0,100,3.0,0,0.0
0.58,0.0,77.5,0,100,3.0,0,0.0
0.585,0.0,77.5,0,100,3.0,0,0.0
0.59,0.0,77.5,0,100,3.0,0,0.0
0.595,0.0,77.5,0,100,3.0,0,0.0
0.6,0.0,77.5,0,100,3.0,0,0.0
0.605,0.0,77.5,0,100,3.0,0,0.0
0.61,0.0,77.5,0,100,3.0,0,0.0
0.615,0.0,77.5,0,100,3.0,0,0.0
0.62,0.0,77.5,0,100,3.0,0,0.0
0.625,0.0,77.5,0,100,3.0,0,0.0
0.63,0.0,77.5,0,100,3.0,0,0.0
0.635,0.0,77.5,0,100,3.0,0,0.0
0.64,0.0,77.5,0,100,3.0,0,0.0
0.645,0.0,77.5,0,100,3.0,0,0.0
0.65,0.0,77.5,0,100,3.0,0,0.0
0.655,0.0,77.5,0,100,3.0,0,0.0
0.66,0.0,77.5,0,100,3.0,0,0.0
0.665,0.0,77.5,0,100,3.0,0,0.0
0.67,0.0,77.5,0,100,3.0,0,0.0
0.675,0.0,77.5,0,100,3.0,0,0.0
0.68,0.0,77.5,0,100,3.0,0,0.0
0.685,0.0,77.5,0,100,3.0,0,0.0
0.69,0.001684486749771458,77.5,0,100,3.0,0,0.0
0.695,0.00456624331333666,77.5,0,100,3.0,0,0.0
0.7,0.011079731271581421,77.5,0,100,3.0,0,0.0
0.705,0.024064571490409,77.5,0,100,3.0,0,0.0
0.71,0.046784906529573234,77.5,0,100,3.0,0,0.0
0.715,0.08141644351188804,77.5,0,100,3.0,0,0.0
0.72,0.12682276464025305,77.5,0,100,3.0,0,0.0
0.725,0.1768320708657512,77.5,0,100,3.0,0,0.0
0.73,0.22070063230473494,77.5,0,100,3.0,0,0.0
0.735,0.24656126505113576,77.5,0,100,3.0,0,0.0
0.74,0.24656126505724016,77.5,0,100,3.0,0,0.0
0.745,0.220700632329898,77.5,0,100,3.0,0,0.0
0.75,0.17683207093748562,77.5,0,100,3.0,0,0.0
0.755,0.12682276483597799,77.5,0,100,3.0,0,0.0
0.76,0.08141644409447898,77.5,0,100,3.0,0,0.0
0.765,0.04678490952598309,77.5,0,100,3.0,0,0.0
0.77,0.024064605020532023,77.5,0,100,3.0,0,0.0
0.775,0.011080171739334697,77.5,0,100,3.0,0,0.0
0.78,0.004571212771509492,77.5,0,100,3.0,0,0.0
0.785,0.0017299316936037438,77.5,0,100,3.0,0,0.0
0.79,0.0008899431850697582,77.5,0,100,3.0,0,0.0
0.795,0.002128806368910263,77.5,0,100,3.0,0,0.0
0.8,0.009309664818487698,77.5,0,100,3.0,0,0.0
0.805,0.03503263543368747,77.5,0,100,3.0,0,0.0
0.81,0.10606267793605692,77.5,0,100,3.0,0,0.0
0.815,0.25734927343160535,77.5,0,100,3.0,0,0.0
0.82,0.5003202479539708,77.5,0,100,3.0,0,0.0
0.825,0.7793067891790435,77.5,0,100,3.0,0,0.0
0.83,0.9720477407234077,77.50000297456887,1,100,3.0,0,5.890235390306951e-08
0.835,0.967267334488097,77.5000062222234,0,100,3.0,0,1.2321234465270038e-07
0.84,0.7505869905515209,77.50001412492644,0,100,3.0,0,2.797015136113962e-07
0.845,0.4028369574773956,77.50003641983405,0,100,3.0,0,7.211848326008267e-07
0.85,0.04553881263121314,77.50010706994215,0,100,3.0,0,2.1201968741812684e-06
0.855,-0.189138810908105,77.50034212581059,0,100,3.0,0,6.774768526539258e-06
0.86,-0.22868072635956738,77.5011174452075,0,100,3.0,0,2.212762787125219e-05
0.865,-0.14104670682394166,77.50356855475515,0,100,3.0,0,7.066445059699122e-05
0.87,-0.051158381651102834,77.51086963859841,0,100,3.0,0,0.00021524036828529712
0.875,-0.008206426846427752,77.53118939740251,0,100,3.0,0,0.0006176118297527509
0.88,0.005350271385530505,77.5838025515997,0,100,3.0,0,0.001659456467320855
0.885,0.01084668799215426,77.71022945889035,0,100,3.0,0,0.004162959581987194
0.89,0.016256859896386415,77.99167912939262,0,100,3.0,0,0.009736220384012324
0.895,0.02345021205790711,78.5712635147241,0,100,3.0,0,0.021213138905427614
0.9,0.0330621597308209,79.67352667251653,0,100,3.0,0,0.043040132129040204
0.905,0.04559141319943196,81.60576661164305,0,100,3.0,0,0.0813023091414465
0.91,0.06149084917446989,84.71992636449431,0,100,3.0,0,0.1429688389008775
0.915,0.08111733445924295,89.3182428616724,0,100,3.0,0,0.23402461112222578
0.92,0.1046628598272375,95.50702080839233,0,100,3.0,0,0.3565746694731154
0.925,0.1320831047748631,103.03863252038366,0,100,3.0,0,0.5057154954531418
0.93,0.16303381314489318,111.21541053963608,0,100,3.0,0,0.6676318918739819
0.935,0.19682662652900276,118.93384620768896,0,100,3.0,0,0.8204722021324546
0.94,0.23241585813229,124.90436853284245,0,100,3.0,0,0.9387003669869793
0.945,0.26842527782774417,128.0,0,100,3.0,0,1.0
0.95,0.30321927900592993,127.60820170828875,0,100,3.0,0,0.9922416179859158
0.955,0.3350163137995362,123.83638395652297,0,100,3.0,0,0.9175521575549102
0.96,0.3620352400956416,117.47746650268306,0,100,3.0,0,0.7916330000531299
0.965,0.3826586036805073,109.75136675254107,0,100,3.0,0,0.6386409257928926
0.97,0.39559233134833227,101.93854206075709,0,100,3.0,0,0.48393152595558586
0.975,0.4,95.05631336589965,0,100,3.0,0,0.34764976962177535
0.98,0.39559233134833227,89.68561676959516,0,100,3.0,0,0.24129934197218134
0.985,0.3826586036805073,85.97066202095813,0,100,3.0,0,0.1677358816031313
0.99,0.3620352400956416,83.73963639863871,0,100,3.0,0,0.1235571564086873
0.995,0.3350163137995362,82.66506980421391,0,100,3.0,0,0.10227860998443394
1.0,0.3032192790059296,82.39769679500384,0,100,3.0,0,0.09698409495057106
1.005,0.26842527782774417,82.64426327774376,0,100,3.0,0,0.1018665995592824
1.01,0.23241585813229,83.1925217979524,0,100,3.0,0,0.1127232039198494
1.015,0.19682662652900276,83.90296821666257,0,100,3.0,0,0.12679144983490243
1.02,0.16303381314489318,84.68768921939152,0,100,3.0,0,0.1423304795919112
1.025,0.13208310477486307,85.48964936969762,0,100,3.0,0,0.15821087860787358
1.03,0.10466285982723562,86.2679527426403,0,100,3.0,0,0.1736228265869367
1.035,0.08111733445917907,86.9895179409416,0,100,3.0,0,0.18791124635527912
1.04,0.06149084917398798,87.62548740634166,0,100,3.0,0,0.20050470111567648
1.045,0.04559141333598128,88.15044219056064,0,100,3.0,0,0.21089984535763642
1.05,0.03306217087257399,88.54297359153537,0,100,3.0,0,0.21867274438683904
1.055,0.02345067901074276,88.78671463080131,0,100,3.0,0,0.22349929961982798
1.06,0.016268788896435526,88.87133001885871,0,100,3.0,0,0.2251748518585884
1.065,0.011039026374860051,88.79319881643394,0,100,3.0,0,0.2236276993353256
1.07,0.007326255555493689,88.55565877970061,0,100,3.0,0,0.2189239362316952
1.075,0.0047556414315231815,88.168766505288,0,100,3.0,0,0.21126270307501
1.08,0.0030193390635632803,87.64859039083257,0,100,3.0,0,0.20096218595708054
1.085,0.001874953127946523,87.01610373171393,0,100,3.0,0,0.18843769765770152
1.09,0.0011387927410965778,86.29578368219154,0,100,3.0,0,0.1741739343008226
1.095,0.0006765107634274089,85.51404620349248,0,100,3.0,0,0.15869398422757394
1.1,0.00039307957404427924,84.69765577968232,0,100,3.0,0,0.1425278372214321
1.105,0.00022338910511776318,83.87224160225274,0,100,3.0,0,0.12618300202480678
1.11,0.00012417073320013317,83.06103109428663,0,100,3.0,0,0.1101194276096363
1.115,6.750753468904987e-05,82.28388071988795,0,100,3.0,0,0.09473031128490983
1.12,3.5897234866245036e-05,81.5566476806962,0,100,3.0,0,0.08032965704348914
1.125,1.8670050400879738e-05,80.89090926252491,0,100,3.0,0,0.06714671806980028
1.13,9.497421874143672e-06,80.29400369189199,0,100,3.0,0,0.05532680578003935
1.135,4.725434140340885e-06,79.76934075119777,0,100,3.0,0,0.0449374406177777
1.14,2.299606063738814e-06,79.316914026084,0,100,3.0,0,0.03597849556601993
1.145,1.0945633976635486e-06,78.93393997639421,0,100,3.0,0,0.02839485101770721
1.15,5.095703414287532e-07,78.615551171725,0,100,3.0,0,0.02209012221237628
1.155,2.3202944964797243e-07,78.35548017624241,0,100,3.0,0,0.016940201509750674
1.16,1.0333746954038608e-07,78.14668432330618,0,100,3.0,0,0.012805630164478717
1.165,4.501406988770349e-08,77.98187749628777,0,100,3.0,0,0.009542128639361692
1.17,0.0,77.85395079052064,0,100,3.0,0,0.007008926544963209
1.175,0.0,77.7562778414269,0,100,3.0,0,0.005074808741126601
1.18,0.0,77.68291156154915,0,100,3.0,0,0.003622011119785098
1.185,0.0,77.62868655855223,0,100,3.0,0,0.002548248684202616
1.19,0.0,77.58924566817144,0,100,3.0,0,0.001767240953889971
1.195,0.0,77.56101028213665,0,100,3.0,0,0.0012081243987455367
1.2,0.0,77.5411131592637,0,100,3.0,0,0.0008141219656178606
1.205,0.0,77.52730993064118,0,100,3.0,1,0.0005407907057659567
1.21,0.0,77.51788225456453,0,100,3.0,1,0.0003541040507826946
1.215,0.0,77.51154212778609,0,100,3.0,1,0.00022855698586309104
1.22,0.0,77.50734364057384,0,100,3.0,1,0.00014541862522448112
1.225,0.0,77.5046057342584,0,100,3.0,1,9.120265858227597e-05
1.23,0.0,77.50284739861534,0,100,3.0,1,5.638413099691746e-05
1.235,0.0,77.5017352401662,0,100,3.0,1,3.436119140986301e-05
1.24,0.0,77.50104239625774,0,100,3.0,1,2.0641510054353e-05
1.245,0.0,77.50061725984372,0,100,3.0,1,1.2222967202410697e-05
1.25,0.0,77.50036030072403,0,100,3.0,1,7.134667802491473e-06
1.255,0.0,77.50020731187256,0,100,3.0,1,4.1051855952004966e-06
1.26,0.0,77.50011758316428,0,100,3.0,1,2.3283794907438456e-06
1.265,0.0,77.50006573974899,0,100,3.0,1,1.3017772077280752e-06
1.27,0.0,77.50003623037833,0,100,3.0,1,7.174332342113456e-07
1.275,0.0,77.50001968247125,0,100,3.0,1,3.8975190589121443e-07
1.28,0.0,77.5000105401869,0,100,3.0,1,2.0871657240361558e-07
1.285,0.001684486749771458,77.50000556389502,0,100,3.0,1,1.1017613892723638e-07
1.29,0.00456624331333666,77.50000289515268,0,100,3.0,1,5.732975595681565e-08
1.295,0.011079731271581421,77.50000148499826,0,100,3.0,1,2.9405906233667265e-08
1.3,0.024064571490409,77.50000075083126,0,100,3.0,1,1.486794578322768e-08
1.305,0.046784906529573234,77.50000037421457,0,100,3.0,1,7.410189408180333e-09
1.31,0.08141644351188804,77.50000018384885,0,100,3.0,1,3.6405713735172804e-09
1.315,0.12682276464025305,77.50000008903548,0,100,3.0,1,1.7630788358411057e-09
1.32,0.1768320708657512,77.50000004250376,0,100,3.0,1,8.416585536330182e-10
1.325,0.22070063230473494,77.50000002000107,0,100,3.0,1,3.9606074195863487e-10
1.33,0.24656126505113576,77.50000000927771,0,100,3.0,1,1.837170855489405e-10
1.335,0.24656126505724016,77.5000000042422,0,100,3.0,1,8.400387975985489e-11
1.34,0.220700632329898,77.50000000191207,0,100,3.0,1,3.786278221644415e-11
1.345,0.17683207093748562,77.50000000084952,0,100,3.0,1,1.6822275146035165e-11
1.35,0.12682276483597799,77.50000000037205,0,100,3.0,1,7.36741360987532e-12
1.355,0.08141644409447898,77.50000000016063,0,100,3.0,1,3.1806988286322427e-12
1.36,0.04678490952598309,77.50000000006835,0,100,3.0,1,1.3535487362400324e-12
1.365,0.024064605020532023,77.50000000002868,0,100,3.0,1,5.678713824807455e-13
1.37,0.011080171739334697,77.50000000001185,0,100,3.0,1,2.346901550985836e-13
1.375,0.004571212771509492,77.50000000000483,0,100,3.0,1,9.567704164690458e-14
1.38,0.0017299316936037438,77.50000000000195,0,100,3.0,1,3.85522197224292e-14
1.385,0.0008899431850697582,77.50000000000077,0,100,3.0,1,1.5195765438037787e-14
1.39,0.002128806368910263,77.5000000000003,0,100,3.0,1,5.909464337014694e-15
1.395,0.009309664818487698,77.50000000000011,0,100,3.0,1,2.2512245093389313e-15
1.4,0.03503263543368747,77.50000000000004,0,100,3.0,1,8.442091910020992e-16
1.405,0.10606267793605692,77.50000000000001,0,100,3.0,1,2.814030636673664e-16
1.41,0.25734927343160535,77.5,0,100,3.0,1,0.0
1.415,0.5003202479539708,77.5,0,100,3.0,1,0.0
1.42,0.7793067891790435,77.5,0,100,3.0,1,0.0
1.425,0.9720477407234077,77.500002958773,1,100,3.0,1,5.858956426729294e-08
1.43,0.967267334488097,77.50000546428119,0,100,3.0,1,1.0820358787184725e-07
1.435,0.7505869905515209,77.50001062202656,0,100,3.0,1,2.1033715970273502e-07
1.44,0.4028369574773956,77.50002239224668,0,100,3.0,1,4.4341082529361227e-07
1.445,0.04553881263121314,77.50005200199026,0,100,3.0,1,1.02974238129178e-06
1.45,-0.189138810908105,77.50013136979197,0,100,3.0,1,2.6013820192614243e-06
1.455,-0.22868072635956738,77.500348976995,0,100,3.0,1,6.910435544541812e-06
1.46,-0.14104670682394166,77.50094026919814,0,100,3.0,1,1.8619192042361908e-05
1.465,-0.051158381651102834,77.50250156884175,0,100,3.0,1,4.953601666833907e-05
1.47,-0.008206426846427752,77.50646349798603,0,100,3.0,1,0.0001279900591293656
1.475,0.005350271385530505,77.51606687857341,0,100,3.0,1,0.0003181560113546874
1.48,0.01084668799215426,77.53822670841546,0,100,3.0,1,0.0007569645230785114
1.485,0.016256859896386415,77.58680716105046,0,100,3.0,1,0.001718953684167497
1.49,0.02345021205790711,77.68785709154544,0,100,3.0,1,0.003719942406840375
1.495,0.0330621597308209,77.887086691764,0,100,3.0,1,0.007665083005227668
1.5,0.04559141319943196,78.2590727582843,0,100,3.0,1,0.015031143728402068
1.505,0.06149084917446989,78.91621161051839,0,100,3.0,1,0.02804379426769086
1.51,0.08111733445924295,80.01343757456958,0,100,3.0,1,0.04977104108058573
1.515,0.1046628598272375,81.74285634130786,0,100,3.0,1,0.08401695725362092
1.52,0.1320831047748631,84.31195179429643,0,100,3.0,1,0.13489013454052343
1.525,0.16303381314489318,87.901396401456,0,100,3.0,1,0.20596824557338608
1.53,0.19682662652900276,92.60462093409878,0,100,3.0,1,0.29910140463561935
1.535,0.23241585813229,98.36041410535273,0,100,3.0,1,0.4130775070366878
1.54,0.26842527782774417,104.89886875963668,0,100,3.0,1,0.542551856626469
1.545,0.30321927900592993,111.72519191704913,0,100,3.0,1,0.6777265726148343
1.55,0.3350163137995362,118.16084139169179,0,100,3.0,1,0.8051651760731048
1.555,0.3620352400956416,123.44597190058819,0,100,3.0,1,0.9098212257542216
1.56,0.3826586036805073,126.8853149889204,0,100,3.0,1,0.9779270294835722
1.565,0.39559233134833227,128.0,0,100,3.0,1,1.0
1.57,0.4,126.63996232829166,0,100,3.0,1,0.9730685609562705
1.575,0.39559233134833227,123.02080083428294,0,100,3.0,1,0.901401996718474
1.58,0.3826586036805073,117.67285691971338,0,100,3.0,1,0.7955021172220472
1.585,0.3620352400956416,111.31932295360359,0,100,3.0,1,0.6696895634376948
1.59,0.3350163137995362,104.72219297741232,0,100,3.0,1,0.5390533262853925
1.595,0.3032192790059296,98.54122587220695,0,100,3.0,1,0.416657938063504
1.6,0.26842527782774417,93.24077000881171,0,100,3.0,1,0.31169841601607345
1.605,0.23241585813229,89.05862778667502,0,100,3.0,1,0.22888371854802017
1.61,0.19682662652900276,86.02983062093439,0,100,3.0,1,0.16890753704820574
1.615,0.16303381314489318,84.04430011310514,0,100,3.0,1,0.12959010124960668
1.62,0.13208310477486307,82.91403914295742,0,100,3.0,1,0.10720869590014695
1.625,0.10466285982723562,82.43084219355964,0,100,3.0,1,0.09764043947642854
1.63,0.08111733445917907,82.40487403519835,0,100,3.0,1,0.09712621851877914
1.635,0.06149084917398798,82.6832394412119,0,100,3.0,1,0.10263840477647318
1.64,0.04559141333598128,83.1531724022942,0,100,3.0,1,0.11194400796622184
1.645,0.03306217087257399,83.73628303404763,0,100,3.0,1,0.12349075314945804
1.65,0.02345067901074276,84.3794760785732,0,100,3.0,1,0.13622724908065753
1.655,0.016268788896435526,85.04618667950153,0,100,3.0,1,0.14942943919805013
1.66,0.011039026374860051,85.70962794829856,0,100,3.0,1,0.16256689006531805
1.665,0.007326255555493689,86.34837941821235,0,100,3.0,1,0.17521543402400686
1.67,0.0047556414315231815,86.9439438761245,0,100,3.0,1,0.18700878962622758
1.675,0.0030193390635632803,87.47968669983455,0,100,3.0,1,0.19761755841256526
1.68,0.001874953127946523,87.94062017392422,0,100,3.0,1,0.2067449539390934
1.685,0.0011387927410965778,88.31363393334613,0,100,3.0,1,0.21413136501675495
1.69,0.0006765107634274089,88.58790904639335,0,100,3.0,1,0.21956255537412572
1.695,0.00039307957404427924,88.75535462171156,0,100,3.0,1,0.22287830934082298
1.7,0.00022338910511776318,88.81097155676089,0,100,3.0,1,0.22397963478734437
1.705,0.00012417073320013317,88.75308856210596,0,100,3.0,1,0.2228334368733853
1.71,6.750753468904987e-05,88.58344151123836,0,100,3.0,1,0.2194740893314527
1.715,3.5897234866245036e-05,88.30708565167193,0,100,3.0,1,0.2140016960727114
1.72,1.8670050400879738e-05,87.9321449759833,0,100,3.0,1,0.20657712823729318
1.725,9.497421874143672e-06,87.46941544648372,0,100,3.0,1,0.19741416725710342
1.73,4.725434140340885e-06,86.93184890432175,0,100,3.0,1,0.18676928523409414
1.735,2.299606063738814e-06,86.3339520046189,0,100,3.0,1,0.17492974266572067
1.74,1.0945633976635486e-06,85.69113900207235,0,100,3.0,1,0.1622007723182643
1.745,5.095703414287532e-07,85.01907845595186,0,100,3.0,1,0.14889264269211597
1.75,2.3202944964797243e-07,84.33307199951354,0,100,3.0,1,0.1353083564260106
1.755,1.0333746954038608e-07,83.64749858354884,0,100,3.0,1,0.12173264521878888
1.76,4.501406988770349e-08,82.9753506563806,0,100,3.0,1,0.10842278527486333
1.765,0.0,82.32788034858761,0,100,3.0,1,0.09560159106114084
1.77,0.0,81.71436473001928,0,100,3.0,1,0.08345276693107492
1.775,0.0,81.1419904202965,0,100,3.0,1,0.072118622184089
1.78,0.0,80.6158499811668,0,100,3.0,1,0.06169999962706542
1.785,0.0,80.13903615377343,0,100,3.0,1,0.05225814165887985
1.79,0.0,79.71281547685754,0,100,3.0,1,0.04381812825460481
1.795,0.0,79.3368602696585,0,100,3.0,1,0.03637347068630696
1.8,0.0,79.00951732219087,0,100,3.0,1,0.02989143212259156
1.805,0.0,78.72809267612408,0,100,3.0,1,0.024318666853942135
1.81,0.0,78.48913425373082,0,100,3.0,1,0.019586816905560887
1.815,0.0,78.28869738715993,0,100,3.0,1,0.015617770042770854
1.82,0.0,78.12258208905189,0,100,3.0,1,0.012328358199047306
1.825,0.0,77.98653479275193,0,100,3.0,1,0.009634352331721292
1.83,0.0,77.87641094495675,0,100,3.0,1,0.007453682078351399
1.835,0.0,77.78829800908163,0,100,3.0,1,0.005708871466962949
1.84,0.0,77.71860097946956,0,100,3.0,1,0.0043287322667238904
1.845,0.0,77.66409434843045,0,100,3.0,1,0.00324939303822679
1.85,0.0,77.62194561942003,0,100,3.0,1,0.002414764740990731
1.855,0.0,77.58971598801718,0,100,3.0,1,0.0017765542181618933
1.86,0.0,77.56534382372206,0,100,3.0,1,0.0012939371034071253
1.865,0.0,77.54711620521454,0,100,3.0,1,0.0009329941626640785
1.87,0.0,77.53363311752659,0,100,3.0,1,0.0006660023272592307
1.875,0.0,77.5237681295009,0,100,3.0,1,0.00047065602972067364
1.88,0.0,77.5166285333287,0,100,3.0,1,0.00032927788769701567
1.885,0.0,77.51151712141865,0,100,3.0,1,0.0002280618102702755
1.89,0.0,77.50789705214179,0,100,3.0,1,0.00015637727013437269
1.895,0.0,77.505360645962,0,100,3.0,1,0.00010615140518811725
1.9,0.0,77.50360246944363,0,100,3.0,1,7.133602858683087e-05
1.905,0.0,77.50239670480131,0,100,3.0,1,4.745950101610646e-05
1.91,0.0,77.50157855546459,0,100,3.0,1,3.1258524051290716e-05
1.915,0.0,77.50102928633274,0,100,3.0,1,2.0381907578968532e-05
1.92,0.0,77.5006644214217,0,100,3.0,1,1.31568598357091e-05
1.925,0.0,77.50042460206915,0,100,3.0,1,8.407961765255599e-06
1.93,0.0,77.50026862822737,0,100,3.0,1,5.319370839094635e-06
1.935,0.0,77.50016824890496,0,100,3.0,1,3.3316614842713553e-06
1.94,0.0,77.50010432392213,0,100,3.0,1,2.06582024020463e-06
1.945,0.0,77.5000640393074,0,100,3.0,1,1.2681050971013523e-06
1.95,0.0,77.50003891709427,0,100,3.0,1,7.706355301486315e-07
1.955,0.0,77.50002341344106,0,100,3.0,1,4.636324961616578e-07
1.96,0.0,77.50001394508438,0,100,3.0,1,2.761402846758891e-07
1.965,0.0,77.50000822257998,0,100,3.0,1,1.6282336591442313e-07
1.97,0.0,77.500004799833,0,100,3.0,1,9.504619788683635e-08
1.975,0.0,77.5000027738004,0,100,3.0,1,5.4926740665113096e-08
1.98,0.0,77.50000158692114,0,100,3.0,1,3.1424181065856394e-08
1.985,0.0,77.5000008988072,0,100,3.0,1,1.779816239823139e-08
1.99,0.0,77.50000050397477,0,100,3.0,1,9.979698510920067e-09
1.995,0.001684486749771458,77.50000027975774,0,100,3.0,1,5.539757273371572e-09
2.0,0.00456624331333666,77.50000015373986,0,100,3.0,1,3.044353697627194e-09
2.005,0.011079731271581421,77.50000008364152,0,100,3.0,1,1.6562678005771382e-09
2.01,0.024064571490409,77.50000004504935,0,100,3.0,1,8.920662844277536e-10
2.015,0.046784906529573234,77.50000002402072,0,100,3.0,1,4.756578497414588e-10
2.02,0.08141644351188804,77.50000001267986,0,100,3.0,1,2.5108638600622637e-10
2.025,0.12682276464025305,77.50000000662635,0,100,3.0,1,1.3121487175132896e-10
2.03,0.1768320708657512,77.50000000342818,0,100,3.0,1,6.788483086992447e-11
2.035,0.22070063230473494,77.50000000175585,0,100,3.0,1,3.476931833754879e-11
2.04,0.24656126505113576,77.50000000089031,0,100,3.0,1,1.7629901938760507e-11
2.045,0.24656126505724016,77.50000000044692,0,100,3.0,1,8.849844949275007e-12
2.05,0.220700632329898,77.50000000022209,0,100,3.0,1,4.397767078993602e-12
2.055,0.17683207093748562,77.50000000010927,0,100,3.0,1,2.1637081565383805e-12
2.06,0.12682276483597799,77.50000000005322,0,100,3.0,1,1.0538544734342872e-12
2.065,0.08141644409447898,77.50000000002566,0,100,3.0,1,5.082139329832637e-13
2.07,0.04678490952598309,77.50000000001225,0,100,3.0,1,2.4256944088126986e-13
2.075,0.024064605020532023,77.50000000000578,0,100,3.0,1,1.1453104691261813e-13
2.08,0.011080171739334697,77.50000000000271,0,100,3.0,1,5.374798516046698e-14
2.085,0.004571212771509492,77.50000000000125,0,100,3.0,1,2.4763469602728244e-14
2.09,0.0017299316936037438,77.50000000000057,0,100,3.0,1,1.1256122546694657e-14
2.095,0.0008899431850697582,77.50000000000026,0,100,3.0,1,5.065255146012595e-15
2.1,0.002128806368910263,77.50000000000011,0,100,3.0,1,2.2512245093389313e-15
2.105,0.009309664818487698,77.50000000000006,0,100,3.0,1,1.1256122546694657e-15
2.11,0.03503263543368747,77.50000000000003,0,100,3.0,1,5.628061273347328e-16
2.115,0.10606267793605692,77.50000000000001,0,100,3.0,1,2.814030636673664e-16
2.12,0.25734927343160535,77.5,0,100,3.0,1,0.0
2.125,0.5003202479539708,77.5,0,100,3.0,1,0.0
2.13,0.7793067891790435,77.5,0,100,3.0,1,0.0
2.135,0.9720477407234077,77.50000297094563,1,100,3.0,1,5.8830606533747686e-08
2.14,0.967267334488097,77.50000585321456,0,100,3.0,1,1.1590523881480268e-07
2.145,0.7505869905515209,77.50001231859999,0,100,3.0,1,2.4393267297833374e-07
2.15,0.4028369574773956,77.5000287685175,0,100,3.0,1,5.696736137690438e-07
2.155,0.04553881263121314,77.50007544225073,0,100,3.0,1,1.493905955103941e-06
2.16,-0.189138810908105,77.50021580677046,0,100,3.0,1,4.2734013951609664e-06
2.165,-0.22868072635956738,77.50064122197105,0,100,3.0,1,1.2697464773291268e-05
2.17,-0.14104670682394166,77.50189764285709,0,100,3.0,1,3.7577086278971173e-05
2.175,-0.051158381651102834,77.50544678588247,0,100,3.0,1,0.00010785714618751257
2.18,-0.008206426846427752,77.51494354533021,0,100,3.0,1,0.00029591178871706545
2.185,0.005350271385530505,77.53889317447089,0,100,3.0,1,0.0007701618707106056
2.19,0.01084668799215426,77.59565760011441,0,100,3.0,1,0.0018942099032555873
2.195,0.016256859896386415,77.72188223512214,0,100,3.0,1,0.004393707626180944
2.2,0.02345021205790711,77.98486749911095,0,100,3.0,1,0.00960133661605837
2.205,0.0330621597308209,78.4976358334839,0,100,3.0,1,0.01975516501948312
2.21,0.04559141319943196,79.43210578788607,0,100,3.0,1,0.03825952055219946
2.215,0.06149084917446989,81.02144467284691,0,100,3.0,1,0.06973157768013685
2.22,0.08111733445924295,83.53943824352314,0,100,3.0,1,0.11959283650540864
2.225,0.1046628598272375,87.24612635035874,0,100,3.0,1,0.1929926009972027
2.23,0.1320831047748631,92.29836240213126,0,100,3.0,1,0.29303687925012395
2.235,0.16303381314489318,98.6415242177682,0,100,3.0,1,0.41864404391620186
2.24,0.19682662652900276,105.91856224009601,0,100,3.0,1,0.5627438067345745
2.245,0.23241585813229,113.44355699129795,0,100,3.0,1,0.7117536037880783
2.25,0.26842527782774417,120.27731578487735,0,100,3.0,1,0.8470755600965811
2.255,0.30321927900592993,125.40886924748625,0,100,3.0,1,0.9486904801482426
2.26,0.3350163137995362,128.0,0,100,3.0,1,1.0
2.265,0.3620352400956416,127.61297446918879,0,100,3.0,1,0.9923361281027482
2.27,0.3826586036805073,124.33696161207922,0,100,3.0,1,0.9274645863778064
2.275,0.39559233134833227,118.76344665656188,0,100,3.0,1,0.8170979535952848
2.28,0.4,111.82039289833824,0,100,3.0,1,0.6796117405611533
2.285,0.39559233134833227,104.52944873576625,0,100,3.0,1,0.5352366086290347
2.29,0.3826586036805073,97.77357003237384,0,100,3.0,1,0.40145683232423446
2.295,0.3620352400956416,92.14593155860807,0,100,3.0,1,0.2900184467051103
2.3,0.3350163137995362,87.90825613345055,0,100,3.0,1,0.20610408185050594
2.305,0.3032192790059296,85.04198682162858,0,100,3.0,1,0.1493462736956155
2.31,0.26842527782774417,83.34911037832367,0,100,3.0,1,0.11582396788759747
2.315,0.23241585813229,82.55716877843483,0,100,3.0,1,0.10014195600861046
2.32,0.19682662652900276,82.39818228678223,0,100,3.0,1,0.09699370864915308
2.325,0.16303381314489318,82.65144010719679,0,100,3.0,1,0.10200871499399586
2.33,0.13208310477486307,83.15544646601765,0,100,3.0,1,0.11198903893104259
2.335,0.10466285982723562,83.80098496712186,0,100,3.0,1,0.12477197954696759
2.34,0.08111733445917907,84.51679817502719,0,100,3.0,1,0.13894649851538993
2.345,0.06149084917398798,85.25545908263547,0,100,3.0,1,0.15357344718090035
2.35,0.04559141333598128,85.98282074337618,0,100,3.0,1,0.16797664838368673
2.355,0.03306217087257399,86.67155747492474,0,100,3.0,1,0.1816149995034602
2.36,0.02345067901074276,87.29795930335597,0,100,3.0,1,0.19401899610605874
2.365,0.016268788896435526,87.84083911807926,0,100,3.0,1,0.20476909144711405
2.37,0.011039026374860051,88.28160151207733,0,100,3.0,1,0.21349705964509563
2.375,0.007326255555493689,88.60482836895572,0,100,3.0,1,0.21989759146446974
2.38,0.0047556414315231815,88.79899114489746,0,100,3.0,1,0.22374239890886052
2.385,0.0030193390635632803,88.85706779854773,0,100,3.0,1,0.22489243165441053
2.39,0.001874953127946523,88.77694250763581,0,100,3.0,1,0.22330579223041205
2.395,0.0011387927410965778,88.56152685954629,0,100,3.0,1,0.21904013583259982
2.4,0.0006765107634274089,88.21858228046267,0,100,3.0,1,0.2122491540685677
2.405,0.00039307957404427924,87.76025532372388,0,100,3.0,1,0.20317337274700756
2.41,0.00022338910511776318,87.20236355807309,0,100,3.0,2,0.19212601105095226
2.415,0.00012417073320013317,86.5634902866797,0,100,3.0,2,0.17947505518177614
2.42,6.750753468904987e-05,85.86396018771272,0,100,3.0,2,0.16562297401411327
2.425,3.5897234866245036e-05,85.12477432033205,0,100,3.0,2,0.15098563010558516
2.43,1.8670050400879738e-05,84.36658158555097,0,100,3.0,2,0.13597191258516783
2.435,9.497421874143672e-06,83.60875530007408,0,100,3.0,2,0.12096545148661544
2.44,4.725434140340885e-06,82.86862941840498,0,100,3.0,2,0.10630949343376195
2.445,2.299606063738814e-06,82.1609310518812,0,100,3.0,2,0.09229566439368726
2.45,1.0945633976635486e-06,81.49742647014536,0,100,3.0,2,0.07915695980485854
2.455,5.095703414287532e-07,80.88677888145745,0,100,3.0,2,0.06706492834569198
2.46,2.3202944964797243e-07,80.33459982381898,0,100,3.0,2,0.05613068958057379
2.465,1.0333746954038608e-07,79.84366331563119,0,100,3.0,2,0.04640917456695426
2.47,4.501406988770349e-08,79.4142437702478,0,100,3.0,2,0.03790581723262958
2.475,0.0,79.04453522094083,0,100,3.0,2,0.030584855860214453
2.48,0.0,78.73111024024065,0,100,3.0,2,0.024378420598824817
2.485,0.0,78.46938127165673,0,100,3.0,2,0.01919566874567781
2.49,0.0,78.25403387991976,0,100,3.0,2,0.014931363958807127
2.495,0.0,78.07940954909407,0,100,3.0,2,0.011473456417704283
2.5,0.0,77.93982406759571,0,100,3.0,2,0.00870938747714274
2.505,0.0,77.8298153669202,0,100,3.0,2,0.006530997364756453
2.51,0.0,77.74432130323292,0,100,3.0,2,0.004838045608572724
2.515,0.0,77.67879292921928,0,100,3.0,2,0.0035404540439462227
2.52,0.0,77.62925218591911,0,100,3.0,2,0.00255944922612107
2.525,0.0,77.59230474085237,0,100,3.0,2,0.0018278166505419813
2.53,0.0,77.56511914230262,0,100,3.0,2,0.0012894879663885247
2.535,0.0,77.54538286297166,0,100,3.0,2,0.0008986705538943354
2.54,0.0,77.5312445059329,0,100,3.0,2,0.0006187030877802698
2.545,0.0,77.52124975792847,0,100,3.0,2,0.00042078728571233557
2.55,0.0,77.51427686543666,0,100,3.0,2,0.00028271020666646127
2.555,0.0,77.50947567810488,0,100,3.0,2,0.00018763719019558933
2.56,0.0,77.50621278444058,0,100,3.0,2,0.0001230254344668898
2.565,0.0,77.50402402644141,0,100,3.0,2,7.968369190918322e-05
2.57,0.0,77.50257474319895,0,100,3.0,2,5.098501384056795e-05
2.575,0.0,77.50162744217775,0,100,3.0,2,3.222657777721924e-05
2.58,0.0,77.50101619199279,0,100,3.0,2,2.0122613718605393e-05
2.585,0.0,77.50062682242242,0,100,3.0,2,1.2412325196408455e-05
2.59,0.0,77.50038195467684,0,100,3.0,2,7.56345894732215e-06
2.595,0.0,77.50022992049958,0,100,3.0,2,4.552881179760973e-06
2.6,0.0,77.50013672316726,0,100,3.0,2,2.7073894506708647e-06
2.605,0.0,77.50008031655649,0,100,3.0,2,1.5904268612230947e-06
2.61,0.0,77.50004660865855,0,100,3.0,2,9.22943733672078e-07
2.615,0.0,77.50002671939872,0,100,3.0,2,5.29097004325852e-07
2.62,0.0,77.500015131616,0,100,3.0,2,2.996359603119993e-07
2.625,0.0,77.50000846530277,0,100,3.0,2,1.67629757819362e-07
2.63,0.0,77.50000467840951,0,100,3.0,2,9.264177248438176e-08
2.635,0.0,77.50000255418604,0,100,3.0,2,5.057794137743744e-08
2.64,0.001684486749771458,77.50000137754365,0,100,3.0,2,2.7278092163511912e-08
2.645,0.00456624331333666,77.5000007339336,0,100,3.0,2,1.4533338686521915e-08
2.65,0.011079731271581421,77.500000386284,0,100,3.0,2,7.649188125586728e-09
2.655,0.024064571490409,77.50000020084232,0,100,3.0,2,3.9770756896782906e-09
2.66,0.046784906529573234,77.50000010315784,0,100,3.0,2,2.0427296026310154e-09
2.665,0.08141644351188804,77.5000000523417,0,100,3.0,2,1.0364693921609173e-09
2.67,0.12682276464025305,77.50000002623567,0,100,3.0,2,5.195181754538455e-10
2.675,0.1768320708657512,77.50000001299077,0,100,3.0,2,2.57242922233141e-10
2.68,0.22070063230473494,77.50000000635443,0,100,3.0,2,1.2583022412805389e-10
2.685,0.24656126505113576,77.50000000307055,0,100,3.0,2,6.080304136967153e-11
2.69,0.24656126505724016,77.50000000146574,0,100,3.0,2,2.9024474792779507e-11
2.695,0.220700632329898,77.50000000069117,0,100,3.0,2,1.36866008075897e-11
2.7,0.17683207093748562,77.50000000032198,0,100,3.0,2,6.3757492135115204e-12
2.705,0.12682276483597799,77.50000000014816,0,100,3.0,2,2.9339083417959623e-12
2.71,0.08141644409447898,77.50000000006736,0,100,3.0,2,1.3338505217833169e-12
2.715,0.04678490952598309,77.50000000003025,0,100,3.0,2,5.991071225478231e-13
2.72,0.024064605020532023,77.50000000001342,0,100,3.0,2,2.656444921019939e-13
2.725,0.011080171739334697,77.50000000000588,0,100,3.0,2,1.165008683582897e-13
2.73,0.004571212771509492,77.50000000000254,0,100,3.0,2,5.037114839645859e-14
2.735,0.0017299316936037438,77.5000000000011,0,100,3.0,2,2.1668035902387214e-14
2.74,0.0008899431850697582,77.50000000000045,0,100,3.0,2,9.004898037355725e-15
2.745,0.002128806368910263,77.50000000000018,0,100,3.0,2,3.6582398276757634e-15
2.75,0.009309664818487698,77.50000000000009,0,100,3.0,2,1.6884183820041984e-15
2.755,0.03503263543368747,77.50000000000003,0,100,3.0,2,5.628061273347328e-16
2.76,0.10606267793605692,77.50000000000001,0,100,3.0,2,2.814030636673664e-16
2.765,0.25734927343160535,77.5,0,100,3.0,2,0.0
2.77,0.5003202479539708,77.5,0,100,3.0,2,0.0
2.775,0.7793067891790435,77.5,0,100,3.0,2,0.0
2.78,0.9720477407234077,77.50000297456887,1,100,3.0,2,5.890235390306951e-08
2.785,0.967267334488097,77.5000062222234,0,100,3.0,2,1.2321234465270038e-07
2.79,0.7505869905515209,77.50001412492644,0,100,3.0,2,2.797015136113962e-07
2.795,0.4028369574773956,77.50003641983405,0,100,3.0,2,7.211848326008267e-07
2.8,0.04553881263121314,77.50010706994215,0,100,3.0,2,2.1201968741812684e-06
2.805,-0.189138810908105,77.50034212581059,0,100,3.0,2,6.774768526539258e-06
2.81,-0.22868072635956738,77.5011174452075,0,100,3.0,2,2.212762787125219e-05
2.815,-0.14104670682394166,77.50356855475515,0,100,3.0,2,7.066445059699122e-05
2.82,-0.051158381651102834,77.51086963859841,0,100,3.0,2,0.00021524036828529712
2.825,-0.008206426846427752,77.53118939740251,0,100,3.0,2,0.0006176118297527509
2.83,0.005350271385530505,77.5838025515997,0,100,3.0,2,0.001659456467320855
2.835,0.01084668799215426,77.71022945889035,0,100,3.0,2,0.004162959581987194
2.84,0.016256859896386415,77.99167912939262,0,100,3.0,2,0.009736220384012324
2.845,0.02345021205790711,78.5712635147241,0,100,3.0,2,0.021213138905427614
2.85,0.0330621597308209,79.67352667251653,0,100,3.0,2,0.043040132129040204
2.855,0.04559141319943196,81.60576661164305,0,100,3.0,2,0.0813023091414465
2.86,0.06149084917446989,84.71992636449431,0,100,3.0,2,0.1429688389008775
2.865,0.08111733445924295,89.3182428616724,0,100,3.0,2,0.23402461112222578
2.87,0.1046628598272375,95.50702080839233,0,100,3.0,2,0.3565746694731154
2.875,0.1320831047748631,103.03863252038366,0,100,3.0,2,0.5057154954531418
2.88,0.16303381314489318,111.21541053963608,0,100,3.0,2,0.6676318918739819
2.885,0.19682662652900276,118.93384620768896,0,100,3.0,2,0.8204722021324546
2.89,0.23241585813229,124.90436853284245,0,100,3.0,2,0.9387003669869793
2.895,0.26842527782774417,128.0,0,100,3.0,2,1.0
2.9,0.30321927900592993,127.60820170828875,0,100,3.0,2,0.9922416179859158
2.905,0.3350163137995362,123.83638395652297,0,100,3.0,2,0.9175521575549102
2.91,0.3620352400956416,117.47746650268306,0,100,3.0,2,0.7916330000531299
2.915,0.3826586036805073,109.75136675254107,0,100,3.0,2,0.6386409257928926
2.92,0.39559233134833227,101.93854206075709,0,100,3.0,2,0.48393152595558586
2.925,0.4,95.05631336589965,0,100,3.0,2,0.34764976962177535
2.93,0.39559233134833227,89.68561676959516,0,100,3.0,2,0.24129934197218134
2.935,0.3826586036805073,85.97066202095813,0,100,3.0,2,0.1677358816031313
2.94,0.3620352400956416,83.73963639863871,0,100,3.0,2,0.1235571564086873
2.945,0.3350163137995362,82.66506980421391,0,100,3.0,2,0.10227860998443394
2.95,0.3032192790059296,82.39769679500384,0,100,3.0,2,0.09698409495057106
2.955,0.26842527782774417,82.64426327774376,0,100,3.0,2,0.1018665995592824
2.96,0.23241585813229,83.1925217979524,0,100,3.0,2,0.1127232039198494
2.965,0.19682662652900276,83.90296821666257,0,100,3.0,2,0.12679144983490243
2.97,0.16303381314489318,84.68768921939152,0,100,3.0,2,0.1423304795919112
2.975,0.13208310477486307,85.48964936969762,0,100,3.0,2,0.15821087860787358
2.98,0.10466285982723562,86.2679527426403,0,100,3.0,2,0.1736228265869367
2.985,0.08111733445917907,86.9895179409416,0,100,3.0,2,0.18791124635527912
2.99,0.06149084917398798,87.62548740634166,0,100,3.0,2,0.20050470111567648
2.995,0.04559141333598128,88.15044219056064,0,100,3.0,2,0.21089984535763642
3.0,0.03306217087257399,88.54297359153537,0,100,3.0,2,0.21867274438683904
3.005,0.02345067901074276,88.78671463080131,0,100,3.0,2,0.22349929961982798
3.01,0.016268788896435526,88.87133001885871,0,100,3.0,2,0.2251748518585884
3.015,0.011039026374860051,88.79319881643394,0,100,3.0,2,0.2236276993353256
3.02,0.007326255555493689,88.55565877970061,0,100,3.0,2,0.2189239362316952
3.025,0.0047556414315231815,88.168766505288,0,100,3.0,2,0.21126270307501
3.03,0.0030193390635632803,87.64859039083257,0,100,3.0,2,0.20096218595708054
3.035,0.001874953127946523,87.01610373171393,0,100,3.0,2,0.18843769765770152
3.04,0.0011387927410965778,86.29578368219154,0,100,3.0,2,0.1741739343008226
3.045,0.0006765107634274089,85.51404620349248,0,100,3.0,2,0.15869398422757394
3.05,0.00039307957404427924,84.69765577968232,0,100,3.0,2,0.1425278372214321
3.055,0.00022338910511776318,83.87224160225274,0,100,3.0,2,0.12618300202480678
3.06,0.00012417073320013317,83.06103109428663,0,100,3.0,2,0.1101194276096363
3.065,6.750753468904987e-05,82.28388071988795,0,100,3.0,2,0.09473031128490983
3.07,3.5897234866245036e-05,81.5566476806962,0,100,3.0,2,0.08032965704348914
3.075,1.8670050400879738e-05,80.89090926252491,0,100,3.0,2,0.06714671806980028
3.08,9.497421874143672e-06,80.29400369189199,0,100,3.0,2,0.05532680578003935
3.085,4.725434140340885e-06,79.76934075119777,0,100,3.0,2,0.0449374406177777
3.09,2.299606063738814e-06,79.316914026084,0,100,3.0,2,0.03597849556601993
3.095,1.0945633976635486e-06,78.93393997639421,0,100,3.0,2,0.02839485101770721
3.1,5.095703414287532e-07,78.615551171725,0,100,3.0,2,0.02209012221237628
3.105,2.3202944964797243e-07,78.35548017624241,0,100,3.0,2,0.016940201509750674
3.11,1.0333746954038608e-07,78.14668432330618,0,100,3.0,2,0.012805630164478717
3.115,4.501406988770349e-08,77.98187749628777,0,100,3.0,2,0.009542128639361692
3.12,0.0,77.85395079052064,0,100,3.0,2,0.007008926544963209
3.125,0.0,77.7562778414269,0,100,3.0,2,0.005074808741126601
3.13,0.0,77.68291156154915,0,100,3.0,2,0.003622011119785098
3.135,0.0,77.62868655855223,0,100,3.0,2,0.002548248684202616
3.14,0.0,77.58924566817144,0,100,3.0,2,0.001767240953889971
3.145,0.0,77.56101028213665,0,100,3.0,2,0.0012081243987455367
3.15,0.0,77.5411131592637,0,100,3.0,2,0.0008141219656178606
3.155,0.0,77.52730993064118,0,100,3.0,2,0.0005407907057659567
3.16,0.0,77.51788225456453,0,100,3.0,2,0.0003541040507826946
3.165,0.0,77.51154212778609,0,100,3.0,2,0.00022855698586309104
3.17,0.0,77.50734364057384,0,100,3.0,2,0.00014541862522448112
3.175,0.0,77.5046057342584,0,100,3.0,2,9.120265858227597e-05
3.18,0.0,77.50284739861534,0,100,3.0,2,5.638413099691746e-05
3.185,0.0,77.5017352401662,0,100,3.0,2,3.436119140986301e-05
3.19,0.0,77.50104239625774,0,100,3.0,2,2.0641510054353e-05
3.195,0.0,77.50061725984372,0,100,3.0,2,1.2222967202410697e-05
3.2,0.0,77.50036030072403,0,100,3.0,2,7.134667802491473e-06
3.205,0.0,77.50020731187256,0,100,3.0,2,4.1051855952004966e-06
3.21,0.0,77.50011758316428,0,100,3.0,2,2.3283794907438456e-06
3.215,0.0,77.50006573974899,0,100,3.0,2,1.3017772077280752e-06
3.22,0.0,77.50003623037833,0,100,3.0,2,7.174332342113456e-07
3.225,0.0,77.50001968247125,0,100,3.0,2,3.8975190589121443e-07
3.23,0.0,77.5000105401869,0,100,3.0,2,2.0871657240361558e-07
3.235,0.001684486749771458,77.50000556389502,0,100,3.0,2,1.1017613892723638e-07
3.24,0.00456624331333666,77.50000289515268,0,100,3.0,2,5.732975595681565e-08
3.245,0.011079731271581421,77.50000148499826,0,100,3.0,2,2.9405906233667265e-08
3.25,0.024064571490409,77.50000075083126,0,100,3.0,2,1.486794578322768e-08
3.255,0.046784906529573234,77.50000037421457,0,100,3.0,2,7.410189408180333e-09
3.26,0.08141644351188804,77.50000018384885,0,100,3.0,2,3.6405713735172804e-09
3.265,0.12682276464025305,77.50000008903548,0,100,3.0,2,1.7630788358411057e-09
3.27,0.1768320708657512,77.50000004250376,0,100,3.0,2,8.416585536330182e-10
3.275,0.22070063230473494,77.50000002000107,0,100,3.0,2,3.9606074195863487e-10
3.28,0.24656126505113576,77.50000000927771,0,100,3.0,2,1.837170855489405e-10
3.285,0.24656126505724016,77.5000000042422,0,100,3.0,2,8.400387975985489e-11
3.29,0.220700632329898,77.50000000191207,0,100,3.0,2,3.786278221644415e-11
3.295,0.17683207093748562,77.50000000084952,0,100,3.0,2,1.6822275146035165e-11
3.3,0.12682276483597799,77.50000000037205,0,100,3.0,2,7.36741360987532e-12
3.305,0.08141644409447898,77.50000000016063,0,100,3.0,2,3.1806988286322427e-12
3.31,0.04678490952598309,77.50000000006835,0,100,3.0,2,1.3535487362400324e-12
3.315,0.024064605020532023,77.50000000002868,0,100,3.0,2,5.678713824807455e-13
3.32,0.011080171739334697,77.50000000001185,0,100,3.0,2,2.346901550985836e-13
3.325,0.004571212771509492,77.50000000000483,0,100,3.0,2,9.567704164690458e-14
3.33,0.0017299316936037438,77.50000000000195,0,100,3.0,2,3.85522197224292e-14
3.335,0.0008899431850697582,77.50000000000077,0,100,3.0,2,1.5195765438037787e-14
3.34,0.002128806368910263,77.5000000000003,0,100,3.0,2,5.909464337014694e-15
3.345,0.009309664818487698,77.50000000000011,0,100,3.0,2,2.2512245093389313e-15
3.35,0.03503263543368747,77.50000000000004,0,100,3.0,2,8.442091910020992e-16
3.355,0.10606267793605692,77.50000000000001,0,100,3.0,2,2.814030636673664e-16
3.36,0.25734927343160535,77.5,0,100,3.0,2,0.0
3.365,0.5003202479539708,77.5,0,100,3.0,2,0.0
3.37,0.7793067891790435,77.5,0,100,3.0,2,0.0
3.375,0.9720477407234077,77.50000295860458,1,100,3.0,2,5.8586229359585414e-08
3.38,0.967267334488097,77.50000607194025,0,100,3.0,2,1.2023644056189188e-07
3.385,0.7505869905515209,77.50001345273148,0,100,3.0,2,2.663907223742883e-07
3.39,0.4028369574773956,77.5000335974731,0,100,3.0,2,6.65296497145121e-07
3.395,0.04553881263121314,77.5000952391376,0,100,3.0,2,1.8859235166978084e-06
3.4,-0.189138810908105,77.50029396174413,0,100,3.0,2,5.821024636320949e-06
3.405,-0.22868072635956738,77.50093256649718,0,100,3.0,2,1.8466663310573943e-05
3.41,-0.14104670682394166,77.5029100232732,0,100,3.0,2,5.762422323172278e-05
3.415,-0.051158381651102834,77.50870714352278,0,100,3.0,2,0.00017241868361948757
3.42,-0.008206426846427752,77.5246562773498,0,100,3.0,2,0.00048824311583773423
3.425,0.005350271385530505,77.56565066778992,0,100,3.0,2,0.0013000132235628605
3.43,0.01084668799215426,77.66383990810884,0,100,3.0,2,0.0032443546160166505
3.435,0.016256859896386415,77.88262038992832,0,100,3.0,2,0.007576641384719209
3.44,0.02345021205790711,78.33545183145863,0,100,3.0,2,0.016543600622943112
3.445,0.0330621597308209,79.20484989603223,0,100,3.0,2,0.03375940388182632
3.45,0.04559141319943196,80.75054676642503,0,100,3.0,2,0.06436726270148578
3.455,0.06149084917446989,83.28992906835192,0,100,3.0,2,0.11465206075944404
3.46,0.08111733445924295,87.13394030962314,0,100,3.0,2,0.19077109524006222
3.465,0.1046628598272375,92.47378991953458,0,100,3.0,2,0.2965106914759323
3.47,0.1320831047748631,99.23955414039685,0,100,3.0,2,0.43048622060191777
3.475,0.16303381314489318,106.98246625036123,0,100,3.0,2,0.5838112128784402
3.48,0.19682662652900276,114.8494723141842,0,100,3.0,2,0.7395935111719643
3.485,0.23241585813229,121.70177762100317,0,100,3.0,2,0.8752827251683797
3.49,0.26842527782774417,126.37413972136399,0,100,3.0,2,0.9678047469577027
3.495,0.30321927900592993,128.0,0,100,3.0,2,1.0
3.5,0.3350163137995362,126.27952255457706,0,100,3.0,2,0.9659311396945952
3.505,0.3620352400956416,121.57753056726469,0,100,3.0,2,0.8728223874705879
3.51,0.3826586036805073,114.80819134861454,0,100,3.0,2,0.7387760663091989
3.515,0.39559233134833227,107.1570555269131,0,100,3.0,2,0.5872684262755069
3.52,0.4,99.75682326894582,0,100,3.0,2,0.44072917364249153
3.525,0.39559233134833227,93.437628290086,0,100,3.0,2,0.3155965998036831
3.53,0.3826586036805073,88.6210265304858,0,100,3.0,2,0.2202183471383328
3.535,0.3620352400956416,85.35521064557099,0,100,3.0,2,0.15554872565487113
3.54,0.3350163137995362,83.43676931776182,0,100,3.0,2,0.11755978847053099
3.545,0.3032192790059296,82.55078966163666,0,100,3.0,2,0.1000156368640922
3.55,0.26842527782774417,82.37990978446584,0,100,3.0,2,0.0966318769201156
3.555,0.23241585813229,82.66385053700031,0,100,3.0,2,0.10225446607921415
3.56,0.19682662652900276,83.21572546574443,0,100,3.0,2,0.11318268248998865
3.565,0.16303381314489318,83.91239791841033,0,100,3.0,2,0.12697817660218486
3.57,0.13208310477486307,84.67546318988141,0,100,3.0,2,0.14208837999765173
3.575,0.10466285982723562,85.45331282711224,0,100,3.0,2,0.1574913431111335
3.58,0.08111733445917907,86.20847512306442,0,100,3.0,2,0.17244505194186965
3.585,0.06149084917398798,86.91043201717129,0,100,3.0,2,0.1863451884588374
3.59,0.04559141333598128,87.53247338289246,0,100,3.0,2,0.19866283926519726
3.595,0.03306217087257399,88.0509704560115,0,100,3.0,2,0.20893010803983164
3.6,0.02345067901074276,88.44584531855038,0,100,3.0,2,0.21674941224852243
3.605,0.016268788896435526,88.70146811501344,0,100,3.0,2,0.22181124980224634
3.61,0.011039026374860051,88.80754517288817,0,100,3.0,2,0.2239117856017459
3.615,0.007326255555493689,88.75976200907462,0,100,3.0,3,0.22296558433811128
3.62,0.0047556414315231815,88.56006114259078,0,100,3.0,3,0.21901111173447094
3.625,0.0030193390635632803,88.21650740561338,0,100,3.0,3,0.2122080674378888
3.63,0.001874953127946523,87.74274663539316,0,100,3.0,3,0.20282666604738933
3.635,0.0011387927410965778,87.15710631316468,0,100,3.0,3,0.19122982798345892
3.64,0.0006765107634274089,86.48142019658886,0,100,3.0,3,0.17784990488294766
3.645,0.00039307957404427924,85.73968176817759,0,100,3.0,3,0.16316201521143742
3.65,0.00022338910511776318,84.95664182706211,0,100,3.0,3,0.14765627380321017
3.655,0.00012417073320013317,84.15646337911748,0,100,3.0,3,0.13181115602212837
3.66,6.750753468904987e-05,83.36153323734182,0,100,3.0,3,0.11606996509587757
3.665,3.5897234866245036e-05,82.59150690834363,0,100,3.0,3,0.10082191897710163
3.67,1.8670050400879738e-05,81.86263483969579,0,100,3.0,3,0.08638880870684726
3.675,9.497421874143672e-06,81.18738775969096,0,100,3.0,3,0.07301757939982106
3.68,4.725434140340885e-06,80.57437030471705,0,100,3.0,3,0.06087861989538713
3.685,2.299606063738814e-06,80.02848839135753,0,100,3.0,3,0.0500690770565847
3.69,1.0945633976635486e-06,79.55131885537037,0,100,3.0,3,0.040620175353868686
3.695,5.095703414287532e-07,79.14162062723075,0,100,3.0,3,0.03250733915308417
3.7,2.3202944964797243e-07,78.79592494440962,0,100,3.0,3,0.025661880087319212
3.705,1.0333746954038608e-07,78.50914673365939,0,100,3.0,3,0.019983103636819648
3.71,4.501406988770349e-08,78.2751686651716,0,100,3.0,3,0.015349874557853577
3.715,0.0,78.08736155817212,0,100,3.0,3,0.01163092194400237
3.72,0.0,77.93901792246764,0,100,3.0,3,0.008693424207280032
3.725,0.0,77.82368785280029,0,100,3.0,3,0.0064096604514908995
3.73,0.0,77.73541708275205,0,100,3.0,3,0.004661724410931694
3.735,0.0,77.66889506741865,0,100,3.0,3,0.0033444567805672436
3.74,0.0,77.61952627338034,0,100,3.0,3,0.0023668568986206853
3.745,0.0,77.583440560487,0,100,3.0,3,0.0016522883264753596
3.75,0.0,77.55745905335685,0,100,3.0,3,0.0011378030367693284
3.755,0.0,77.53903077198105,0,100,3.0,3,0.0007728865738821098
3.76,0.0,77.52615310372167,0,100,3.0,3,0.0005178832420132368
3.765,0.0,77.51728648731061,0,100,3.0,3,0.00034230667941809016
3.77,0.0,77.51127087641395,0,100,3.0,3,0.00022318567156327782
3.775,0.0,77.50724896569103,0,100,3.0,3,0.0001435438750699704
3.78,0.0,77.50459898318086,0,100,3.0,3,9.10689738783267e-05
3.785,0.0,77.50287816056776,0,100,3.0,3,5.699327856952082e-05
3.79,0.0,77.50177678810005,0,100,3.0,3,3.518392277317274e-05
3.795,0.0,77.50108199106754,0,100,3.0,3,2.1425565693793897e-05
3.8,0.0,77.5006499487824,0,100,3.0,3,1.2870272918730328e-05
3.805,0.0,77.50038512526845,0,100,3.0,3,7.626242939628661e-06
3.81,0.0,77.50022510871771,0,100,3.0,3,4.457598370580323e-06
3.815,0.0,77.5001297926306,0,100,3.0,3,2.5701511010358426e-06
3.82,0.0,77.50007382019291,0,100,3.0,3,1.4617859982094934e-06
3.825,0.0,77.50004141596045,0,100,3.0,3,8.201180287752583e-07
3.83,0.0,77.50002292069169,0,100,3.0,3,4.5387508299598373e-07
3.835,0.0,77.50001251281783,0,100,3.0,3,2.477785709414651e-07
3.84,0.0,77.50000673829383,0,100,3.0,3,1.334315610696793e-07
3.845,0.001684486749771458,77.50000357941612,0,100,3.0,3,7.087952705732466e-08
3.85,0.00456624331333666,77.50000187560704,0,100,3.0,3,3.714073347221682e-08
3.855,0.011079731271581421,77.50000096948018,0,100,3.0,3,1.919762739096696e-08
3.86,0.024064571490409,77.5000004943146,0,100,3.0,3,9.788408024718646e-09
3.865,0.046784906529573234,77.5000002486196,0,100,3.0,3,4.923160387610695e-09
3.87,0.08141644351188804,77.50000012334874,0,100,3.0,3,2.442549326714119e-09
3.875,0.12682276464025305,77.50000006036726,0,100,3.0,3,1.1953912095609352e-09
3.88,0.1768320708657512,77.5000000291431,0,100,3.0,3,5.770909910556793e-10
3.885,0.22070063230473494,77.50000001387833,0,100,3.0,3,2.748185133806137e-10
3.89,0.24656126505113576,77.50000000651939,0,100,3.0,3,1.290967508911047e-10
3.895,0.24656126505724016,77.50000000302094,0,100,3.0,3,5.982066327440875e-11
3.9,0.220700632329898,77.50000000138085,0,100,3.0,3,2.7343654293494327e-11
3.905,0.17683207093748562,77.5000000006226,0,100,3.0,3,1.2328831025394658e-11
3.91,0.12682276483597799,77.50000000027693,0,100,3.0,3,5.4837015016859696e-12
3.915,0.08141644409447898,77.50000000012149,0,100,3.0,3,2.4057147912923155e-12
3.92,0.04678490952598309,77.50000000005258,0,100,3.0,3,1.0411913355692557e-12
3.925,0.024064605020532023,77.50000000002245,0,100,3.0,3,4.446168405944389e-13
3.93,0.011080171739334697,77.50000000000945,0,100,3.0,3,1.8713303733879865e-13
3.935,0.004571212771509492,77.50000000000392,0,100,3.0,3,7.766724557219314e-14
3.94,0.0017299316936037438,77.5000000000016,0,100,3.0,3,3.179854619441241e-14
3.945,0.0008899431850697582,77.50000000000065,0,100,3.0,3,1.2944540928698855e-14
3.95,0.002128806368910263,77.50000000000026,0,100,3.0,3,5.065255146012595e-15
3.955,0.009309664818487698,77.5000000000001,0,100,3.0,3,1.969821445671565e-15
3.96,0.03503263543368747,77.50000000000004,0,100,3.0,3,8.442091910020992e-16
3.965,0.10606267793605692,77.50000000000001,0,100,3.0,3,2.814030636673664e-16
3.97,0.25734927343160535,77.5,0,100,3.0,3,0.0
3.975,0.5003202479539708,77.5,0,100,3.0,3,0.0
3.98,0.7793067891790435,77.5,0,100,3.0,3,0.0
3.985,0.9720477407234077,77.50000296131513,1,100,3.0,3,5.86399036171432e-08
3.99,0.967267334488097,77.50000586669285,0,100,3.0,3,1.1617213555053799e-07
3.995,0.7505869905515209,77.50001243272976,0,100,3.0,3,2.461926685397641e-07
4.0,0.4028369574773956,77.50002929773642,0,100,3.0,3,5.801531964008594e-07
4.005,0.04553881263121314,77.50007764429057,0,100,3.0,3,1.5375107043630377e-06
4.01,-0.189138810908105,77.50022444113267,0,100,3.0,3,4.44437886480865e-06
4.015,-0.22868072635956738,77.5006729999817,0,100,3.0,3,1.3326732310941783e-05
4.02,-0.14104670682394166,77.50200662880097,0,100,3.0,3,3.9735223781586806e-05
4.025,-0.051158381651102834,77.50579382291566,0,100,3.0,3,0.00011472916664679855
4.03,-0.008206426846427752,77.51596845203716,0,100,3.0,3,0.0003162069710328123
4.035,0.005350271385530505,77.54170084907592,0,100,3.0,3,0.0008257593876420391
4.04,0.01084668799215426,77.6027953662103,0,100,3.0,3,0.0020355518061445864
4.045,0.016256859896386415,77.73872856789444,0,100,3.0,3,0.004727298374147344
4.05,0.02345021205790711,78.02178614378205,0,100,3.0,3,0.0103323988867733
4.055,0.0330621597308209,78.57274718688386,0,100,3.0,3,0.02124251855215563
4.06,0.04559141319943196,79.57388842448763,0,100,3.0,3,0.041067097514606625
4.065,0.06149084917446989,81.26947432350076,0,100,3.0,3,0.07464305591090613
4.07,0.08111733445924295,83.94080437983155,0,100,3.0,3,0.1275406807887435
4.075,0.1046628598272375,87.84519714796359,0,100,3.0,3,0.2048553890685859
4.08,0.1320831047748631,93.11939194719336,0,100,3.0,3,0.30929489004343297
4.085,0.16303381314489318,99.66726161123096,0,100,3.0,3,0.4389556754699199
4.09,0.19682662652900276,107.07235404598593,0,100,3.0,3,0.5855911692274443
4.095,0.23241585813229,114.5849217034372,0,100,3.0,3,0.7343548852165783
4.1,0.26842527782774417,121.21893744735634,0,100,3.0,3,0.8657215336110167
4.105,0.30321927900592993,125.95557127067653,0,100,3.0,3,0.9595162627856738
4.11,0.3350163137995362,128.0,0,100,3.0,3,1.0
4.115,0.3620352400956416,127.00381183060969,0,100,3.0,3,0.9802735015962315
4.12,0.3826586036805073,123.16801061856472,0,100,3.0,3,0.9043170419517766
4.125,0.39559233134833227,117.18529630711025,0,100,3.0,3,0.7858474516259455
4.13,0.4,110.04485402705396,0,100,3.0,3,0.6444525549911675
4.135,0.39559233134833227,102.77562642313768,0,100,3.0,3,0.5005074539235185
4.14,0.3826586036805073,96.21947242055211,0,100,3.0,3,0.37068262218915066
4.145,0.3620352400956416,90.90020024825073,0,100,3.0,3,0.2653504999653609
4.15,0.3350163137995362,87.00641379908434,0,100,3.0,3,0.18824581780365035
4.155,0.3032192790059296,84.46183873099395,0,100,3.0,3,0.13785819269294944
4.16,0.26842527782774417,83.03487611005043,0,100,3.0,3,0.10960150712971155
4.165,0.23241585813229,82.44241985324331,0,100,3.0,3,0.09786970006422392
4.17,0.19682662652900276,82.42169421727391,0,100,3.0,3,0.09745929143116652
4.175,0.16303381314489318,82.76468708961895,0,100,3.0,3,0.10425122949740487
4.18,0.13208310477486307,83.3235951857834,0,100,3.0,3,0.11531871655016641
4.185,0.10466285982723562,84.00031938469603,0,100,3.0,3,0.128719195736555
4.19,0.08111733445917907,84.73108731348296,0,100,3.0,3,0.14318984779174176
4.195,0.06149084917398798,85.47276520571721,0,100,3.0,3,0.15787653872707344
4.2,0.04559141333598128,86.19331061043677,0,100,3.0,3,0.17214476456310432
4.205,0.03306217087257399,86.8663022786381,0,100,3.0,3,0.18547133225025944
4.21,0.02345067901074276,87.4684738559012,0,100,3.0,3,0.19739552189903356
4.215,0.016268788896435526,87.97908562508283,0,100,3.0,3,0.2075066460412442
4.22,0.011039026374860051,88.38024238654792,0,100,3.0,3,0.21545034428807763
4.225,0.007326255555493689,88.65758205605593,0,100,3.0,3,0.22094221893180058
4.23,0.0047556414315231815,88.80099727139321,0,100,3.0,3,0.22378212418600424
4.235,0.0030193390635632803,88.80520117714404,0,100,3.0,3,0.22386536984443647
4.24,0.001874953127946523,88.67003626796662,0,100,3.0,3,0.2211888369894381
4.245,0.0011387927410965778,88.40047980988066,0,100,3.0,3,0.21585108534417158
4.25,0.0006765107634274089,88.0063384100501,0,100,3.0,3,0.20804630514950703
4.255,0.00039307957404427924,87.50165555247239,0,100,3.0,3,0.19805258519747299
4.26,0.00022338910511776318,86.90388132771125,0,100,3.0,3,0.18621547183586626
4.265,0.00012417073320013317,86.23287258440021,0,100,3.0,3,0.17292816998812302
4.27,6.750753468904987e-05,85.50980319077796,0,100,3.0,3,0.15860996417382095
4.275,3.5897234866245036e-05,84.75606733504448,0,100,3.0,3,0.14368450168404906
4.28,1.8670050400879738e-05,83.99225397573021,0,100,3.0,3,0.1285594846679249
4.285,9.497421874143672e-06,83.23725872932803,0,100,3.0,3,0.11360908374906997
4.29,4.725434140340885e-06,82.50758243592045,0,100,3.0,3,0.09916004823604861
4.295,2.299606063738814e-06,81.81684561597365,0,100,3.0,3,0.08548209140541876
4.3,1.0945633976635486e-06,81.17552739936477,0,100,3.0,3,0.07278272077950035
4.305,5.095703414287532e-07,80.59091846912776,0,100,3.0,3,0.06120630631936153
4.31,2.3202944964797243e-07,80.06726188020727,0,100,3.0,3,0.05083686891499543
4.315,1.0333746954038608e-07,79.60604444742516,0,100,3.0,3,0.04170385044406262
4.32,4.501406988770349e-08,79.20639523846361,0,100,3.0,3,0.03379000472205176
4.325,0.0,78.86554641438488,0,100,3.0,3,0.027040523057126342
4.33,0.0,78.5793145693633,0,100,3.0,3,0.021372565729966438
4.335,0.0,78.34256681555922,0,100,3.0,3,0.016684491397212346
4.34,0.0,78.14964395113566,0,100,3.0,3,0.012864236656151651
4.345,0.0,77.99472195637934,0,100,3.0,3,0.009796474383749244
4.35,0.0,77.87210174718471,0,100,3.0,3,0.007368351429400293
4.355,0.0,77.77642477883984,0,100,3.0,3,0.005473757996828501
4.36,0.0,77.70281822146181,0,100,3.0,3,0.004016202405184382
4.365,0.0,77.64697778795882,0,100,3.0,3,0.002910451246709265
4.37,0.0,77.60519889581394,0,100,3.0,3,0.002083146451761224
4.375,0.0,77.5743678786863,0,100,3.0,3,0.0014726312611149088
4.38,0.0,77.5519247415339,0,100,3.0,3,0.0010282127036414903
4.385,0.0,77.53580783230012,0,100,3.0,3,0.0007090659861410356
4.39,0.0,77.52438913828057,0,100,3.0,3,0.00048295323327858503
4.395,0.0,77.51640701665087,0,100,3.0,3,0.00032489141882918076
4.4,0.0,77.51090128061816,0,100,3.0,3,0.00021586694293379726
4.405,0.0,77.50715385539726,0,100,3.0,3,0.00014166050291609876
4.41,0.0,77.50463679113156,0,100,3.0,3,9.181764616950303e-05
4.415,0.0,77.50296831267497,0,100,3.0,3,5.877846881120793e-05
4.42,0.0,77.5018767935301,0,100,3.0,3,3.71642283188395e-05
4.425,0.0,77.50117202826756,0,100,3.0,3,2.320848054576498e-05
4.43,0.0,77.50072289365475,0,100,3.0,3,1.4314725836701394e-05
4.435,0.0,77.50044037786004,0,100,3.0,3,8.720353664253563e-06
4.44,0.0,77.50026496668872,0,100,3.0,3,5.246865123128805e-06
4.445,0.0,77.50015746056945,0,100,3.0,3,3.118031078303271e-06
4.45,0.0,77.50009242024059,0,100,3.0,3,1.8301037740830808e-06
4.455,0.0,77.50005357684176,0,100,3.0,3,1.060927559700587e-06
4.46,0.0,77.50003067622127,0,100,3.0,3,6.074499261706811e-07
4.465,0.0,77.50001734767797,0,100,3.0,3,3.4351837560207777e-07
4.47,0.0,77.50000968937087,0,100,3.0,3,1.9186873010082785e-07
4.475,0.0,77.5000053452072,0,100,3.0,3,1.0584568711931184e-07
4.48,0.0,77.50000291238139,0,100,3.0,3,5.767091861929261e-08
4.485,0.001684486749771458,77.50000156728035,0,100,3.0,3,3.1035254454367857e-08
4.49,0.00456624331333666,77.50000083302851,0,100,3.0,3,1.6495614027638176e-08
4.495,0.011079731271581421,77.50000043730836,0,100,3.0,3,8.65957145374568e-09
4.5,0.024064571490409,77.5000002267412,0,100,3.0,3,4.489924612523219e-09
4.505,0.046784906529573234,77.50000011611486,0,100,3.0,3,2.2993041925879466e-09
4.51,0.08141644351188804,77.50000005873,0,100,3.0,3,1.1629701997896906e-09
4.515,0.12682276464025305,77.5000000293391,0,100,3.0,3,5.809723835128433e-10
4.52,0.1768320708657512,77.500000014476,0,100,3.0,3,2.8665348202927213e-10
4.525,0.22070063230473494,77.50000000705448,0,100,3.0,3,1.396927018504357e-10
4.53,0.24656126505113576,77.50000000339544,0,100,3.0,3,6.723647821123485e-11
4.535,0.24656126505724016,77.50000000161414,0,100,3.0,3,3.1963166986657814e-11
4.54,0.220700632329898,77.50000000075788,0,100,3.0,3,1.500750678844432e-11
4.545,0.17683207093748562,77.50000000035146,0,100,3.0,3,6.959660570621306e-12
4.55,0.12682276483597799,77.50000000016098,0,100,3.0,3,3.1877339052239267e-12
4.555,0.08141644409447898,77.50000000007282,0,100,3.0,3,1.4419092982315855e-12
4.56,0.04678490952598309,77.50000000003254,0,100,3.0,3,6.444130157982691e-13
4.565,0.024064605020532023,77.50000000001435,0,100,3.0,3,2.8421709430404007e-13
4.57,0.011080171739334697,77.50000000000625,0,100,3.0,3,1.2381734801364123e-13
4.575,0.004571212771509492,77.5000000000027,0,100,3.0,3,5.3466582096799615e-14
4.58,0.0017299316936037438,77.50000000000115,0,100,3.0,3,2.279364815705668e-14
4.585,0.0008899431850697582,77.50000000000048,0,100,3.0,3,9.567704164690459e-15
4.59,0.002128806368910263,77.5000000000002,0,100,3.0,3,3.93964289134313e-15
4.595,0.009309664818487698,77.50000000000009,0,100,3.0,3,1.6884183820041984e-15
4.6,0.03503263543368747,77.50000000000003,0,100,3.0,3,5.628061273347328e-16
4.605,0.10606267793605692,77.50000000000001,0,100,3.0,3,2.814030636673664e-16
4.61,0.25734927343160535,77.5,0,100,3.0,3,0.0
4.615,0.5003202479539708,77.5,0,100,3.0,3,0.0
4.62,0.7793067891790435,77.5,0,100,3.0,3,0.0
4.625,0.9720477407234077,77.50000295867528,1,100,3.0,3,5.858762933982716e-08
4.63,0.967267334488097,77.50000573588933,0,100,3.0,3,1.1358196696047604e-07
4.635,0.7505869905515209,77.50001183257488,0,100,3.0,3,2.3430841355151967e-07
4.64,0.4028369574773956,77.50002692524943,0,100,3.0,3,5.331732560228707e-07
4.645,0.04553881263121314,77.50006848498596,0,100,3.0,3,1.3561383358330995e-06
4.65,-0.189138810908105,77.50019000364756,0,100,3.0,3,3.7624484665423434e-06
4.655,-0.22868072635956738,77.50054952846868,0,100,3.0,3,1.0881751855081482e-05
4.66,-0.14104670682394166,77.50159055361388,0,100,3.0,3,3.149611116594603e-05
4.665,-0.051158381651102834,77.5044851873146,0,100,3.0,3,8.88155903881213e-05
4.67,-0.008206426846427752,77.51213703464876,0,100,3.0,3,0.00024033731977741548
4.675,0.005350271385530505,77.53126563857143,0,100,3.0,3,0.0006191215558698273
4.68,0.01084668799215426,77.57635492653704,0,100,3.0,3,0.0015119787433076396
4.685,0.016256859896386415,77.67639067140166,0,100,3.0,3,0.003492884582211144
4.69,0.02345021205790711,77.88501562001684,0,100,3.0,3,0.007624071683501865
4.695,0.0330621597308209,78.29354171269637,0,100,3.0,3,0.01571369728111618
4.7,0.04559141319943196,79.04381637661916,0,100,3.0,3,0.03057062131919133
4.705,0.06149084917446989,80.3344428218482,0,100,3.0,3,0.05612758063065741
4.71,0.08111733445924295,82.41059977545191,0,100,3.0,3,0.09723959951389928
4.715,0.1046628598272375,85.52723971113011,0,100,3.0,3,0.15895524180455659
4.72,0.1320831047748631,89.88072367632314,0,100,3.0,3,0.2451628450757058
4.725,0.16303381314489318,95.51631820621935,0,100,3.0,3,0.35675877636077924
4.73,0.19682662652900276,102.23576195411229,0,100,3.0,3,0.4898170683982632
4.735,0.23241585813229,109.54272748408067,0,100,3.0,3,0.6345094551303103
4.74,0.26842527782774417,116.66447953882539,0,100,3.0,3,0.7755342482935721
4.745,0.30321927900592993,122.66887465936992,0,100,3.0,3,0.8944331615716816
4.75,0.3350163137995362,126.66023534251029,0,100,3.0,3,0.9734700067823819
4.755,0.3620352400956416,128.0,0,100,3.0,3,1.0
4.76,0.3826586036805073,126.47807474204686,0,100,3.0,3,0.9698628661791456
4.765,0.39559233134833227,122.37204251675124,0,100,3.0,3,0.8885552973614106
4.77,0.4,116.37169729313081,0,100,3.0,3,0.7697365800619962
4.775,0.39559233134833227,109.3974911834289,0,100,3.0,3,0.6316334887807702
4.78,0.3826586036805073,102.37891335470243,0,100,3.0,3,0.492651749598068
4.785,0.3620352400956416,96.06592941247743,0,100,3.0,3,0.3676421665837115
4.79,0.3350163137995362,90.92347555632232,0,100,3.0,3,0.2658113971548973
4.795,0.3032192790059296,87.12056802491122,0,100,3.0,3,0.1905062975229945
4.8,0.26842527782774417,84.59144492972001,0,100,3.0,3,0.14042465207366361
4.805,0.23241585813229,83.12951116401001,0,100,3.0,3,0.11147546859425765
4.81,0.19682662652900276,82.47746051752661,0,100,3.0,3,0.09856357460448731
4.815,0.16303381314489318,82.39150407042901,0,100,3.0,3,0.09686146674116847
4.82,0.13208310477486307,82.67419152703448,0,100,3.0,4,0.10245923815909862
4.825,0.10466285982723562,83.18184507507237,0,100,3.0,4,0.11251178366479948
4.83,0.08111733445917907,83.81705805815282,0,100,3.0,4,0.12509025857728365
4.835,0.06149084917398798,84.51572366942884,0,100,3.0,4,0.13892522117680867
4.84,0.04559141333598128,85.2346470988757,0,100,3.0,4,0.15316132869060786
4.845,0.03306217087257399,85.9423701012617,0,100,3.0,4,0.16717564556953865
4.85,0.02345067901074276,86.61354000209963,0,100,3.0,4,0.18046613865543815
4.855,0.016268788896435526,87.22608554222725,0,100,3.0,4,0.19259575331143075
4.86,0.011039026374860051,87.76022864529114,0,100,3.0,4,0.20317284446121062
4.865,0.007326255555493689,88.19852100568673,0,100,3.0,4,0.2118519011027075
4.87,0.0047556414315231815,88.5263495487991,0,100,3.0,4,0.21834355542176442
4.875,0.0030193390635632803,88.73256976810211,0,100,3.0,4,0.22242712412083385
4.88,0.001874953127946523,88.81006987750189,0,100,3.0,4,0.22396177975251264
4.885,0.0011387927410965778,88.75615571232208,0,100,3.0,4,0.22289417252122937
4.89,0.0006765107634274089,88.57269907320256,0,100,3.0,4,0.21926136778618924
4.895,0.00039307957404427924,88.26602769355591,0,100,3.0,4,0.213188667199127
4.9,0.00022338910511776318,87.8465622856699,0,100,3.0,4,0.20488242149841396
4.905,0.00012417073320013317,87.32822857412393,0,100,3.0,4,0.1946183876064144
4.91,6.750753468904987e-05,86.72769024603632,0,100,3.0,4,0.18272653952547163
4.915,3.5897234866245036e-05,86.06346160642826,0,100,3.0,4,0.1695734971569953
4.92,1.8670050400879738e-05,85.35496564359354,0,100,3.0,4,0.15554387413056525
4.925,9.497421874143672e-06,84.62160386192369,0,100,3.0,4,0.1410218586519542
4.93,4.725434140340885e-06,83.88189894118692,0,100,3.0,4,0.1263742364591469
4.935,2.299606063738814e-06,83.1527609609214,0,100,3.0,4,0.11193586061230491
4.94,1.0945633976635486e-06,82.44891399542598,0,100,3.0,4,0.09799829693912837
4.945,5.095703414287532e-07,81.78250402610412,0,100,3.0,4,0.08480205992285388
4.95,2.3202944964797243e-07,81.16289307400754,0,100,3.0,4,0.07253253611896122
4.955,1.0333746954038608e-07,80.59662980754183,0,100,3.0,4,0.061319402129541206
4.96,4.501406988770349e-08,80.08757488038495,0,100,3.0,4,0.051239106542276217
4.965,0.0,79.63715071685711,0,100,3.0,4,0.04231981617538826
4.97,0.0,79.2446807233738,0,100,3.0,4,0.034548133136114934
4.975,0.0,78.90778185200384,0,100,3.0,4,0.02787686835651161
4.98,0.0,78.62277659186489,0,100,3.0,4,0.02223319983890874
4.985,0.0,78.38509507620999,0,100,3.0,4,0.017526635172475102
4.99,0.0,78.1896441991558,0,100,3.0,4,0.013656320775362248
4.995,0.0,78.0311275608155,0,100,3.0,4,0.010517377441891202
5.0,0.0,77.90430692146866,0,100,3.0,4,0.008006077652844746
5.005,0.0,77.80420202598842,0,100,3.0,4,0.006023802494820135
5.01,0.0,77.72623073981798,0,100,3.0,4,0.004479816630058982
5.015,0.0,77.66629520125095,0,100,3.0,4,0.003292974282196959
5.02,0.0,77.62082210727883,0,100,3.0,4,0.0023925169758183414
5.025,0.0,77.58676642080745,0,100,3.0,4,0.0017181469466821806
5.03,0.0,77.56158792145219,0,100,3.0,4,0.0012195628010334026
5.035,0.0,77.5432093764747,0,100,3.0,4,0.0008556312173209223
5.04,0.0,77.52996394830834,0,100,3.0,4,0.0005933455110561461
5.045,0.0,77.5205380244591,0,100,3.0,4,0.0004066935536455406
5.05,0.0,77.51391415644198,0,100,3.0,4,0.00027552785033632595
5.055,0.0,77.50931737735736,0,100,3.0,4,0.00018450252192797007
5.06,0.0,77.50616693080607,0,100,3.0,4,0.00012211744170444224
5.065,0.0,77.50403443807636,0,100,3.0,4,7.988986289821678e-05
5.07,0.0,77.50260876896958,0,100,3.0,4,5.16587914768308e-05
5.075,0.0,77.50166734999985,0,100,3.0,4,3.301683168017754e-05
5.08,0.0,77.50105331074691,0,100,3.0,4,2.0857638552703102e-05
5.085,0.0,77.50065769546079,0,100,3.0,4,1.302367249085103e-05
5.09,0.0,77.50040591187926,0,100,3.0,4,8.037858995156975e-06
5.095,0.0,77.50024761518029,0,100,3.0,4,4.903270896737931e-06
5.1,0.0,77.50014930053305,0,100,3.0,4,2.9564461990705944e-06
5.105,0.0,77.50008897828656,0,100,3.0,4,1.7619462684283146e-06
5.11,0.0,77.50005241375882,0,100,3.0,4,1.0378962143152935e-06
5.115,0.0,77.50003051723355,0,100,3.0,4,6.043016545426875e-07
5.12,0.0,77.50001756238949,0,100,3.0,4,3.4777008886296675e-07
5.125,0.0,77.50000998988837,0,100,3.0,4,1.9781957166292114e-07
5.13,0.0,77.50000561663568,0,100,3.0,4,1.112205084290067e-07
5.135,0.0,77.50000312126369,0,100,3.0,4,6.180720175048054e-08
5.14,0.0,77.5000017144438,0,100,3.0,4,3.394938213060945e-08
5.145,0.001684486749771458,77.50000093079628,0,100,3.0,4,1.8431609418041604e-08
5.15,0.00456624331333666,77.50000049948748,0,100,3.0,4,9.890841272521141e-09
5.155,0.011079731271581421,77.50000026493123,0,100,3.0,4,5.2461629847769445e-09
5.16,0.024064571490409,77.50000013889299,0,100,3.0,4,2.7503561584423307e-09
5.165,0.046784906529573234,77.50000007197241,0,100,3.0,4,1.4251962074742533e-09
5.17,0.08141644351188804,77.50000003686297,0,100,3.0,4,7.299598285562122e-10
5.175,0.12682276464025305,77.5000000186618,0,100,3.0,4,3.6954047302943125e-10
5.18,0.1768320708657512,77.50000000933802,0,100,3.0,4,1.8491136015114481e-10
5.185,0.22070063230473494,77.50000000461843,0,100,3.0,4,9.145402587044841e-11
5.19,0.24656126505113576,77.50000000225774,0,100,3.0,4,4.470763033708917e-11
5.195,0.24656126505724016,77.50000000109091,0,100,3.0,4,2.160218758548905e-11
5.2,0.220700632329898,77.50000000052101,0,100,3.0,4,1.0317080523236655e-11
5.205,0.17683207093748562,77.50000000024595,0,100,3.0,4,4.870242822891111e-12
5.21,0.12682276483597799,77.50000000011475,0,100,3.0,4,2.2723297391139838e-12
5.215,0.08141644409447898,77.50000000005292,0,100,3.0,4,1.0479450090972725e-12
5.22,0.04678490952598309,77.50000000002413,0,100,3.0,4,4.778224021071881e-13
5.225,0.024064605020532023,77.50000000001087,0,100,3.0,4,2.152733437055353e-13
5.23,0.011080171739334697,77.50000000000485,0,100,3.0,4,9.595844471057194e-14
5.235,0.004571212771509492,77.50000000000213,0,100,3.0,4,4.221045955010496e-14
5.24,0.0017299316936037438,77.50000000000092,0,100,3.0,4,1.8291199138378817e-14
5.245,0.0008899431850697582,77.5000000000004,0,100,3.0,4,7.87928578268626e-15
5.25,0.002128806368910263,77.50000000000017,0,100,3.0,4,3.3768367640083968e-15
5.255,0.009309664818487698,77.50000000000007,0,100,3.0,4,1.4070153183368321e-15
5.26,0.03503263543368747,77.50000000000003,0,100,3.0,4,5.628061273347328e-16
5.265,0.10606267793605692,77.50000000000001,0,100,3.0,4,2.814030636673664e-16
5.27,0.25734927343160535,77.5,0,100,3.0,4,0.0
5.275,0.5003202479539708,77.5,0,100,3.0,4,0.0
5.28,0.7793067891790435,77.5,0,100,3.0,4,0.0
5.285,0.9720477407234077,77.50000296047277,1,100,3.0,4,5.862322316914125e-08
5.29,0.967267334488097,77.50000556968264,0,100,3.0,4,1.1029074539017006e-07
5.295,0.7505869905515209,77.50001107361088,0,100,3.0,4,2.1927942332758273e-07
5.3,0.4028369574773956,77.5000240274186,0,100,3.0,4,4.757904674074825e-07
5.305,0.04553881263121314,77.50005775887072,0,100,3.0,4,1.1437400143456604e-06
5.31,-0.189138810908105,77.50015126044384,0,100,3.0,4,2.995256313726155e-06
5.315,-0.22868072635956738,77.50041533893004,0,100,3.0,4,8.224533268116154e-06
5.32,-0.14104670682394166,77.5011510522014,0,100,3.0,4,2.2793112898882263e-05
5.325,-0.051158381651102834,77.50313388306245,0,100,3.0,4,6.205709034547187e-05
5.33,-0.008206426846427752,77.50824853235738,0,100,3.0,4,0.00016333727440366087
5.335,0.005350271385530505,77.52080291886513,0,100,3.0,4,0.00041193898742830745
5.34,0.01084668799215426,77.55003339148001,0,100,3.0,4,0.0009907602273270047
5.345,0.016256859896386415,77.6144660480126,0,100,3.0,4,0.00226665441609113
5.35,0.02345021205790711,77.74875586432796,0,100,3.0,4,0.004925858699563589
5.355,0.0330621597308209,78.0131174684089,0,100,3.0,4,0.010160741948690957
5.36,0.04559141319943196,78.50419578045056,0,100,3.0,4,0.019885064959417
5.365,0.06149084917446989,79.36409811046595,0,100,3.0,4,0.03691283387061279
5.37,0.08111733445924295,80.78173370604658,0,100,3.0,4,0.06498482586230853
5.375,0.1046628598272375,82.97877557383904,0,100,3.0,4,0.10849060542255534
5.38,0.1320831047748631,86.1733398687698,0,100,3.0,4,0.17174930433207528
5.385,0.16303381314489318,90.51963997360265,0,100,3.0,4,0.25781465294262673
5.39,0.19682662652900276,96.03170619908008,0,100,3.0,4,0.3669644791897045
5.395,0.23241585813229,102.51124939563206,0,100,3.0,4,0.49527226526004087
5.4,0.26842527782774417,109.508420845892,0,100,3.0,4,0.6338301157602377
5.405,0.30321927900592993,116.34312073822883,0,100,3.0,4,0.7691707076876997
5.41,0.3350163137995362,122.19991598368705,0,100,3.0,4,0.8851468511621198
5.415,0.3620352400956416,126.28414378119781,0,100,3.0,4,0.9660226491326299
5.42,0.3826586036805073,128.0,0,100,3.0,4,1.0
5.425,0.39559233134833227,127.09620305207548,0,100,3.0,4,0.9821030307341679
5.43,0.4,123.73047494474659,0,100,3.0,4,0.9154549494009225
5.435,0.39559233134833227,118.43035369907331,0,100,3.0,4,0.8105020534469962
5.44,0.3826586036805073,111.96402693505901,0,100,3.0,4,0.6824559789120596
5.445,0.3620352400956416,105.16499395104967,0,100,3.0,4,0.5478216623970231
5.45,0.3350163137995362,98.76568295831183,0,100,3.0,4,0.421102632837858
5.455,0.3032192790059296,93.28462585224715,0,100,3.0,4,0.3125668485593494
5.46,0.26842527782774417,88.98673655443307,0,100,3.0,4,0.22746012979075378
5.465,0.23241585813229,85.9093029300082,0,100,3.0,4,0.16652085009917217
5.47,0.19682662652900276,83.92843044777212,0,100,3.0,4,0.127295652431131
5.475,0.16303381314489318,82.83633188842659,0,100,3.0,4,0.10566993838468486
5.48,0.13208310477486307,82.40664661068128,0,100,3.0,4,0.09716131902339165
5.485,0.10466285982723562,82.43673434845005,0,100,3.0,4,0.09775711581089198
5.49,0.08111733445917907,82.76663175759897,0,100,3.0,4,0.10428973777423707
5.495,0.06149084917398798,83.28076331596857,0,100,3.0,4,0.11447056071224893
5.5,0.04559141333598128,83.9002438965322,0,100,3.0,4,0.12673750290162777
5.505,0.03306217087257399,84.572240016131,0,100,3.0,4,0.1400443567550694
5.51,0.02345067901074276,85.26031508227125,0,100,3.0,4,0.15366960558952966
5.515,0.016268788896435526,85.93736730146371,0,100,3.0,4,0.16707658022700414
5.52,0.011039026374860051,86.58127053057453,0,100,3.0,4,0.17982713921929758
5.525,0.007326255555493689,87.1726432429361,0,100,3.0,4,0.19153748995913078
5.53,0.0047556414315231815,87.694028917787,0,100,3.0,4,0.2018619587680593
5.535,0.0030193390635632803,88.12988670856303,0,100,3.0,4,0.2104928061101591
5.54,0.001874953127946523,88.4669720570697,0,100,3.0,4,0.21716776350633063
5.545,0.0011387927410965778,88.69484257659452,0,100,3.0,4,0.22168005102167376
5.55,0.0006765107634274089,88.8063319009262,0,100,3.0,4,0.22388776041438013
5.555,0.00039307957404427924,88.79790084933654,0,100,3.0,4,0.2237208088977533
5.56,0.00022338910511776318,88.66981609089675,0,100,3.0,4,0.2211844770474603
5.565,0.00012417073320013317,88.42613358855499,0,100,3.0,4,0.21635908096148496
5.57,6.750753468904987e-05,88.0744845220037,0,100,3.0,4,0.20939573310898418
5.575,3.5897234866245036e-05,87.62567819440363,0,100,3.0,4,0.20050847909710165
5.58,1.8670050400879738e-05,87.09315034872499,0,100,3.0,4,0.18996337324207901
5.585,9.497421874143672e-06,86.49229604110842,0,100,3.0,4,0.17806526814076074
5.59,4.725434140340885e-06,85.839733183567,0,100,3.0,4,0.1651432313577625
5.595,2.299606063738814e-06,85.15254569378922,0,100,3.0,4,0.15153555829285587
5.6,1.0945633976635486e-06,84.4475538502144,0,100,3.0,4,0.13757532376662188
5.605,5.095703414287532e-07,83.74065431849706,0,100,3.0,4,0.12357731323756563
5.61,2.3202944964797243e-07,83.04626411621985,0,100,3.0,4,0.10982701220237318
5.615,1.0333746954038608e-07,82.37689249608799,0,100,3.0,4,0.09657212863540575
5.62,4.501406988770349e-08,81.74285346228184,0,100,3.0,4,0.08401690024320482
5.625,0.0,81.1521204948284,0,100,3.0,4,0.07231921771937416
5.63,0.0,80.61031502348177,0,100,3.0,4,0.0615903965045896
5.635,0.0,80.12081202893135,0,100,3.0,4,0.051897267899630777
5.64,0.0,79.6849403434688,0,100,3.0,4,0.04326614541522368
5.645,0.0,79.30225197048583,0,100,3.0,4,0.035688157831402514
5.65,0.0,78.9708339622231,0,100,3.0,4,0.029125424994516765
5.655,0.0,78.68763778059531,0,100,3.0,4,0.02351757981376851
5.66,0.0,78.44880414889829,0,100,3.0,4,0.018788200968282973
5.665,0.0,78.2499656296711,0,100,3.0,4,0.01485080454794248
5.67,0.0,78.08651396996184,0,100,3.0,4,0.011614138019046386
5.675,0.0,77.95382412219077,0,100,3.0,4,0.008986616281005284
5.68,0.0,77.84743135229098,0,100,3.0,4,0.006879828758237276
5.685,0.0,77.76316168117287,0,100,3.0,4,0.005211122399462867
5.69,0.0,77.69721889112515,0,100,3.0,4,0.0039053245767355733
5.695,0.0,77.64623340351,0,100,3.0,4,0.0028957109605939743
5.7,0.0,77.60727953405652,0,100,3.0,4,0.00212434720903993
5.705,0.0,77.57786806524479,0,100,3.0,4,0.0015419418860353677
5.71,0.0,77.5559208938475,0,100,3.0,4,0.0011073444326237534
5.715,0.0,77.53973388588446,0,100,3.0,4,0.0007868096214744384
5.72,0.0,77.5279331678281,0,100,3.0,4,0.0005531320361999091
5.725,0.0,77.51942904956836,0,100,3.0,4,0.00038473365481898794
5.73,0.0,77.51337073054874,0,100,3.0,4,0.0002647669415592749
5.735,0.0,77.50910397240045,0,100,3.0,4,0.0001802766811970917
5.74,0.0,77.50613308442568,0,100,3.0,4,0.00012144721635018589
5.745,0.0,77.5040878896962,0,100,3.0,4,8.094831081572723e-05
5.75,0.0,77.5026958244591,0,100,3.0,4,5.338266255635198e-05
5.755,0.0,77.50175896122146,0,100,3.0,4,3.483091527633711e-05
5.76,0.0,77.50113551568005,0,100,3.0,4,2.2485459010844767e-05
5.765,0.0,77.50072527418774,0,100,3.0,4,1.4361865103835792e-05
5.77,0.0,77.50045833552699,0,100,3.0,4,9.075951029422183e-06
5.775,0.0,77.50028657416638,0,100,3.0,4,5.674735967942871e-06
5.78,0.0,77.500177281235,0,100,3.0,4,3.5105195048898997e-06
5.785,0.0,77.50010850773904,0,100,3.0,4,2.1486680998575614e-06
5.79,0.0,77.5000657099104,0,100,3.0,4,1.3011863445896806e-06
5.795,0.0,77.50003937071035,0,100,3.0,4,7.796180268137009e-07
5.8,0.0,77.50002333930081,0,100,3.0,4,4.6216437247962725e-07
5.805,0.0,77.50001368909216,0,100,3.0,4,2.7107113181604163e-07
5.81,0.0,77.50000794389817,0,100,3.0,4,1.5730491422980795e-07
5.815,0.0,77.50000456105074,0,100,3.0,4,9.031783651882487e-08
5.82,0.0,77.50000259100563,0,100,3.0,4,5.130704208244028e-08
5.825,0.0,77.5000014562771,0,100,3.0,4,2.8837170380974935e-08
5.83,0.0,77.50000080982635,0,100,3.0,4,1.603616527576702e-08
5.835,0.001684486749771458,77.50000044556595,0,100,3.0,4,8.823088020369259e-09
5.84,0.00456624331333666,77.50000024255169,0,100,3.0,4,4.803003812052302e-09
5.845,0.011079731271581421,77.50000013063779,0,100,3.0,4,2.586886867533448e-09
5.85,0.024064571490409,77.50000006961544,0,100,3.0,4,1.378523539543575e-09
5.855,0.046784906529573234,77.5000000367041,0,100,3.0,4,7.268137423044109e-10
5.86,0.08141644351188804,77.50000001914678,0,100,3.0,4,3.791441967862711e-10
5.865,0.12682276464025305,77.5000000098821,0,100,3.0,4,1.956851578467136e-10
5.87,0.1768320708657512,77.50000000504632,0,100,3.0,4,9.992707211747282e-11
5.875,0.22070063230473494,77.5000000025496,0,100,3.0,4,5.048708645868954e-11
5.88,0.24656126505113576,77.5000000012745,0,100,3.0,4,2.5237633765007755e-11
5.885,0.24656126505724016,77.50000000063035,0,100,3.0,4,1.2482195695093372e-11
5.89,0.220700632329898,77.50000000030846,0,100,3.0,4,6.108134899963855e-12
5.895,0.17683207093748562,77.50000000014934,0,100,3.0,4,2.9572647960803536e-12
5.9,0.12682276483597799,77.50000000007154,0,100,3.0,4,1.4165830225015225e-12
5.905,0.08141644409447898,77.5000000000339,0,100,3.0,4,6.714277099103363e-13
5.91,0.04678490952598309,77.5000000000159,0,100,3.0,4,3.14890028243783e-13
5.915,0.024064605020532023,77.50000000000738,0,100,3.0,4,1.4604819004336317e-13
5.92,0.011080171739334697,77.50000000000338,0,100,3.0,4,6.69739291528332e-14
5.925,0.004571212771509492,77.50000000000153,0,100,3.0,4,3.0391530876075574e-14
5.93,0.0017299316936037438,77.5000000000007,0,100,3.0,4,1.3788750119700954e-14
5.935,0.0008899431850697582,77.50000000000031,0,100,3.0,4,6.190867400682061e-15
5.94,0.002128806368910263,77.50000000000013,0,100,3.0,4,2.5326275730062976e-15
5.945,0.009309664818487698,77.50000000000006,0,100,3.0,4,1.1256122546694657e-15
5.95,0.03503263543368747,77.50000000000003,0,100,3.0,4,5.628061273347328e-16
5.955,0.10606267793605692,77.50000000000001,0,100,3.0,4,2.814030636673664e-16
5.96,0.25734927343160535,77.5,0,100,3.0,4,0.0
5.965,0.5003202479539708,77.5,0,100,3.0,4,0.0
5.97,0.7793067891790435,77.5,0,100,3.0,4,0.0
5.975,0.9720477407234077,77.5000029768749,1,100,3.0,4,5.8948017741016935e-08
5.98,0.967267334488097,77.50000639791868,0,100,3.0,4,1.2669145904861705e-07
5.985,0.7505869905515209,77.50001503914727,0,100,3.0,4,2.978048964657976e-07
5.99,0.4028369574773956,77.5000405977313,0,100,3.0,4,8.039154712749602e-07
5.995,0.04553881263121314,77.50012568133535,0,100,3.0,4,2.488739313818796e-06
6.0,-0.189138810908105,77.50042139469598,0,100,3.0,4,8.344449425278683e-06
6.005,-0.22868072635956738,77.50143220973679,0,100,3.0,4,2.8360588847345023e-05
6.01,-0.14104670682394166,77.5047186192955,0,100,3.0,4,9.343800585153338e-05
6.015,-0.051158381651102834,77.51471703980556,0,100,3.0,4,0.0002914265308031825
6.02,-0.008206426846427752,77.54295938552251,0,100,3.0,4,0.0008506809014357997
6.025,0.005350271385530505,77.6167303530177,0,100,3.0,5,0.002311492138964373
6.03,0.01084668799215426,77.79449447378158,0,100,3.0,5,0.005831573738249171
6.035,0.016256859896386415,78.1889498680611,0,100,3.0,5,0.013642571644774282
6.04,0.02345021205790711,78.9936054602403,0,100,3.0,5,0.029576345747332738
6.045,0.0330621597308209,80.4996856165681,0,100,3.0,5,0.059399715179566354
6.05,0.04559141319943196,83.07993103850617,0,100,3.0,5,0.11049368393081534
6.055,0.06149084917446989,87.11287313371587,0,100,3.0,5,0.19035392343991814
6.06,0.08111733445924295,92.83655963825184,0,100,3.0,5,0.3036942502624127
6.065,0.1046628598272375,100.1592760486476,0,100,3.0,5,0.44869853561678413
6.07,0.1320831047748631,108.50359714416015,0,100,3.0,5,0.6139326167160426
6.075,0.16303381314489318,116.78654847688122,0,100,3.0,5,0.777951454987747
6.08,0.19682662652900276,123.60821001847575,0,100,3.0,5,0.913033861751995
6.085,0.23241585813229,127.62847233815549,0,100,3.0,5,0.9926430165971384
6.09,0.26842527782774417,128.0,0,100,3.0,5,1.0
6.095,0.30321927900592993,124.66760400991004,0,100,3.0,5,0.934011960592278
6.1,0.3350163137995362,118.39038146372059,0,100,3.0,5,0.8097105240340711
6.105,0.3620352400956416,110.47562935409675,0,100,3.0,5,0.6529827594870644
6.11,0.3826586036805073,102.35298204453142,0,100,3.0,5,0.4921382583075528
6.115,0.39559233134833227,95.17874322086946,0,100,3.0,5,0.35007412318553394
6.12,0.4,89.61569511522995,0,100,3.0,5,0.23991475475702878
6.125,0.39559233134833227,85.82517009686714,0,100,3.0,5,0.16485485340330971
6.13,0.3826586036805073,83.6090618349903,0,100,3.0,5,0.12097152148495643
6.135,0.3620352400956416,82.59933730320935,0,100,3.0,5,0.1009769763011753
6.14,0.3350163137995362,82.41268319594003,0,100,3.0,5,0.09728085536514917
6.145,0.3032192790059296,82.73585255051967,0,100,3.0,5,0.10368024852514192
6.15,0.26842527782774417,83.34863649182353,0,100,3.0,5,0.11581458399650547
6.155,0.23241585813229,84.11012510513392,0,100,3.0,5,0.1308935664382954
6.16,0.19682662652900276,84.93289016428321,0,100,3.0,5,0.14718594384719225
6.165,0.16303381314489318,85.75985479737454,0,100,3.0,5,0.1635614811361296
6.17,0.13208310477486307,86.54900938892803,0,100,3.0,5,0.17918830473124805
6.175,0.10466285982723562,87.2655137876512,0,100,3.0,5,0.19337651064655845
6.18,0.08111733445917907,87.87880541393756,0,100,3.0,5,0.2055208992858922
6.185,0.06149084917398798,88.36243221298648,0,100,3.0,5,0.21509766758389062
6.19,0.04559141333598128,88.69504827525046,0,100,3.0,5,0.2216841242623853
6.195,0.03306217087257399,88.86166481029888,0,100,3.0,5,0.22498346159007676
6.2,0.02345067901074276,88.85467214111144,0,100,3.0,5,0.22484499289329576
6.205,0.016268788896435526,88.67438787319062,0,100,3.0,5,0.22127500738991338
6.21,0.011039026374860051,88.32902560186928,0,100,3.0,5,0.21443615053206486
6.215,0.007326255555493689,87.834072636083,0,100,3.0,5,0.20463510170461374
6.22,0.0047556414315231815,87.21113807884366,0,100,3.0,5,0.19229976393749823
6.225,0.0030193390635632803,86.48638950473932,0,100,3.0,5,0.177948307024541
6.23,0.001874953127946523,85.68873539894074,0,100,3.0,5,0.16215317621664824
6.235,0.0011387927410965778,84.84792859716677,0,100,3.0,5,0.14550353657755982
6.24,0.0006765107634274089,83.99276234682259,0,100,3.0,5,0.12856955142222945
6.245,0.00039307957404427924,83.14950732513329,0,100,3.0,5,0.11187143218085714
6.25,0.00022338910511776318,82.34069963296807,0,100,3.0,5,0.0958554382765954
6.255,0.00012417073320013317,81.58434279250736,0,100,3.0,5,0.08087807509915558
6.26,6.750753468904987e-05,80.89353805575186,0,100,3.0,5,0.06719877338122497
6.265,3.5897234866245036e-05,80.27651326693037,0,100,3.0,5,0.05498046073129437
6.27,1.8670050400879738e-05,79.73698603104926,0,100,3.0,5,0.04429675309008427
6.275,9.497421874143672e-06,79.27477491320202,0,100,3.0,5,0.03514405768716877
6.28,4.725434140340885e-06,78.88656355336967,0,100,3.0,5,0.027456704027122157
6.285,2.299606063738814e-06,78.56672572691414,0,100,3.0,5,0.02112328172107214
6.29,1.0945633976635486e-06,78.30813189638289,0,100,3.0,5,0.01600261180956216
6.295,5.095703414287532e-07,78.10287630828009,0,100,3.0,5,0.011938144718417582
6.3,2.3202944964797243e-07,77.94288469900617,0,100,3.0,5,0.008769994039726167
6.305,1.0333746954038608e-07,77.82038311916784,0,100,3.0,5,0.0063442201815414505
6.31,4.501406988770349e-08,77.72822597134211,0,100,3.0,5,0.004519326165190349
6.315,0.0,77.66009471412842,0,100,3.0,5,0.0031701923589786034
6.32,0.0,77.61058733996865,0,100,3.0,5,0.0021898483162108096
6.325,0.0,77.57522294299544,0,100,3.0,5,0.0014895632276324417
6.33,0.0,77.55038621312866,0,100,3.0,5,0.0009977467946269503
6.335,0.0,77.53323453510313,0,100,3.0,5,0.0006581096060026449
6.34,0.0,77.52158658720883,0,100,3.0,5,0.0004274571724520814
6.345,0.0,77.51380685790998,0,100,3.0,5,0.0002734031269303704
6.35,0.0,77.5086960537223,0,100,3.0,5,0.0001721990836099709
6.355,0.0,77.50539344261945,0,100,3.0,5,0.00010680084394950859
6.36,0.0,77.50329402128571,0,100,3.0,5,6.522814427151136e-05
6.365,0.0,77.50198108554771,0,100,3.0,5,3.922941678637255e-05
6.37,0.0,77.50117326616962,0,100,3.0,5,2.323299345773806e-05
6.375,0.0,77.50068423668777,0,100,3.0,5,1.3549241342076076e-05
6.38,0.0,77.5003929458036,0,100,3.0,5,7.781105021721677e-06
6.385,0.0,77.50022221606024,0,100,3.0,5,4.400318024499038e-06
6.39,0.0,77.5001237470122,0,100,3.0,5,2.4504358850775826e-06
6.395,0.0,77.5000678594742,0,100,3.0,5,1.3437519643534554e-06
6.4,0.0,77.50003664398938,0,100,3.0,5,7.256235519862727e-07
6.405,0.0,77.50001948549742,0,100,3.0,5,3.858514340249307e-07
6.41,0.001684486749771458,77.50001020320788,0,100,3.0,5,2.0204372036811162e-07
6.415,0.00456624331333666,77.50000526112309,0,100,3.0,5,1.0418065530171985e-07
6.42,0.011079731271581421,77.50000267138621,0,100,3.0,5,5.289873688480379e-08
6.425,0.024064571490409,77.50000133570758,0,100,3.0,5,2.6449655051422243e-08
6.43,0.046784906529573234,77.50000065766176,0,100,3.0,5,1.3023005107747354e-08
6.435,0.08141644351188804,77.5000003188675,0,100,3.0,5,6.3142080519058494e-09
6.44,0.12682276464025305,77.500000152242,0,100,3.0,5,3.0146929705074623e-09
6.445,0.1768320708657512,77.50000007157726,0,100,3.0,5,1.4173715138859185e-09
6.45,0.22070063230473494,77.50000003313846,0,100,3.0,5,6.562071810026957e-10
6.455,0.24656126505113576,77.50000001510796,0,100,3.0,5,2.991674762705599e-10
6.46,0.24656126505724016,77.5000000067826,0,100,3.0,5,1.3430889843635165e-10
6.465,0.220700632329898,77.50000000299849,0,100,3.0,5,5.937604643381431e-11
6.47,0.17683207093748562,77.50000000130535,0,100,3.0,5,2.584855981622961e-11
6.475,0.12682276483597799,77.50000000055958,0,100,3.0,5,1.1080808438029887e-11
6.48,0.08141644409447898,77.50000000023623,0,100,3.0,5,4.677763127342632e-12
6.485,0.04678490952598309,77.5000000000982,0,100,3.0,5,1.944495169941502e-12
6.49,0.024064605020532023,77.50000000004019,0,100,3.0,5,7.958078640513122e-13
6.495,0.011080171739334697,77.5000000000162,0,100,3.0,5,3.207994925807977e-13
6.5,0.004571212771509492,77.50000000000644,0,100,3.0,5,1.27475587841317e-13
6.505,0.0017299316936037438,77.50000000000252,0,100,3.0,5,4.9808342269123855e-14
6.51,0.0008899431850697582,77.50000000000097,0,100,3.0,5,1.9135408329380917e-14
6.515,0.002128806368910263,77.50000000000037,0,100,3.0,5,7.316479655351527e-15
6.52,0.009309664818487698,77.50000000000014,0,100,3.0,5,2.8140306366736642e-15
6.525,0.03503263543368747,77.50000000000004,0,100,3.0,5,8.442091910020992e-16
6.53,0.10606267793605692,77.50000000000001,0,100,3.0,5,2.814030636673664e-16
6.535,0.25734927343160535,77.5,0,100,3.0,5,0.0
6.54,0.5003202479539708,77.5,0,100,3.0,5,0.0
6.545,0.7793067891790435,77.5,0,100,3.0,5,0.0
6.55,0.9720477407234077,77.50000296047277,1,100,3.0,5,5.862322316914125e-08
6.555,0.967267334488097,77.50000556968264,0,100,3.0,5,1.1029074539017006e-07
6.56,0.7505869905515209,77.50001107361088,0,100,3.0,5,2.1927942332758273e-07
6.565,0.4028369574773956,77.5000240274186,0,100,3.0,5,4.757904674074825e-07
6.57,0.04553881263121314,77.50005775887072,0,100,3.0,5,1.1437400143456604e-06
6.575,-0.189138810908105,77.50015126044384,0,100,3.0,5,2.995256313726155e-06
6.58,-0.22868072635956738,77.50041533893004,0,100,3.0,5,8.224533268116154e-06
6.585,-0.14104670682394166,77.5011510522014,0,100,3.0,5,2.2793112898882263e-05
6.59,-0.051158381651102834,77.50313388306245,0,100,3.0,5,6.205709034547187e-05
6.595,-0.008206426846427752,77.50824853235738,0,100,3.0,5,0.00016333727440366087
6.6,0.005350271385530505,77.52080291886513,0,100,3.0,5,0.00041193898742830745
6.605,0.01084668799215426,77.55003339148001,0,100,3.0,5,0.0009907602273270047
6.61,0.016256859896386415,77.6144660480126,0,100,3.0,5,0.00226665441609113
6.615,0.02345021205790711,77.74875586432796,0,100,3.0,5,0.004925858699563589
6.62,0.0330621597308209,78.0131174684089,0,100,3.0,5,0.010160741948690957
6.625,0.04559141319943196,78.50419578045056,0,100,3.0,5,0.019885064959417
6.63,0.06149084917446989,79.36409811046595,0,100,3.0,5,0.03691283387061279
6.635,0.08111733445924295,80.78173370604658,0,100,3.0,5,0.06498482586230853
6.64,0.1046628598272375,82.97877557383904,0,100,3.0,5,0.10849060542255534
6.645,0.1320831047748631,86.1733398687698,0,100,3.0,5,0.17174930433207528
6.65,0.16303381314489318,90.51963997360265,0,100,3.0,5,0.25781465294262673
6.655,0.19682662652900276,96.03170619908008,0,100,3.0,5,0.3669644791897045
6.66,0.23241585813229,102.51124939563206,0,100,3.0,5,0.49527226526004087
6.665,0.26842527782774417,109.508420845892,0,100,3.0,5,0.6338301157602377
6.67,0.30321927900592993,116.34312073822883,0,100,3.0,5,0.7691707076876997
6.675,0.3350163137995362,122.19991598368705,0,100,3.0,5,0.8851468511621198
6.68,0.3620352400956416,126.28414378119781,0,100,3.0,5,0.9660226491326299
6.685,0.3826586036805073,128.0,0,100,3.0,5,1.0
6.69,0.39559233134833227,127.09620305207548,0,100,3.0,5,0.9821030307341679
6.695,0.4,123.73047494474659,0,100,3.0,5,0.9154549494009225
6.7,0.39559233134833227,118.43035369907331,0,100,3.0,5,0.8105020534469962
6.705,0.3826586036805073,111.96402693505901,0,100,3.0,5,0.6824559789120596
6.71,0.3620352400956416,105.16499395104967,0,100,3.0,5,0.5478216623970231
6.715,0.3350163137995362,98.76568295831183,0,100,3.0,5,0.421102632837858
6.72,0.3032192790059296,93.28462585224715,0,100,3.0,5,0.3125668485593494
6.725,0.26842527782774417,88.98673655443307,0,100,3.0,5,0.22746012979075378
6.73,0.23241585813229,85.9093029300082,0,100,3.0,5,0.16652085009917217
6.735,0.19682662652900276,83.92843044777212,0,100,3.0,5,0.127295652431131
6.74,0.16303381314489318,82.83633188842659,0,100,3.0,5,0.10566993838468486
6.745,0.13208310477486307,82.40664661068128,0,100,3.0,5,0.09716131902339165
6.75,0.10466285982723562,82.43673434845005,0,100,3.0,5,0.09775711581089198
6.755,0.08111733445917907,82.76663175759897,0,100,3.0,5,0.10428973777423707
6.76,0.06149084917398798,83.28076331596857,0,100,3.0,5,0.11447056071224893
6.765,0.04559141333598128,83.9002438965322,0,100,3.0,5,0.12673750290162777
6.77,0.03306217087257399,84.572240016131,0,100,3.0,5,0.1400443567550694
6.775,0.02345067901074276,85.26031508227125,0,100,3.0,5,0.15366960558952966
6.78,0.016268788896435526,85.93736730146371,0,100,3.0,5,0.16707658022700414
6.785,0.011039026374860051,86.58127053057453,0,100,3.0,5,0.17982713921929758
6.79,0.007326255555493689,87.1726432429361,0,100,3.0,5,0.19153748995913078
6.795,0.0047556414315231815,87.694028917787,0,100,3.0,5,0.2018619587680593
6.8,0.0030193390635632803,88.12988670856303,0,100,3.0,5,0.2104928061101591
6.805,0.001874953127946523,88.4669720570697,0,100,3.0,5,0.21716776350633063
6.81,0.0011387927410965778,88.69484257659452,0,100,3.0,5,0.22168005102167376
6.815,0.0006765107634274089,88.8063319009262,0,100,3.0,5,0.22388776041438013
6.82,0.00039307957404427924,88.79790084933654,0,100,3.0,5,0.2237208088977533
6.825,0.00022338910511776318,88.66981609089675,0,100,3.0,5,0.2211844770474603
6.83,0.00012417073320013317,88.42613358855499,0,100,3.0,5,0.21635908096148496
6.835,6.750753468904987e-05,88.0744845220037,0,100,3.0,5,0.20939573310898418
6.84,3.5897234866245036e-05,87.62567819440363,0,100,3.0,5,0.20050847909710165
6.845,1.8670050400879738e-05,87.09315034872499,0,100,3.0,5,0.18996337324207901
6.85,9.497421874143672e-06,86.49229604110842,0,100,3.0,5,0.17806526814076074
6.855,4.725434140340885e-06,85.839733183567,0,100,3.0,5,0.1651432313577625
6.86,2.299606063738814e-06,85.15254569378922,0,100,3.0,5,0.15153555829285587
6.865,1.0945633976635486e-06,84.4475538502144,0,100,3.0,5,0.13757532376662188
6.87,5.095703414287532e-07,83.74065431849706,0,100,3.0,5,0.12357731323756563
6.875,2.3202944964797243e-07,83.04626411621985,0,100,3.0,5,0.10982701220237318
6.88,1.0333746954038608e-07,82.37689249608799,0,100,3.0,5,0.09657212863540575
6.885,4.501406988770349e-08,81.74285346228184,0,100,3.0,5,0.08401690024320482
6.89,0.0,81.1521204948284,0,100,3.0,5,0.07231921771937416
6.895,0.0,80.61031502348177,0,100,3.0,5,0.0615903965045896
6.9,0.0,80.12081202893135,0,100,3.0,5,0.051897267899630777
6.905,0.0,79.6849403434688,0,100,3.0,5,0.04326614541522368
6.91,0.0,79.30225197048583,0,100,3.0,5,0.035688157831402514
6.915,0.0,78.9708339622231,0,100,3.0,5,0.029125424994516765
6.92,0.0,78.68763778059531,0,100,3.0,5,0.02351757981376851
6.925,0.0,78.44880414889829,0,100,3.0,5,0.018788200968282973
6.93,0.0,78.2499656296711,0,100,3.0,5,0.01485080454794248
6.935,0.0,78.08651396996184,0,100,3.0,5,0.011614138019046386
6.94,0.0,77.95382412219077,0,100,3.0,5,0.008986616281005284
6.945,0.0,77.84743135229098,0,100,3.0,5,0.006879828758237276
6.95,0.0,77.76316168117287,0,100,3.0,5,0.005211122399462867
6.955,0.0,77.69721889112515,0,100,3.0,5,0.0039053245767355733
6.96,0.0,77.64623340351,0,100,3.0,5,0.0028957109605939743
6.965,0.0,77.60727953405652,0,100,3.0,5,0.00212434720903993
6.97,0.0,77.57786806524479,0,100,3.0,5,0.0015419418860353677
6.975,0.0,77.5559208938475,0,100,3.0,5,0.0011073444326237534
6.98,0.0,77.53973388588446,0,100,3.0,5,0.0007868096214744384
6.985,0.0,77.5279331678281,0,100,3.0,5,0.0005531320361999091
6.99,0.0,77.51942904956836,0,100,3.0,5,0.00038473365481898794
6.995,0.0,77.51337073054874,0,100,3.0,5,0.0002647669415592749
7.0,0.0,77.50910397240045,0,100,3.0,5,0.0001802766811970917
7.005,0.0,77.50613308442568,0,100,3.0,5,0.00012144721635018589
7.01,0.0,77.5040878896962,0,100,3.0,5,8.094831081572723e-05
7.015,0.0,77.5026958244591,0,100,3.0,5,5.338266255635198e-05
7.02,0.0,77.50175896122146,0,100,3.0,5,3.483091527633711e-05
7.025,0.0,77.50113551568005,0,100,3.0,5,2.2485459010844767e-05
7.03,0.0,77.50072527418774,0,100,3.0,5,1.4361865103835792e-05
7.035,0.0,77.50045833552699,0,100,3.0,5,9.075951029422183e-06
7.04,0.0,77.50028657416638,0,100,3.0,5,5.674735967942871e-06
7.045,0.0,77.500177281235,0,100,3.0,5,3.5105195048898997e-06
7.05,0.0,77.50010850773904,0,100,3.0,5,2.1486680998575614e-06
7.055,0.0,77.5000657099104,0,100,3.0,5,1.3011863445896806e-06
7.06,0.0,77.50003937071035,0,100,3.0,5,7.796180268137009e-07
7.065,0.0,77.50002333930081,0,100,3.0,5,4.6216437247962725e-07
7.07,0.0,77.50001368909216,0,100,3.0,5,2.7107113181604163e-07
7.075,0.0,77.50000794389817,0,100,3.0,5,1.5730491422980795e-07
7.08,0.0,77.50000456105074,0,100,3.0,5,9.031783651882487e-08
7.085,0.0,77.50000259100563,0,100,3.0,5,5.130704208244028e-08
7.09,0.0,77.5000014562771,0,100,3.0,5,2.8837170380974935e-08
7.095,0.0,77.50000080982635,0,100,3.0,5,1.603616527576702e-08
7.1,0.001684486749771458,77.50000044556595,0,100,3.0,5,8.823088020369259e-09
7.105,0.00456624331333666,77.50000024255169,0,100,3.0,5,4.803003812052302e-09
7.11,0.011079731271581421,77.50000013063779,0,100,3.0,5,2.586886867533448e-09
7.115,0.024064571490409,77.50000006961544,0,100,3.0,5,1.378523539543575e-09
7.12,0.046784906529573234,77.5000000367041,0,100,3.0,5,7.268137423044109e-10
7.125,0.08141644351188804,77.50000001914678,0,100,3.0,5,3.791441967862711e-10
7.13,0.12682276464025305,77.5000000098821,0,100,3.0,5,1.956851578467136e-10
7.135,0.1768320708657512,77.50000000504632,0,100,3.0,5,9.992707211747282e-11
7.14,0.22070063230473494,77.5000000025496,0,100,3.0,5,5.048708645868954e-11
7.145,0.24656126505113576,77.5000000012745,0,100,3.0,5,2.5237633765007755e-11
7.15,0.24656126505724016,77.50000000063035,0,100,3.0,5,1.2482195695093372e-11
7.155,0.220700632329898,77.50000000030846,0,100,3.0,5,6.108134899963855e-12
7.16,0.17683207093748562,77.50000000014934,0,100,3.0,5,2.9572647960803536e-12
7.165,0.12682276483597799,77.50000000007154,0,100,3.0,5,1.4165830225015225e-12
7.17,0.08141644409447898,77.5000000000339,0,100,3.0,5,6.714277099103363e-13
7.175,0.04678490952598309,77.5000000000159,0,100,3.0,5,3.14890028243783e-13
7.18,0.024064605020532023,77.50000000000738,0,100,3.0,5,1.4604819004336317e-13
7.185,0.011080171739334697,77.50000000000338,0,100,3.0,5,6.69739291528332e-14
7.19,0.004571212771509492,77.50000000000153,0,100,3.0,5,3.0391530876075574e-14
7.195,0.0017299316936037438,77.5000000000007,0,100,3.0,5,1.3788750119700954e-14
7.2,0.0008899431850697582,77.50000000000031,0,100,3.0,5,6.190867400682061e-15
7.205,0.002128806368910263,77.50000000000013,0,100,3.0,5,2.5326275730062976e-15
7.21,0.009309664818487698,77.50000000000006,0,100,3.0,5,1.1256122546694657e-15
7.215,0.03503263543368747,77.50000000000003,0,100,3.0,5,5.628061273347328e-16
7.22,0.10606267793605692,77.50000000000001,0,100,3.0,5,2.814030636673664e-16
7.225,0.25734927343160535,77.5,0,100,3.0,5,0.0
7.23,0.5003202479539708,77.5,0,100,3.0,6,0.0
7.235,0.7793067891790435,77.5,0,100,3.0,6,0.0
7.24,0.9720477407234077,77.50000295867528,1,100,3.0,6,5.858762933982716e-08
7.245,0.967267334488097,77.50000573588933,0,100,3.0,6,1.1358196696047604e-07
7.25,0.7505869905515209,77.50001183257488,0,100,3.0,6,2.3430841355151967e-07
7.255,0.4028369574773956,77.50002692524943,0,100,3.0,6,5.331732560228707e-07
7.26,0.04553881263121314,77.50006848498596,0,100,3.0,6,1.3561383358330995e-06
7.265,-0.189138810908105,77.50019000364756,0,100,3.0,6,3.7624484665423434e-06
7.27,-0.22868072635956738,77.50054952846868,0,100,3.0,6,1.0881751855081482e-05
7.275,-0.14104670682394166,77.50159055361388,0,100,3.0,6,3.149611116594603e-05
7.28,-0.051158381651102834,77.5044851873146,0,100,3.0,6,8.88155903881213e-05
7.285,-0.008206426846427752,77.51213703464876,0,100,3.0,6,0.00024033731977741548
7.29,0.005350271385530505,77.53126563857143,0,100,3.0,6,0.0006191215558698273
7.295,0.01084668799215426,77.57635492653704,0,100,3.0,6,0.0015119787433076396
7.3,0.016256859896386415,77.67639067140166,0,100,3.0,6,0.003492884582211144
7.305,0.02345021205790711,77.88501562001684,0,100,3.0,6,0.007624071683501865
7.31,0.0330621597308209,78.29354171269637,0,100,3.0,6,0.01571369728111618
7.315,0.04559141319943196,79.04381637661916,0,100,3.0,6,0.03057062131919133
7.32,0.06149084917446989,80.3344428218482,0,100,3.0,6,0.05612758063065741
7.325,0.08111733445924295,82.41059977545191,0,100,3.0,6,0.09723959951389928
7.33,0.1046628598272375,85.52723971113011,0,100,3.0,6,0.15895524180455659
7.335,0.1320831047748631,89.88072367632314,0,100,3.0,6,0.2451628450757058
7.34,0.16303381314489318,95.51631820621935,0,100,3.0,6,0.35675877636077924
7.345,0.19682662652900276,102.23576195411229,0,100,3.0,6,0.4898170683982632
7.35,0.23241585813229,109.54272748408067,0,100,3.0,6,0.6345094551303103
7.355,0.26842527782774417,116.66447953882539,0,100,3.0,6,0.7755342482935721
7.36,0.30321927900592993,122.66887465936992,0,100,3.0,6,0.8944331615716816
7.365,0.3350163137995362,126.66023534251029,0,100,3.0,6,0.9734700067823819
7.37,0.3620352400956416,128.0,0,100,3.0,6,1.0
7.375,0.3826586036805073,126.47807474204686,0,100,3.0,6,0.9698628661791456
7.38,0.39559233134833227,122.37204251675124,0,100,3.0,6,0.8885552973614106
7.385,0.4,116.37169729313081,0,100,3.0,6,0.7697365800619962
7.39,0.39559233134833227,109.3974911834289,0,100,3.0,6,0.6316334887807702
7.395,0.3826586036805073,102.37891335470243,0,100,3.0,6,0.492651749598068
7.4,0.3620352400956416,96.06592941247743,0,100,3.0,6,0.3676421665837115
7.405,0.3350163137995362,90.92347555632232,0,100,3.0,6,0.2658113971548973
7.41,0.3032192790059296,87.12056802491122,0,100,3.0,6,0.1905062975229945
7.415,0.26842527782774417,84.59144492972001,0,100,3.0,6,0.14042465207366361
7.42,0.23241585813229,83.12951116401001,0,100,3.0,6,0.11147546859425765
7.425,0.19682662652900276,82.47746051752661,0,100,3.0,6,0.09856357460448731
7.43,0.16303381314489318,82.39150407042901,0,100,3.0,6,0.09686146674116847
7.435,0.13208310477486307,82.67419152703448,0,100,3.0,6,0.10245923815909862
7.44,0.10466285982723562,83.18184507507237,0,100,3.0,6,0.11251178366479948
7.445,0.08111733445917907,83.81705805815282,0,100,3.0,6,0.12509025857728365
7.45,0.06149084917398798,84.51572366942884,0,100,3.0,6,0.13892522117680867
7.455,0.04559141333598128,85.2346470988757,0,100,3.0,6,0.15316132869060786
7.46,0.03306217087257399,85.9423701012617,0,100,3.0,6,0.16717564556953865
7.465,0.02345067901074276,86.61354000209963,0,100,3.0,6,0.18046613865543815
7.47,0.016268788896435526,87.22608554222725,0,100,3.0,6,0.19259575331143075
7.475,0.011039026374860051,87.76022864529114,0,100,3.0,6,0.20317284446121062
7.48,0.007326255555493689,88.19852100568673,0,100,3.0,6,0.2118519011027075
7.485,0.0047556414315231815,88.5263495487991,0,100,3.0,6,0.21834355542176442
7.49,0.0030193390635632803,88.73256976810211,0,100,3.0,6,0.22242712412083385
7.495,0.001874953127946523,88.81006987750189,0,100,3.0,6,0.22396177975251264
7.5,0.0011387927410965778,88.75615571232208,0,100,3.0,6,0.22289417252122937
7.505,0.0006765107634274089,88.57269907320256,0,100,3.0,6,0.21926136778618924
7.51,0.00039307957404427924,88.26602769355591,0,100,3.0,6,0.213188667199127
7.515,0.00022338910511776318,87.8465622856699,0,100,3.0,6,0.20488242149841396
7.52,0.00012417073320013317,87.32822857412393,0,100,3.0,6,0.1946183876064144
7.525,6.750753468904987e-05,86.72769024603632,0,100,3.0,6,0.18272653952547163
7.53,3.5897234866245036e-05,86.06346160642826,0,100,3.0,6,0.1695734971569953
7.535,1.8670050400879738e-05,85.35496564359354,0,100,3.0,6,0.15554387413056525
7.54,9.497421874143672e-06,84.62160386192369,0,100,3.0,6,0.1410218586519542
7.545,4.725434140340885e-06,83.88189894118692,0,100,3.0,6,0.1263742364591469
7.55,2.299606063738814e-06,83.1527609609214,0,100,3.0,6,0.11193586061230491
7.555,1.0945633976635486e-06,82.44891399542598,0,100,3.0,6,0.09799829693912837
7.56,5.095703414287532e-07,81.78250402610412,0,100,3.0,6,0.08480205992285388
7.565,2.3202944964797243e-07,81.16289307400754,0,100,3.0,6,0.07253253611896122
7.57,1.0333746954038608e-07,80.59662980754183,0,100,3.0,6,0.061319402129541206
7.575,4.501406988770349e-08,80.08757488038495,0,100,3.0,6,0.051239106542276217
7.58,0.0,79.63715071685711,0,100,3.0,6,0.04231981617538826
7.585,0.0,79.2446807233738,0,100,3.0,6,0.034548133136114934
7.59,0.0,78.90778185200384,0,100,3.0,6,0.02787686835651161
7.595,0.0,78.62277659186489,0,100,3.0,6,0.02223319983890874
7.6,0.0,78.38509507620999,0,100,3.0,6,0.017526635172475102
7.605,0.0,78.1896441991558,0,100,3.0,6,0.013656320775362248
7.61,0.0,78.0311275608155,0,100,3.0,6,0.010517377441891202
7.615,0.0,77.90430692146866,0,100,3.0,6,0.008006077652844746
7.62,0.0,77.80420202598842,0,100,3.0,6,0.006023802494820135
7.625,0.0,77.72623073981798,0,100,3.0,6,0.004479816630058982
7.63,0.0,77.66629520125095,0,100,3.0,6,0.003292974282196959
7.635,0.0,77.62082210727883,0,100,3.0,6,0.0023925169758183414
7.64,0.0,77.58676642080745,0,100,3.0,6,0.0017181469466821806
7.645,0.0,77.56158792145219,0,100,3.0,6,0.0012195628010334026
7.65,0.0,77.5432093764747,0,100,3.0,6,0.0008556312173209223
7.655,0.0,77.52996394830834,0,100,3.0,6,0.0005933455110561461
7.66,0.0,77.5205380244591,0,100,3.0,6,0.0004066935536455406
7.665,0.0,77.51391415644198,0,100,3.0,6,0.00027552785033632595
7.67,0.0,77.50931737735736,0,100,3.0,6,0.00018450252192797007
7.675,0.0,77.50616693080607,0,100,3.0,6,0.00012211744170444224
7.68,0.0,77.50403443807636,0,100,3.0,6,7.988986289821678e-05
7.685,0.0,77.50260876896958,0,100,3.0,6,5.16587914768308e-05
7.69,0.0,77.50166734999985,0,100,3.0,6,3.301683168017754e-05
7.695,0.0,77.50105331074691,0,100,3.0,6,2.0857638552703102e-05
7.7,0.0,77.50065769546079,0,100,3.0,6,1.302367249085103e-05
7.705,0.0,77.50040591187926,0,100,3.0,6,8.037858995156975e-06
7.71,0.0,77.50024761518029,0,100,3.0,6,4.903270896737931e-06
7.715,0.0,77.50014930053305,0,100,3.0,6,2.9564461990705944e-06
7.72,0.0,77.50008897828656,0,100,3.0,6,1.7619462684283146e-06
7.725,0.0,77.50005241375882,0,100,3.0,6,1.0378962143152935e-06
7.73,0.0,77.50003051723355,0,100,3.0,6,6.043016545426875e-07
7.735,0.0,77.50001756238949,0,100,3.0,6,3.4777008886296675e-07
7.74,0.0,77.50000998988837,0,100,3.0,6,1.9781957166292114e-07
7.745,0.0,77.50000561663568,0,100,3.0,6,1.112205084290067e-07
7.75,0.0,77.50000312126369,0,100,3.0,6,6.180720175048054e-08
7.755,0.0,77.5000017144438,0,100,3.0,6,3.394938213060945e-08
7.76,0.001684486749771458,77.50000093079628,0,100,3.0,6,1.8431609418041604e-08
7.765,0.00456624331333666,77.50000049948748,0,100,3.0,6,9.890841272521141e-09
7.77,0.011079731271581421,77.50000026493123,0,100,3.0,6,5.2461629847769445e-09
7.775,0.024064571490409,77.50000013889299,0,100,3.0,6,2.7503561584423307e-09
7.78,0.046784906529573234,77.50000007197241,0,100,3.0,6,1.4251962074742533e-09
7.785,0.08141644351188804,77.50000003686297,0,100,3.0,6,7.299598285562122e-10
7.79,0.12682276464025305,77.5000000186618,0,100,3.0,6,3.6954047302943125e-10
7.795,0.1768320708657512,77.50000000933802,0,100,3.0,6,1.8491136015114481e-10
7.8,0.22070063230473494,77.50000000461843,0,100,3.0,6,9.145402587044841e-11
7.805,0.24656126505113576,77.50000000225774,0,100,3.0,6,4.470763033708917e-11
7.81,0.24656126505724016,77.50000000109091,0,100,3.0,6,2.160218758548905e-11
7.815,0.220700632329898,77.50000000052101,0,100,3.0,6,1.0317080523236655e-11
7.82,0.17683207093748562,77.50000000024595,0,100,3.0,6,4.870242822891111e-12
7.825,0.12682276483597799,77.50000000011475,0,100,3.0,6,2.2723297391139838e-12
7.83,0.08141644409447898,77.50000000005292,0,100,3.0,6,1.0479450090972725e-12
7.835,0.04678490952598309,77.50000000002413,0,100,3.0,6,4.778224021071881e-13
7.84,0.024064605020532023,77.50000000001087,0,100,3.0,6,2.152733437055353e-13
7.845,0.011080171739334697,77.50000000000485,0,100,3.0,6,9.595844471057194e-14
7.85,0.004571212771509492,77.50000000000213,0,100,3.0,6,4.221045955010496e-14
7.855,0.0017299316936037438,77.50000000000092,0,100,3.0,6,1.8291199138378817e-14
7.86,0.0008899431850697582,77.5000000000004,0,100,3.0,6,7.87928578268626e-15
7.865,0.002128806368910263,77.50000000000017,0,100,3.0,6,3.3768367640083968e-15
7.87,0.009309664818487698,77.50000000000007,0,100,3.0,6,1.4070153183368321e-15
7.875,0.03503263543368747,77.50000000000003,0,100,3.0,6,5.628061273347328e-16
7.88,0.10606267793605692,77.50000000000001,0,100,3.0,6,2.814030636673664e-16
7.885,0.25734927343160535,77.5,0,100,3.0,6,0.0
7.89,0.5003202479539708,77.5,0,100,3.0,6,0.0
7.895,0.7793067891790435,77.5,0,100,3.0,6,0.0
7.9,0.9720477407234077,77.500002961856,1,100,3.0,6,5.865061381774638e-08
7.905,0.967267334488097,77.500006041423,0,100,3.0,6,1.1963213873878877e-07
7.91,0.7505869905515209,77.50001328138595,0,100,3.0,6,2.629977415165173e-07
7.915,0.4028369574773956,77.50003283321637,0,100,3.0,6,6.501627003199426e-07
7.92,0.04553881263121314,77.50009198824264,0,100,3.0,6,1.8215493592959877e-06
7.925,-0.189138810908105,77.50028074560149,0,100,3.0,6,5.559318841314602e-06
7.93,-0.22868072635956738,77.50088215537116,0,100,3.0,6,1.7468423191256096e-05
7.935,-0.14104670682394166,77.5027317136506,0,100,3.0,6,5.409333961592487e-05
7.94,-0.051158381651102834,77.50812515206187,0,100,3.0,6,0.00016089410023495125
7.945,-0.008206426846427752,77.52290585167412,0,100,3.0,6,0.0004535812212697967
7.95,0.005350271385530505,77.5607994860294,0,100,3.0,6,0.0012039502184038745
7.955,0.01084668799215426,77.65144697964095,0,100,3.0,6,0.0029989500919000286
7.96,0.016256859896386415,77.85343089561607,0,100,3.0,6,0.00699863159635785
7.965,0.02345021205790711,78.27206809920676,0,100,3.0,6,0.015288477212015105
7.97,0.0330621597308209,79.07802187804528,0,100,3.0,6,0.031247957981094594
7.975,0.04559141319943196,80.51693895137673,0,100,3.0,6,0.05974136537379663
7.98,0.06149084917446989,82.89454088046219,0,100,3.0,6,0.10682259169232054
7.985,0.08111733445924295,86.52074732919208,0,100,3.0,6,0.17862865998400151
7.99,0.1046628598272375,91.60628022891433,0,100,3.0,6,0.2793322817606798
7.995,0.1320831047748631,98.12800786254579,0,100,3.0,6,0.40847540321872844
8.0,0.16303381314489318,105.70840989696592,0,100,3.0,6,0.5585823741973449
8.005,0.19682662652900276,113.57344353324595,0,100,3.0,6,0.7143256145197218
8.01,0.23241585813229,120.64276888442222,0,100,3.0,6,0.8543122551370738
8.015,0.26842527782774417,125.75956336367835,0,100,3.0,6,0.9556349180926407
8.02,0.30321927900592993,128.0,0,100,3.0,6,1.0
8.025,0.3350163137995362,126.95061745029365,0,100,3.0,6,0.9792201475305673
8.03,0.3620352400956416,122.84001560912182,0,100,3.0,6,0.897822091269739
8.035,0.3826586036805073,116.46801010317881,0,100,3.0,6,0.7716437644193824
8.04,0.39559233134833227,108.96296573740314,0,100,3.0,6,0.6230290245030324
8.045,0.4,101.46881286087532,0,100,3.0,6,0.4746299576410954
8.05,0.39559233134833227,94.88053871179497,0,100,3.0,6,0.34416908340188057
8.055,0.3826586036805073,89.70779311233117,0,100,3.0,6,0.24173847747190444
8.06,0.3620352400956416,86.07956026661839,0,100,3.0,6,0.1698922825072948
8.065,0.3350163137995362,83.84687409322002,0,100,3.0,6,0.1256806751132678
8.07,0.3032192790059296,82.7187027867249,0,100,3.0,6,0.10334064924207731
8.075,0.26842527782774417,82.37771688222631,0,100,3.0,6,0.09658845311339226
8.08,0.23241585813229,82.55072048744152,0,100,3.0,6,0.10001426707804997
8.085,0.19682662652900276,83.03453037589074,0,100,3.0,6,0.1095946609087275
8.09,0.16303381314489318,83.69208055632127,0,100,3.0,6,0.12261545656081728
8.095,0.13208310477486307,84.43544696634281,0,100,3.0,6,0.1373355834919368
8.1,0.10466285982723562,85.20760297898806,0,100,3.0,6,0.15262580156412006
8.105,0.08111733445917907,85.96850260217812,0,100,3.0,6,0.1676931208352103
8.11,0.06149084917398798,86.6865931944108,0,100,3.0,6,0.18191273652298623
8.115,0.04559141333598128,87.33469336179016,0,100,3.0,6,0.19474640320376552
8.12,0.03306217087257399,87.88866412777621,0,100,3.0,6,0.20571612134210315
8.125,0.02345067901074276,88.32756689971691,0,100,3.0,6,0.21440726534092897
8.13,0.016268788896435526,88.63444229094094,0,100,3.0,6,0.22048400576120672
8.135,0.011039026374860051,88.7972016808272,0,100,3.0,6,0.22370696397677625
8.14,0.007326255555493689,88.80935150413694,0,100,3.0,6,0.22394755453736517
8.145,0.0047556414315231815,88.67040269484706,0,100,3.0,6,0.22119609296726842
8.15,0.0030193390635632803,88.38589749796584,0,100,3.0,6,0.21556232669239292
8.155,0.001874953127946523,87.96704111602165,0,100,3.0,6,0.20726814091131976
8.16,0.0011387927410965778,87.42996910265714,0,100,3.0,6,0.19663305153776514
8.165,0.0006765107634274089,86.79471636674512,0,100,3.0,6,0.18405378944049744
8.17,0.00039307957404427924,86.08397933237504,0,100,3.0,6,0.16997978875990172
8.175,0.00022338910511776318,85.32177758289465,0,100,3.0,6,0.15488668480979514
8.18,0.00012417073320013317,84.53212429988861,0,100,3.0,6,0.13924998613640807
8.185,6.750753468904987e-05,83.7378064113005,0,100,3.0,6,0.1235209190356534
8.19,3.5897234866245036e-05,82.95935736032456,0,100,3.0,6,0.1081060863430606
8.195,1.8670050400879738e-05,82.21428063285789,0,100,3.0,6,0.09335209173976025
8.2,9.497421874143672e-06,81.51655406697313,0,100,3.0,6,0.0795357240984778
8.205,4.725434140340885e-06,80.8764170164331,0,100,3.0,6,0.06685974289966524
8.21,2.299606063738814e-06,80.30041774319758,0,100,3.0,6,0.05545381669698188
8.215,1.0945633976635486e-06,79.7916792805792,0,100,3.0,6,0.04537978773424164
8.22,5.095703414287532e-07,79.35032975682887,0,100,3.0,6,0.03664019320453208
8.225,2.3202944964797243e-07,78.97403808767992,0,100,3.0,6,0.029188873023364655
8.23,1.0333746954038608e-07,78.65859741440458,0,100,3.0,6,0.022942523057516477
8.235,4.501406988770349e-08,78.39850537991533,0,100,3.0,6,0.01779218574089772
8.24,0.0,78.1875006071592,0,100,3.0,6,0.01361387340909295
8.245,0.0,78.01902678123402,0,100,3.0,6,0.010277758044237983
8.25,0.0,77.8866079019436,0,100,3.0,6,0.007655602018685262
8.255,0.0,77.78412926151917,0,100,3.0,6,0.0056263220102805754
8.26,0.0,77.70602763440992,0,100,3.0,6,0.004079755136830114
8.265,0.0,77.64740060525696,0,100,3.0,6,0.002918823866474497
8.27,0.0,77.604048862077,0,100,3.0,6,0.0020603735064751187
8.275,0.0,77.57246689949535,0,100,3.0,6,0.0014349881088188759
8.28,0.0,77.54979735814472,0,100,3.0,6,0.000986086299895357
8.285,0.0,77.53376270259416,0,100,3.0,6,0.0006685683682011887
8.29,0.0,77.52258563891289,0,100,3.0,6,0.000447240374512603
8.295,0.0,77.51490705436474,0,100,3.0,6,0.0002951891953414091
8.3,0.0,77.50970768257822,0,100,3.0,6,0.00019223133818265054
8.305,0.0,77.50623739972342,0,100,3.0,6,0.000123512865810248
8.31,0.0,77.50395417479393,0,100,3.0,6,7.830049096895945e-05
8.315,0.0,77.50247327511215,0,100,3.0,6,4.8975744795087046e-05
8.32,0.0,77.50152634696913,0,100,3.0,6,3.0224692458002417e-05
8.325,0.0,77.50092939083888,0,100,3.0,6,1.840377898766332e-05
8.33,0.0,77.50055835162344,0,100,3.0,6,1.1056467790881876e-05
8.335,0.0,77.50033096453323,0,100,3.0,6,6.553753133339972e-06
8.34,0.0,77.50019356169078,0,100,3.0,6,3.832904767894361e-06
8.345,0.0,77.50011169188872,0,100,3.0,6,2.2117205686966075e-06
8.35,0.0,77.50006358989972,0,100,3.0,6,1.2592059351395573e-06
8.355,0.0,77.5000357206146,0,100,3.0,6,7.07338903067007e-07
8.36,0.0,77.50001979766552,0,100,3.0,6,3.920329805119349e-07
8.365,0.0,77.50001082613204,0,100,3.0,6,2.1437885228950486e-07
8.37,0.0,77.50000584113084,0,100,3.0,6,1.156659572873173e-07
8.375,0.001684486749771458,77.50000310945893,0,100,3.0,6,6.157344416513495e-08
8.38,0.00456624331333666,77.50000163319106,0,100,3.0,6,3.234041705942254e-08
8.385,0.011079731271581421,77.50000084635671,0,100,3.0,6,1.6759538865618098e-08
8.39,0.024064571490409,77.5000004327471,0,100,3.0,6,8.569249512400364e-09
8.395,0.046784906529573234,77.50000021831278,0,100,3.0,6,4.323025299671295e-09
8.4,0.08141644351188804,77.5000001086647,0,100,3.0,6,2.151776103832757e-09
8.405,0.12682276464025305,77.50000005336567,0,100,3.0,6,1.0567458899134695e-09
8.41,0.1768320708657512,77.50000002585828,0,100,3.0,6,5.120452356950949e-10
8.415,0.22070063230473494,77.50000001236238,0,100,3.0,6,2.447995601608337e-10
8.42,0.24656126505113576,77.50000000583134,0,100,3.0,6,1.154720587575218e-10
8.425,0.24656126505724016,77.50000000271393,0,100,3.0,6,5.374123148693897e-11
8.43,0.220700632329898,77.50000000124622,0,100,3.0,6,2.4677641668309697e-11
8.435,0.17683207093748562,77.50000000056461,0,100,3.0,7,1.1180425122568135e-11
8.44,0.12682276483597799,77.50000000025238,0,100,3.0,7,4.997718410732428e-12
8.445,0.08141644409447898,77.50000000011131,0,100,3.0,7,2.204230197706481e-12
8.45,0.04678490952598309,77.50000000004844,0,100,3.0,7,9.59303044042052e-13
8.455,0.024064605020532023,77.5000000000208,0,100,3.0,7,4.1197408520902444e-13
8.46,0.011080171739334697,77.50000000000881,0,100,3.0,7,1.7446989947376718e-13
8.465,0.004571212771509492,77.50000000000368,0,100,3.0,7,7.28833934898479e-14
8.47,0.0017299316936037438,77.50000000000152,0,100,3.0,7,3.011012781240821e-14
8.475,0.0008899431850697582,77.50000000000061,0,100,3.0,7,1.2100331737696755e-14
8.48,0.002128806368910263,77.50000000000024,0,100,3.0,7,4.783852082345229e-15
8.485,0.009309664818487698,77.5000000000001,0,100,3.0,7,1.969821445671565e-15
8.49,0.03503263543368747,77.50000000000004,0,100,3.0,7,8.442091910020992e-16
8.495,0.10606267793605692,77.50000000000001,0,100,3.0,7,2.814030636673664e-16
8.5,0.25734927343160535,77.5,0,100,3.0,7,0.0
8.505,0.5003202479539708,77.5,0,100,3.0,7,0.0
8.51,0.7793067891790435,77.5,0,100,3.0,7,0.0
8.515,0.9720477407234077,77.50000295860458,1,100,3.0,7,5.8586229359585414e-08
8.52,0.967267334488097,77.50000607194025,0,100,3.0,7,1.2023644056189188e-07
8.525,0.7505869905515209,77.50001345273148,0,100,3.0,7,2.663907223742883e-07
8.53,0.4028369574773956,77.5000335974731,0,100,3.0,7,6.65296497145121e-07
8.535,0.04553881263121314,77.5000952391376,0,100,3.0,7,1.8859235166978084e-06
8.54,-0.189138810908105,77.50029396174413,0,100,3.0,7,5.821024636320949e-06
8.545,-0.22868072635956738,77.50093256649718,0,100,3.0,7,1.8466663310573943e-05
8.55,-0.14104670682394166,77.5029100232732,0,100,3.0,7,5.762422323172278e-05
8.555,-0.051158381651102834,77.50870714352278,0,100,3.0,7,0.00017241868361948757
8.56,-0.008206426846427752,77.5246562773498,0,100,3.0,7,0.00048824311583773423
8.565,0.005350271385530505,77.56565066778992,0,100,3.0,7,0.0013000132235628605
8.57,0.01084668799215426,77.66383990810884,0,100,3.0,7,0.0032443546160166505
8.575,0.016256859896386415,77.88262038992832,0,100,3.0,7,0.007576641384719209
8.58,0.02345021205790711,78.33545183145863,0,100,3.0,7,0.016543600622943112
8.585,0.0330621597308209,79.20484989603223,0,100,3.0,7,0.03375940388182632
8.59,0.04559141319943196,80.75054676642503,0,100,3.0,7,0.06436726270148578
8.595,0.06149084917446989,83.28992906835192,0,100,3.0,7,0.11465206075944404
8.6,0.08111733445924295,87.13394030962314,0,100,3.0,7,0.19077109524006222
8.605,0.1046628598272375,92.47378991953458,0,100,3.0,7,0.2965106914759323
8.61,0.1320831047748631,99.23955414039685,0,100,3.0,7,0.43048622060191777
8.615,0.16303381314489318,106.98246625036123,0,100,3.0,7,0.5838112128784402
8.62,0.19682662652900276,114.8494723141842,0,100,3.0,7,0.7395935111719643
8.625,0.23241585813229,121.70177762100317,0,100,3.0,7,0.8752827251683797
8.63,0.26842527782774417,126.37413972136399,0,100,3.0,7,0.9678047469577027
8.635,0.30321927900592993,128.0,0,100,3.0,7,1.0
8.64,0.3350163137995362,126.27952255457706,0,100,3.0,7,0.9659311396945952
8.645,0.3620352400956416,121.57753056726469,0,100,3.0,7,0.8728223874705879
8.65,0.3826586036805073,114.80819134861454,0,100,3.0,7,0.7387760663091989
8.655,0.39559233134833227,107.1570555269131,0,100,3.0,7,0.5872684262755069
8.66,0.4,99.75682326894582,0,100,3.0,7,0.44072917364249153
8.665,0.39559233134833227,93.437628290086,0,100,3.0,7,0.3155965998036831
8.67,0.3826586036805073,88.6210265304858,0,100,3.0,7,0.2202183471383328
8.675,0.3620352400956416,85.35521064557099,0,100,3.0,7,0.15554872565487113
8.68,0.3350163137995362,83.43676931776182,0,100,3.0,7,0.11755978847053099
8.685,0.3032192790059296,82.55078966163666,0,100,3.0,7,0.1000156368640922
8.69,0.26842527782774417,82.37990978446584,0,100,3.0,7,0.0966318769201156
8.695,0.23241585813229,82.66385053700031,0,100,3.0,7,0.10225446607921415
