Time,ECG,Pressure,R_Peaks,mean_hr,hrv_scale,Phase_Bin,Normalized_Pressure
0.0,0.001684486749771458,77.5,0,100,3.0,0,0.0
0.005,0.00456624331333666,77.5,0,100,3.0,0,0.0
0.01,0.011079731271581421,77.5,0,100,3.0,0,0.0
0.015,0.024064571490409,77.5,0,100,3.0,0,0.0
0.02,0.046784906529573234,77.5,0,100,3.0,0,0.0
0.025,0.08141644351188804,77.5,0,100,3.0,0,0.0
0.03,0.12682276464025305,77.5,0,100,3.0,0,0.0
0.035,0.1768320708657512,77.5,0,100,3.0,0,0.0
0.04,0.22070063230473494,77.5,0,100,3.0,0,0.0
0.045,0.24656126505113576,77.5,0,100,3.0,0,0.0
0.05,0.24656126505724016,77.5,0,100,3.0,0,0.0
0.055,0.220700632329898,77.5,0,100,3.0,0,0.0
0.06,0.17683207093748562,77.5,0,100,3.0,0,0.0
0.065,0.12682276483597799,77.5,0,100,3.0,0,0.0
0.07,0.08141644409447898,77.5,0,100,3.0,0,0.0
0.075,0.04678490952598309,77.5,0,100,3.0,0,0.0
0.08,0.024064605020532023,77.5,0,100,3.0,0,0.0
0.085,0.011080171739334697,77.5,0,100,3.0,0,0.0
0.09,0.004571212771509492,77.5,0,100,3.0,0,0.0
0.095,0.0017299316936037438,77.5,0,100,3.0,0,0.0
0.1,0.0008899431850697582,77.5,0,100,3.0,0,0.0
0.105,0.002128806368910263,77.5,0,100,3.0,0,0.0
0.11,0.009309664818487698,77.5,0,100,3.0,0,0.0
0.115,0.03503263543368747,77.5,0,100,3.0,0,0.0
0.12,0.10606267793605692,77.5,0,100,3.0,0,0.0
0.125,0.25734927343160535,77.5,0,100,3.0,0,0.0
0.13,0.5003202479539708,77.5,0,100,3.0,0,0.0
0.135,0.7793067891790435,77.5,0,100,3.0,0,0.0
0.14,0.9720477407234077,77.5,0,100,3.0,0,0.0
0.145,0.967267334488097,77.5,0,100,3.0,0,0.0
0.15,0.7505869905515209,77.5,0,100,3.0,0,0.0
0.155,0.4028369574773956,77.5,0,100,3.0,0,0.0
0.16,0.04553881263121314,77.5,0,100,3.0,0,0.0
0.165,-0.189138810908105,77.5,0,100,3.0,0,0.0
0.17,-0.22868072635956738,77.5,0,100,3.0,0,0.0
0.175,-0.14104670682394166,77.5,0,100,3.0,0,0.0
0.18,-0.051158381651102834,77.5,0,100,3.0,0,0.0
0.185,-0.008206426846427752,77.5,0,100,3.0,0,0.0
0.19,0.005350271385530505,77.5,0,100,3.0,0,0.0
0.195,0.01084668799215426,77.5,0,100,3.0,0,0.0
0.2,0.016256859896386415,77.5,0,100,3.0,0,0.0
0.205,0.02345021205790711,77.5,0,100,3.0,0,0.0
0.21,0.0330621597308209,77.5,0,100,3.0,0,0.0
0.215,0.04559141319943196,77.5,0,100,3.0,0,0.0
0.22,0.06149084917446989,77.5,0,100,3.0,0,0.0
0.225,0.08111733445924295,77.5,0,100,3.0,0,0.0
0.23,0.1046628598272375,77.5,0,100,3.0,0,0.0
0.235,0.1320831047748631,77.5,0,100,3.0,0,0.0
0.24,0.16303381314489318,77.5,0,100,3.0,0,0.0
0.245,0.19682662652900276,77.5,0,100,3.0,0,0.0
0.25,0.23241585813229,77.5,0,100,3.0,0,0.0
0.255,0.26842527782774417,77.5,0,100,3.0,0,0.0
0.26,0.30321927900592993,77.5,0,100,3.0,0,0.0
0.265,0.3350163137995362,77.5,0,100,3.0,0,0.0
0.27,0.3620352400956416,77.5,0,100,3.0,0,0.0
0.275,0.3826586036805073,77.5,0,100,3.0,0,0.0
0.28,0.39559233134833227,77.5,0,100,3.0,0,0.0
0.285,0.4,77.5,0,100,3.0,0,0.0
0.29,0.39559233134833227,77.5,0,100,3.0,0,0.0
0.295,0.3826586036805073,77.5,0,100,3.0,0,0.0
0.3,0.3620352400956416,77.5,0,100,3.0,0,0.0
0.305,0.3350163137995362,77.5,0,100,3.0,0,0.0
0.31,0.3032192790059296,77.5,0,100,3.0,0,0.0
0.315,0.26842527782774417,77.5,0,100,3.0,0,0.0
0.32,0.23241585813229,77.5,0,100,3.0,0,0.0
0.325,0.19682662652900276,77.5,0,100,3.0,0,0.0
0.33,0.16303381314489318,77.5,0,100,3.0,0,0.0
0.335,0.13208310477486307,77.5,0,100,3.0,0,0.0
0.34,0.10466285982723562,77.5,0,100,3.0,0,0.0
0.345,0.08111733445917907,77.5,0,100,3.0,0,0.0
0.35,0.06149084917398798,77.5,0,100,3.0,0,0.0
0.355,0.04559141333598128,77.5,0,100,3.0,0,0.0
0.36,0.03306217087257399,77.5,0,100,3.0,0,0.0
0.365,0.02345067901074276,77.5,0,100,3.0,0,0.0
0.37,0.016268788896435526,77.5,0,100,3.0,0,0.0
0.375,0.011039026374860051,77.5,0,100,3.0,0,0.0
0.38,0.007326255555493689,77.5,0,100,3.0,0,0.0
0.385,0.0047556414315231815,77.5,0,100,3.0,0,0.0
0.39,0.0030193390635632803,77.5,0,100,3.0,0,0.0
0.395,0.001874953127946523,77.5,0,100,3.0,0,0.0
0.4,0.0011387927410965778,77.5,0,100,3.0,0,0.0
0.405,0.0006765107634274089,77.5,0,100,3.0,0,0.0
0.41,0.00039307957404427924,77.5,0,100,3.0,0,0.0
0.415,0.00022338910511776318,77.5,0,100,3.0,0,0.0
0.42,0.00012417073320013317,77.5,0,100,3.0,0,0.0
0.425,6.750753468904987e-05,77.5,0,100,3.0,0,0.0
0.43,3.5897234866245036e-05,77.5,0,100,3.0,0,0.0
0.435,1.8670050400879738e-05,77.5,0,100,3.0,0,0.0
0.44,9.497421874143672e-06,77.5,0,100,3.0,0,0.0
0.445,4.725434140340885e-06,77.5,0,100,3.0,0,0.0
0.45,2.299606063738814e-06,77.5,0,100,3.0,0,0.0
0.455,1.0945633976635486e-06,77.5,0,100,3.0,0,0.0
0.46,5.095703414287532e-07,77.5,0,100,3.0,0,0.0
0.465,2.3202944964797243e-07,77.5,0,100,3.0,0,0.0
0.47,1.0333746954038608e-07,77.5,0,100,3.0,0,0.0
0.475,4.501406988770349e-08,77.5,0,100,3.0,0,0.0
0.48,0.0,77.5,0,100,3.0,0,0.0
0.485,0.0,77.5,0,100,3.0,0,0.0
0.49,0.0,77.5,0,100,3.0,0,0.0
0.495,0.0,77.5,0,100,3.0,0,0.0
0.5,0.0,77.5,0,100,3.0,0,0.0
0.505,0.0,77.5,0,100,3.0,0,0.0
0.51,0.0,77.5,0,100,3.0,0,0.0
0.515,0.0,77.5,0,100,3.0,0,0.0
0.52,0.0,77.5,0,100,3.0,0,0.0
0.525,0.0,77.5,0,100,3.0,0,0.0
0.53,0.0,77.5,0,100,3.0,0,0.0
0.535,0.0,77.5,0,100,3.0,0,0.0
0.54,0.0,77.5,0,100,3.0,0,0.0
0.545,0.0,77.5,0,100,3.0,0,0.0
0.55,0.0,77.5,0,100,3.0,0,0.0
0.555,0.0,77.5,0,100,3.0,0,0.0
0.56,0.0,77.5,0,100,3.0,0,0.0
0.565,0.0,77.5,0,100,3.0,0,0.0
0.57,0.0,77.5,0,100,3.0,0,0.0
0.575,0.0,77.5,0,100,3.0,0,0.0
0.58,0.0,77.5,0,100,3.0,0,0.0
0.585,0.0,77.5,0,100,3.0,0,0.0
0.59,0.0,77.5,0,100,3.0,0,0.0
0.595,0.0,77.5,0,100,3.0,0,0.0
0.6,0.0,77.5,0,100,3.0,0,0.0
0.605,0.0,77.5,0,100,3.0,0,0.0
0.61,0.0,77.5,0,100,3.0,0,0.0
0.615,0.0,77.5,0,100,3.0,0,0.0
0.62,0.0,77.5,0,100,3.0,0,0.0
0.625,0.0,77.5,0,100,3.0,0,0.0
0.63,0.0,77.5,0,100,3.0,0,0.0
0.635,0.0,77.5,0,100,3.0,0,0.0
0.64,0.0,77.5,0,100,3.0,0,0.0
0.645,0.0,77.5,0,100,3.0,0,0.0
0.65,0.0,77.5,0,100,3.0,0,0.0
0.655,0.0,77.5,0,100,3.0,0,0.0
0.66,0.0,77.5,0,100,3.0,0,0.0
0.665,0.0,77.5,0,100,3.0,0,0.0
0.67,0.0,77.5,0,100,3.0,0,0.0
0.675,0.0,77.5,0,100,3.0,0,0.0
0.68,0.0,77.5,0,100,3.0,0,0.0
0.685,0.0,77.5,0,100,3.0,0,0.0
0.69,0.0,77.5,0,100,3.0,0,0.0
0.695,0.001684486749771458,77.5,0,100,3.0,0,0.0
0.7,0.00456624331333666,77.5,0,100,3.0,0,0.0
0.705,0.011079731271581421,77.5,0,100,3.0,0,0.0
0.71,0.024064571490409,77.5,0,100,3.0,0,0.0
0.715,0.046784906529573234,77.5,0,100,3.0,0,0.0
0.72,0.08141644351188804,77.5,0,100,3.0,0,0.0
0.725,0.12682276464025305,77.5,0,100,3.0,0,0.0
0.73,0.1768320708657512,77.5,0,100,3.0,0,0.0
0.735,0.22070063230473494,77.5,0,100,3.0,0,0.0
0.74,0.24656126505113576,77.5,0,100,3.0,0,0.0
0.745,0.24656126505724016,77.5,0,100,3.0,0,0.0
0.75,0.220700632329898,77.5,0,100,3.0,0,0.0
0.755,0.17683207093748562,77.5,0,100,3.0,0,0.0
0.76,0.12682276483597799,77.5,0,100,3.0,0,0.0
0.765,0.08141644409447898,77.5,0,100,3.0,0,0.0
0.77,0.04678490952598309,77.5,0,100,3.0,0,0.0
0.775,0.024064605020532023,77.5,0,100,3.0,0,0.0
0.78,0.011080171739334697,77.5,0,100,3.0,0,0.0
0.785,0.004571212771509492,77.5,0,100,3.0,0,0.0
0.79,0.0017299316936037438,77.5,0,100,3.0,0,0.0
0.795,0.0008899431850697582,77.5,0,100,3.0,0,0.0
0.8,0.002128806368910263,77.5,0,100,3.0,0,0.0
0.805,0.009309664818487698,77.5,0,100,3.0,0,0.0
0.81,0.03503263543368747,77.5,0,100,3.0,0,0.0
0.815,0.10606267793605692,77.5,0,100,3.0,0,0.0
0.82,0.25734927343160535,77.5,0,100,3.0,0,0.0
0.825,0.5003202479539708,77.5,0,100,3.0,0,0.0
0.83,0.7793067891790435,77.5,0,100,3.0,0,0.0
0.835,0.9720477407234077,77.50000296417907,1,100,3.0,0,5.8696615339370215e-08
0.84,0.967267334488097,77.50000671426626,0,100,3.0,0,1.3295576758366115e-07
0.845,0.7505869905515209,77.50001690807775,0,100,3.0,0,3.3481342086923917e-07
0.85,0.4028369574773956,77.50004998152149,0,100,3.0,0,9.897330987161408e-07
0.855,0.04553881263121314,77.50017093493624,0,100,3.0,0,3.3848502224904368e-06
0.86,-0.189138810908105,77.50062682696246,0,100,3.0,0,1.2412415098215026e-05
0.865,-0.22868072635956738,77.50228951654114,0,100,3.0,0,4.533696121069003e-05
0.87,-0.14104670682394166,77.50797121731352,0,100,3.0,0,0.00015784588739653274
0.875,-0.051158381651102834,77.52589581734757,0,100,3.0,0,0.0005127884623282125
0.88,-0.008206426846427752,77.57774358530986,0,100,3.0,0,0.001539476936828929
0.885,0.005350271385530505,77.7147515715821,0,100,3.0,0,0.00425250636796235
0.89,0.01084668799215426,78.04471478880228,0,100,3.0,0,0.01078643146143131
0.895,0.016256859896386415,78.76748649806238,0,100,3.0,0,0.02509874253588876
0.9,0.02345021205790711,80.20427167320135,0,100,3.0,0,0.05354993412279896
0.905,0.0330621597308209,82.78911922275384,0,100,3.0,0,0.10473503411393742
0.91,0.04559141319943196,86.98172744251318,0,100,3.0,0,0.18775697905966685
0.915,0.06149084917446989,93.07887730032347,0,100,3.0,0,0.30849261980838555
0.92,0.08111733445924295,100.95962721250167,0,100,3.0,0,0.4645470735148846
0.925,0.1046628598272375,109.87793025058434,0,100,3.0,0,0.6411471336749375
0.93,0.1320831047748631,118.45853789884562,0,100,3.0,0,0.8110601564127845
0.935,0.16303381314489318,124.99616767138359,0,100,3.0,0,0.9405181717105661
0.94,0.19682662652900276,128.0,0,100,3.0,0,1.0
0.945,0.23241585813229,126.75356838385197,0,100,3.0,0,0.9753181858188509
0.95,0.26842527782774417,121.60504184108623,0,100,3.0,0,0.8733671651700244
0.955,0.30321927900592993,113.82915829348634,0,100,3.0,0,0.7193892731383434
0.96,0.3350163137995362,105.1368956240279,0,100,3.0,0,0.5472652598817406
0.965,0.3620352400956416,97.09121900543379,0,100,3.0,0,0.387944930800669
0.97,0.3826586036805073,90.69899581482312,0,100,3.0,0,0.2613662537588737
0.975,0.39559233134833227,86.30643547151764,0,100,3.0,0,0.1743848608221316
0.98,0.4,83.74771204094193,0,100,3.0,0,0.12371707011766206
0.985,0.39559233134833227,82.59820551494997,0,100,3.0,0,0.1009545646524746
0.99,0.3826586036805073,82.39507218456649,0,100,3.0,0,0.09693212246666312
0.995,0.3620352400956416,82.76100457002498,0,100,3.0,0,0.10417830831732633
1.0,0.3350163137995362,83.43701275683196,0,100,3.0,0,0.11756460904617747
1.005,0.3032192790059296,84.26274473002995,0,100,3.0,0,0.13391573722831585
1.01,0.26842527782774417,85.14136714527861,0,100,3.0,0,0.1513142008966061
1.015,0.23241585813229,86.00990517918865,0,100,3.0,0,0.1685129738453198
1.02,0.19682662652900276,86.82112236316677,0,100,3.0,0,0.1845766804587478
1.025,0.16303381314489318,87.53521333823748,0,100,3.0,0,0.19871709580668284
1.03,0.13208310477486307,88.11753774701205,0,100,3.0,0,0.21024827221806042
1.035,0.10466285982723562,88.53926927071664,0,100,3.0,0,0.2185993914993395
1.04,0.08111733445917907,88.77902403173812,0,100,3.0,0,0.22334701052946768
1.045,0.06149084917398798,88.82443075630417,0,100,3.0,0,0.22424615359018152
1.05,0.04559141333598128,88.67312595457363,0,100,3.0,0,0.22125001890244822
1.055,0.03306217087257399,88.33294216334119,0,100,3.0,0,0.21451370620477597
1.06,0.02345067901074276,87.8212325486588,0,100,3.0,0,0.20438084254769898
1.065,0.016268788896435526,87.16340340705206,0,100,3.0,0,0.19135452291192195
1.07,0.011039026374860051,86.39082504390485,0,100,3.0,0,0.17605594146346246
1.075,0.007326255555493689,85.53835951391795,0,100,3.0,0,0.15917543591916739
1.08,0.0047556414315231815,84.64177552213825,0,100,3.0,0,0.1414212974680841
1.085,0.0030193390635632803,83.73531462915751,0,100,3.0,0,0.12347157681500029
1.09,0.001874953127946523,82.8496326055666,0,100,3.0,0,0.10593331892211084
1.095,0.0011387927410965778,82.01027424192745,0,100,3.0,0,0.0893123612262861
1.1,0.0006765107634274089,81.23676123804874,0,100,3.0,0,0.07399527204056917
1.105,0.00039307957404427924,80.54229383076677,0,100,3.0,0,0.06024344219340132
1.11,0.00022338910511776318,79.93399886750076,0,100,3.0,0,0.04819799737625271
1.115,0.00012417073320013317,79.41360807300065,0,100,3.0,0,0.037893229168329615
1.12,6.750753468904987e-05,78.97842407043797,0,100,3.0,0,0.029275724167088454
1.125,3.5897234866245036e-05,78.62242792395355,0,100,3.0,0,0.022226295523832713
1.13,1.8670050400879738e-05,78.33739682142036,0,100,3.0,0,0.016582115275650608
1.135,9.497421874143672e-06,78.11392816965889,0,100,3.0,0,0.0121569934585919
1.14,4.725434140340885e-06,77.9423002876319,0,100,3.0,0,0.008758421537265242
1.145,2.299606063738814e-06,77.81313404636992,0,100,3.0,0,0.006200674185543062
1.15,1.0945633976635486e-06,77.7178495995346,0,100,3.0,0,0.004313853456130745
1.155,5.095703414287532e-07,77.64893495872354,0,100,3.0,0,0.002949207103436511
1.16,2.3202944964797243e-07,77.60005756748029,0,100,3.0,0,0.0019813379699067666
1.165,1.0333746954038608e-07,77.56605666430328,0,100,3.0,0,0.0013080527584806965
1.17,4.501406988770349e-08,77.54285453088583,0,100,3.0,0,0.0008486045719966978
1.175,0.0,77.5273206016611,0,100,3.0,0,0.0005410020130911431
1.18,0.0,77.51711579911962,0,100,3.0,0,0.0003389267152400488
1.185,0.0,77.5105370128528,0,100,3.0,0,0.00020865371985730172
1.19,0.0,77.50637457516568,0,100,3.0,0,0.00012622921120157684
1.195,0.0,77.50378964379554,0,100,3.0,0,7.504245139688068e-05
1.2,0.0,77.50221390480374,0,100,3.0,0,4.3839699083937465e-05
1.205,0.0,77.50127096298368,0,100,3.0,1,2.5167583835287354e-05
1.21,0.0,77.5007170018383,0,100,3.0,1,1.4198056203890746e-05
1.215,0.0,77.5003974852742,0,100,3.0,1,7.870995528834317e-06
1.22,0.0,77.50021653855089,0,100,3.0,1,4.287892096780893e-06
1.225,0.0,77.50011592118605,0,100,3.0,1,2.2954690307145002e-06
1.23,0.0,77.50006098230187,0,100,3.0,1,1.2075703341564587e-06
1.235,0.001684486749771458,77.50003152522672,0,100,3.0,1,6.2426191519053e-07
1.24,0.00456624331333666,77.50001601496638,0,100,3.0,1,3.1712804707015015e-07
1.245,0.011079731271581421,77.5000079947935,0,100,3.0,1,1.5831274269955187e-07
1.25,0.024064571490409,77.50000392194843,0,100,3.0,1,7.766234521924243e-08
1.255,0.046784906529573234,77.50000189064467,0,100,3.0,1,3.743850828472529e-08
1.26,0.08141644351188804,77.50000089563562,0,100,3.0,1,1.7735358862482105e-08
1.265,0.12682276464025305,77.50000041693293,0,100,3.0,1,8.256097710880856e-09
1.27,0.1768320708657512,77.500000190728,0,100,3.0,1,3.776792124368188e-09
1.275,0.22070063230473494,77.50000008573855,0,100,3.0,1,1.697793043667213e-09
1.28,0.24656126505113576,77.50000003787487,0,100,3.0,1,7.499974151077107e-10
1.285,0.24656126505724016,77.50000001644143,0,100,3.0,1,3.255729327497872e-10
1.29,0.220700632329898,77.50000000701361,0,100,3.0,1,1.3888338663932835e-10
1.295,0.17683207093748562,77.50000000294007,0,100,3.0,1,5.821919843907777e-11
1.3,0.12682276483597799,77.50000000121112,0,100,3.0,1,2.3982576101051303e-11
1.305,0.08141644409447898,77.50000000049026,0,100,3.0,1,9.708124293460474e-12
1.31,0.04678490952598309,77.50000000019502,0,100,3.0,1,3.8616942427072695e-12
1.315,0.024064605020532023,77.50000000007623,0,100,3.0,1,1.5094460335117535e-12
1.32,0.011080171739334697,77.50000000002929,0,100,3.0,1,5.799717142184422e-13
1.325,0.004571212771509492,77.50000000001106,0,100,3.0,1,2.1893158353321106e-13
1.33,0.0017299316936037438,77.50000000000409,0,100,3.0,1,8.104408233620152e-14
1.335,0.0008899431850697582,77.50000000000149,0,100,3.0,1,2.9547321685073474e-14
1.34,0.002128806368910263,77.50000000000054,0,100,3.0,1,1.0693316419359924e-14
1.345,0.009309664818487698,77.50000000000018,0,100,3.0,1,3.6582398276757634e-15
1.35,0.03503263543368747,77.50000000000007,0,100,3.0,1,1.4070153183368321e-15
1.355,0.10606267793605692,77.50000000000003,0,100,3.0,1,5.628061273347328e-16
1.36,0.25734927343160535,77.5,0,100,3.0,1,0.0
1.365,0.5003202479539708,77.5,0,100,3.0,1,0.0
1.37,0.7793067891790435,77.5,0,100,3.0,1,0.0
1.375,0.9720477407234077,77.50000297771932,1,100,3.0,1,5.896473899246312e-08
1.38,0.967267334488097,77.50000663960374,0,100,3.0,1,1.3147730177623466e-07
1.385,0.7505869905515209,77.50001637586298,0,100,3.0,1,3.242745145319595e-07
1.39,0.4028369574773956,77.50004709848977,0,100,3.0,1,9.326433618442403e-07
1.395,0.04553881263121314,77.50015636152904,0,100,3.0,1,3.0962679017134764e-06
1.4,-0.189138810908105,77.50055851161024,0,100,3.0,1,1.1059635846270857e-05
1.405,-0.22868072635956738,77.50199785519398,0,100,3.0,1,3.956148898964784e-05
1.41,-0.14104670682394166,77.50684655116036,0,100,3.0,1,0.0001355752705022735
1.415,-0.051158381651102834,77.52198752153514,0,100,3.0,1,0.00043539646604233553
1.42,-0.008206426846427752,77.56550288726234,0,100,3.0,1,0.0012970868764819888
1.425,0.005350271385530505,77.68017945676077,0,100,3.0,1,0.0035679100348667055
1.43,0.01084668799215426,77.95663373031859,0,100,3.0,1,0.009042252085516556
1.435,0.016256859896386415,78.56510793599625,0,100,3.0,1,0.02109124625735153
1.44,0.02345021205790711,79.78536032528146,0,100,3.0,1,0.04525465990656355
1.445,0.0330621597308209,82.00955711372923,0,100,3.0,1,0.08929816066790554
1.45,0.04559141319943196,85.68219717478566,0,100,3.0,1,0.16202370643139913
1.455,0.06149084917446989,91.14997859840949,0,100,3.0,1,0.2702966059090988
1.46,0.08111733445924295,98.43667840593884,0,100,3.0,1,0.41458769120670963
1.465,0.1046628598272375,107.025648494709,0,100,3.0,1,0.5846663068259208
1.47,0.1320831047748631,115.78459252281604,0,100,3.0,1,0.7581107430260602
1.475,0.16303381314489318,123.1477986612665,0,100,3.0,1,0.9039168051735942
1.48,0.19682662652900276,127.55660442372614,0,100,3.0,1,0.9912198895787355
1.485,0.23241585813229,128.0,0,100,3.0,1,1.0
1.49,0.26842527782774417,124.40173161663243,0,100,3.0,1,0.9287471607253946
1.495,0.30321927900592993,117.65298983257354,0,100,3.0,1,0.7951087095559116
1.5,0.3350163137995362,109.27308996697352,0,100,3.0,1,0.6291700983559112
1.505,0.3620352400956416,100.87564874495942,0,100,3.0,1,0.4628841335635529
1.51,0.3826586036805073,93.69641414601595,0,100,3.0,1,0.32072107219833573
1.515,0.39559233134833227,88.36390013891604,0,100,3.0,1,0.21512673542407995
1.52,0.4,84.93753867373853,0,100,3.0,1,0.14727799353937682
1.525,0.39559233134833227,83.1108165011131,0,100,3.0,1,0.11110527724976449
1.53,0.3826586036805073,82.44178996739586,0,100,3.0,1,0.0978572270771458
1.535,0.3620352400956416,82.51738442219202,0,100,3.0,1,0.09935414697409947
1.54,0.3350163137995362,83.02651494004887,0,100,3.0,1,0.10943593940690831
1.545,0.3032192790059296,83.76477105221848,0,100,3.0,1,0.12405487232115799
1.55,0.26842527782774417,84.60711840850529,0,100,3.0,1,0.1407350179902037
1.555,0.23241585813229,85.47616777813795,0,100,3.0,1,0.15794391639877126
1.56,0.19682662652900276,86.31875732791698,0,100,3.0,1,0.17462885797855413
1.565,0.16303381314489318,87.09287384486441,0,100,3.0,1,0.18995789791810722
1.57,0.13208310477486307,87.7622785489768,0,100,3.0,1,0.20321343661340188
1.575,0.10466285982723562,88.29553846232781,0,100,3.0,1,0.21377303885797647
1.58,0.08111733445917907,88.66703467803421,0,100,3.0,1,0.2211293995650339
1.585,0.06149084917398798,88.85851368876422,0,100,3.0,1,0.22492106314384594
1.59,0.04559141333598128,88.86042489121863,0,100,3.0,1,0.22495890873700253
1.595,0.03306217087257399,88.67266908455821,0,100,3.0,1,0.22124097197144968
1.6,0.02345067901074276,88.3045967595911,0,100,3.0,1,0.213952411081012
1.605,0.016268788896435526,87.77423397700282,0,100,3.0,1,0.20345017776243213
1.61,0.011039026374860051,87.10681883811144,0,100,3.0,1,0.19023403639824626
1.615,0.007326255555493689,86.33281248509984,0,100,3.0,1,0.17490717792276902
1.62,0.0047556414315231815,85.48560236140001,0,100,3.0,1,0.15813073982970322
1.625,0.0030193390635632803,84.59913788751919,0,100,3.0,1,0.14057698787166714
1.63,0.001874953127946523,83.70572894913506,0,100,3.0,1,0.12288572176505078
1.635,0.0011387927410965778,82.83419950017672,0,100,3.0,1,0.10562771287478659
1.64,0.0006765107634274089,82.00853002696181,0,100,3.0,1,0.0892778223160754
1.645,0.00039307957404427924,81.24705388855047,0,100,3.0,1,0.07419908690198947
1.65,0.00022338910511776318,80.56220437043469,0,100,3.0,1,0.060637710305637325
1.655,0.00012417073320013317,79.96075097280979,0,100,3.0,1,0.04872774203583744
1.66,6.750753468904987e-05,79.44442152181271,0,100,3.0,1,0.038503396471538893
1.665,3.5897234866245036e-05,79.01078419848078,0,100,3.0,1,0.029916518781797578
1.67,1.8670050400879738e-05,78.65426016726607,0,100,3.0,1,0.022856636975565815
1.675,9.497421874143672e-06,78.36715003120642,0,100,3.0,1,0.017171287746661802
1.68,4.725434140340885e-06,78.14058098050421,0,100,3.0,1,0.012684771891172496
1.685,2.299606063738814e-06,77.96531076079805,0,100,3.0,1,0.009214074471248463
1.69,1.0945633976635486e-06,77.83235438484492,0,100,3.0,1,0.00658127494742414
1.695,5.095703414287532e-07,77.73342587215042,0,100,3.0,1,0.004622294498028116
1.7,2.3202944964797243e-07,77.66120771708205,0,100,3.0,1,0.0031922320214267295
1.705,1.0333746954038608e-07,77.60947423674872,0,100,3.0,1,0.002167806668291569
1.71,4.501406988770349e-08,77.57310166766504,0,100,3.0,1,0.0014475577755453993
1.715,0.0,77.54799896841564,0,100,3.0,1,0.0009504746220918965
1.72,0.0,77.53099030020272,0,100,3.0,1,0.0006136693109448907
1.725,0.0,77.51967473643876,0,100,3.0,1,0.00038959874136156546
1.73,0.0,77.51228234589465,0,100,3.0,1,0.00024321477019103072
1.735,0.0,77.50753950762486,0,100,3.0,1,0.00014929718069020686
1.74,0.0,77.50455086451487,0,100,3.0,1,9.011612900729972e-05
1.745,0.0,77.5027010591081,0,100,3.0,1,5.3486318972379043e-05
1.75,0.0,77.50157638948912,0,100,3.0,1,3.121563344785221e-05
1.755,0.0,77.5009046534282,0,100,3.0,1,1.7913929271159787e-05
1.76,0.0,77.5005104934764,0,100,3.0,1,1.010878171084664e-05
1.765,0.0,77.50028326141505,0,100,3.0,1,5.609136931667254e-06
1.77,0.0,77.50015455174204,0,100,3.0,1,3.060430535494768e-06
1.775,0.0,77.50008291815867,0,100,3.0,1,1.6419437360024074e-06
1.78,0.0,77.50004374361338,0,100,3.0,1,8.662101658438308e-07
1.785,0.001684486749771458,77.50002269179859,0,100,3.0,1,4.4934254636173855e-07
1.79,0.00456624331333666,77.50001157477203,0,100,3.0,1,2.2920340656452423e-07
1.795,0.011079731271581421,77.5000058055749,0,100,3.0,1,1.1496187922413882e-07
1.8,0.024064571490409,77.50000286330281,0,100,3.0,1,5.669906556141712e-08
1.805,0.046784906529573234,77.50000138860456,0,100,3.0,1,2.74971199868929e-08
1.81,0.08141644351188804,77.50000066218472,0,100,3.0,1,1.3112568667836086e-08
1.815,0.12682276464025305,77.50000031050527,0,100,3.0,1,6.148619233121425e-09
1.82,0.1768320708657512,77.50000014316869,0,100,3.0,1,2.8350235866263133e-09
1.825,0.22070063230473494,77.50000006491072,0,100,3.0,1,1.2853608342705383e-09
1.83,0.24656126505113576,77.50000002893837,0,100,3.0,1,5.730370985204873e-10
1.835,0.24656126505724016,77.50000001268589,0,100,3.0,1,2.512057009052213e-10
1.84,0.220700632329898,77.50000000546837,0,100,3.0,1,1.0828446170532993e-10
1.845,0.17683207093748562,77.50000000231783,0,100,3.0,1,4.5897683893338464e-11
1.85,0.12682276483597799,77.50000000096604,0,100,3.0,1,1.91294988650439e-11
1.855,0.08141644409447898,77.50000000039591,0,100,3.0,1,7.839889353772829e-12
1.86,0.04678490952598309,77.50000000015955,0,100,3.0,1,3.1593121957935227e-12
1.865,0.024064605020532023,77.50000000006322,0,100,3.0,1,1.2519622302561131e-12
1.87,0.011080171739334697,77.50000000002463,0,100,3.0,1,4.87671509335546e-13
1.875,0.004571212771509492,77.50000000000944,0,100,3.0,1,1.8685163427513129e-13
1.88,0.0017299316936037438,77.50000000000355,0,100,3.0,1,7.03507659168416e-14
1.885,0.0008899431850697582,77.50000000000132,0,100,3.0,1,2.6170484921065077e-14
1.89,0.002128806368910263,77.50000000000048,0,100,3.0,1,9.567704164690459e-15
1.895,0.009309664818487698,77.50000000000017,0,100,3.0,1,3.3768367640083968e-15
1.9,0.03503263543368747,77.50000000000006,0,100,3.0,1,1.1256122546694657e-15
1.905,0.10606267793605692,77.50000000000001,0,100,3.0,1,2.814030636673664e-16
1.91,0.25734927343160535,77.5,0,100,3.0,1,0.0
1.915,0.5003202479539708,77.5,0,100,3.0,1,0.0
1.92,0.7793067891790435,77.5,0,100,3.0,1,0.0
1.925,0.9720477407234077,77.50000297094563,1,100,3.0,1,5.8830606533747686e-08
1.93,0.967267334488097,77.50000585321456,0,100,3.0,1,1.1590523881480268e-07
1.935,0.7505869905515209,77.50001231859999,0,100,3.0,1,2.4393267297833374e-07
1.94,0.4028369574773956,77.5000287685175,0,100,3.0,1,5.696736137690438e-07
1.945,0.04553881263121314,77.50007544225073,0,100,3.0,1,1.493905955103941e-06
1.95,-0.189138810908105,77.50021580677046,0,100,3.0,1,4.2734013951609664e-06
1.955,-0.22868072635956738,77.50064122197105,0,100,3.0,1,1.2697464773291268e-05
1.96,-0.14104670682394166,77.50189764285709,0,100,3.0,1,3.7577086278971173e-05
1.965,-0.051158381651102834,77.50544678588247,0,100,3.0,1,0.00010785714618751257
1.97,-0.008206426846427752,77.51494354533021,0,100,3.0,1,0.00029591178871706545
1.975,0.005350271385530505,77.53889317447089,0,100,3.0,1,0.0007701618707106056
1.98,0.01084668799215426,77.59565760011441,0,100,3.0,1,0.0018942099032555873
1.985,0.016256859896386415,77.72188223512214,0,100,3.0,1,0.004393707626180944
1.99,0.02345021205790711,77.98486749911095,0,100,3.0,1,0.00960133661605837
1.995,0.0330621597308209,78.4976358334839,0,100,3.0,1,0.01975516501948312
2.0,0.04559141319943196,79.43210578788607,0,100,3.0,1,0.03825952055219946
2.005,0.06149084917446989,81.02144467284691,0,100,3.0,1,0.06973157768013685
2.01,0.08111733445924295,83.53943824352314,0,100,3.0,1,0.11959283650540864
2.015,0.1046628598272375,87.24612635035874,0,100,3.0,1,0.1929926009972027
2.02,0.1320831047748631,92.29836240213126,0,100,3.0,1,0.29303687925012395
2.025,0.16303381314489318,98.6415242177682,0,100,3.0,1,0.41864404391620186
2.03,0.19682662652900276,105.91856224009601,0,100,3.0,1,0.5627438067345745
2.035,0.23241585813229,113.44355699129795,0,100,3.0,1,0.7117536037880783
2.04,0.26842527782774417,120.27731578487735,0,100,3.0,1,0.8470755600965811
2.045,0.30321927900592993,125.40886924748625,0,100,3.0,1,0.9486904801482426
2.05,0.3350163137995362,128.0,0,100,3.0,1,1.0
2.055,0.3620352400956416,127.61297446918879,0,100,3.0,1,0.9923361281027482
2.06,0.3826586036805073,124.33696161207922,0,100,3.0,1,0.9274645863778064
2.065,0.39559233134833227,118.76344665656188,0,100,3.0,1,0.8170979535952848
2.07,0.4,111.82039289833824,0,100,3.0,1,0.6796117405611533
2.075,0.39559233134833227,104.52944873576625,0,100,3.0,1,0.5352366086290347
2.08,0.3826586036805073,97.77357003237384,0,100,3.0,1,0.40145683232423446
2.085,0.3620352400956416,92.14593155860807,0,100,3.0,1,0.2900184467051103
2.09,0.3350163137995362,87.90825613345055,0,100,3.0,1,0.20610408185050594
2.095,0.3032192790059296,85.04198682162858,0,100,3.0,1,0.1493462736956155
2.1,0.26842527782774417,83.34911037832367,0,100,3.0,1,0.11582396788759747
2.105,0.23241585813229,82.55716877843483,0,100,3.0,1,0.10014195600861046
2.11,0.19682662652900276,82.39818228678223,0,100,3.0,1,0.09699370864915308
2.115,0.16303381314489318,82.65144010719679,0,100,3.0,1,0.10200871499399586
2.12,0.13208310477486307,83.15544646601765,0,100,3.0,1,0.11198903893104259
2.125,0.10466285982723562,83.80098496712186,0,100,3.0,1,0.12477197954696759
2.13,0.08111733445917907,84.51679817502719,0,100,3.0,1,0.13894649851538993
2.135,0.06149084917398798,85.25545908263547,0,100,3.0,1,0.15357344718090035
2.14,0.04559141333598128,85.98282074337618,0,100,3.0,1,0.16797664838368673
2.145,0.03306217087257399,86.67155747492474,0,100,3.0,1,0.1816149995034602
2.15,0.02345067901074276,87.29795930335597,0,100,3.0,1,0.19401899610605874
2.155,0.016268788896435526,87.84083911807926,0,100,3.0,1,0.20476909144711405
2.16,0.011039026374860051,88.28160151207733,0,100,3.0,1,0.21349705964509563
2.165,0.007326255555493689,88.60482836895572,0,100,3.0,1,0.21989759146446974
2.17,0.0047556414315231815,88.79899114489746,0,100,3.0,1,0.22374239890886052
2.175,0.0030193390635632803,88.85706779854773,0,100,3.0,1,0.22489243165441053
2.18,0.001874953127946523,88.77694250763581,0,100,3.0,1,0.22330579223041205
2.185,0.0011387927410965778,88.56152685954629,0,100,3.0,1,0.21904013583259982
2.19,0.0006765107634274089,88.21858228046267,0,100,3.0,1,0.2122491540685677
2.195,0.00039307957404427924,87.76025532372388,0,100,3.0,1,0.20317337274700756
2.2,0.00022338910511776318,87.20236355807309,0,100,3.0,1,0.19212601105095226
2.205,0.00012417073320013317,86.5634902866797,0,100,3.0,1,0.17947505518177614
2.21,6.750753468904987e-05,85.86396018771272,0,100,3.0,1,0.16562297401411327
2.215,3.5897234866245036e-05,85.12477432033205,0,100,3.0,1,0.15098563010558516
2.22,1.8670050400879738e-05,84.36658158555097,0,100,3.0,1,0.13597191258516783
2.225,9.497421874143672e-06,83.60875530007408,0,100,3.0,1,0.12096545148661544
2.23,4.725434140340885e-06,82.86862941840498,0,100,3.0,1,0.10630949343376195
2.235,2.299606063738814e-06,82.1609310518812,0,100,3.0,1,0.09229566439368726
2.24,1.0945633976635486e-06,81.49742647014536,0,100,3.0,1,0.07915695980485854
2.245,5.095703414287532e-07,80.88677888145745,0,100,3.0,1,0.06706492834569198
2.25,2.3202944964797243e-07,80.33459982381898,0,100,3.0,1,0.05613068958057379
2.255,1.0333746954038608e-07,79.84366331563119,0,100,3.0,1,0.04640917456695426
2.26,4.501406988770349e-08,79.4142437702478,0,100,3.0,1,0.03790581723262958
2.265,0.0,79.04453522094083,0,100,3.0,1,0.030584855860214453
2.27,0.0,78.73111024024065,0,100,3.0,1,0.024378420598824817
2.275,0.0,78.46938127165673,0,100,3.0,1,0.01919566874567781
2.28,0.0,78.25403387991976,0,100,3.0,1,0.014931363958807127
2.285,0.0,78.07940954909407,0,100,3.0,1,0.011473456417704283
2.29,0.0,77.93982406759571,0,100,3.0,1,0.00870938747714274
2.295,0.0,77.8298153669202,0,100,3.0,1,0.006530997364756453
2.3,0.0,77.74432130323292,0,100,3.0,1,0.004838045608572724
2.305,0.0,77.67879292921928,0,100,3.0,1,0.0035404540439462227
2.31,0.0,77.62925218591911,0,100,3.0,1,0.00255944922612107
2.315,0.0,77.59230474085237,0,100,3.0,1,0.0018278166505419813
2.32,0.0,77.56511914230262,0,100,3.0,1,0.0012894879663885247
2.325,0.0,77.54538286297166,0,100,3.0,1,0.0008986705538943354
2.33,0.0,77.5312445059329,0,100,3.0,1,0.0006187030877802698
2.335,0.0,77.52124975792847,0,100,3.0,1,0.00042078728571233557
2.34,0.0,77.51427686543666,0,100,3.0,1,0.00028271020666646127
2.345,0.0,77.50947567810488,0,100,3.0,1,0.00018763719019558933
2.35,0.0,77.50621278444058,0,100,3.0,1,0.0001230254344668898
2.355,0.0,77.50402402644141,0,100,3.0,1,7.968369190918322e-05
2.36,0.0,77.50257474319895,0,100,3.0,1,5.098501384056795e-05
2.365,0.0,77.50162744217775,0,100,3.0,1,3.222657777721924e-05
2.37,0.0,77.50101619199279,0,100,3.0,1,2.0122613718605393e-05
2.375,0.0,77.50062682242242,0,100,3.0,1,1.2412325196408455e-05
2.38,0.0,77.50038195467684,0,100,3.0,1,7.56345894732215e-06
2.385,0.0,77.50022992049958,0,100,3.0,1,4.552881179760973e-06
2.39,0.0,77.50013672316726,0,100,3.0,1,2.7073894506708647e-06
2.395,0.0,77.50008031655649,0,100,3.0,1,1.5904268612230947e-06
2.4,0.0,77.50004660865855,0,100,3.0,1,9.22943733672078e-07
2.405,0.0,77.50002671939872,0,100,3.0,1,5.29097004325852e-07
2.41,0.0,77.500015131616,0,100,3.0,2,2.996359603119993e-07
2.415,0.0,77.50000846530277,0,100,3.0,2,1.67629757819362e-07
2.42,0.0,77.50000467840951,0,100,3.0,2,9.264177248438176e-08
2.425,0.0,77.50000255418604,0,100,3.0,2,5.057794137743744e-08
2.43,0.001684486749771458,77.50000137754365,0,100,3.0,2,2.7278092163511912e-08
2.435,0.00456624331333666,77.5000007339336,0,100,3.0,2,1.4533338686521915e-08
2.44,0.011079731271581421,77.500000386284,0,100,3.0,2,7.649188125586728e-09
2.445,0.024064571490409,77.50000020084232,0,100,3.0,2,3.9770756896782906e-09
2.45,0.046784906529573234,77.50000010315784,0,100,3.0,2,2.0427296026310154e-09
2.455,0.08141644351188804,77.5000000523417,0,100,3.0,2,1.0364693921609173e-09
2.46,0.12682276464025305,77.50000002623567,0,100,3.0,2,5.195181754538455e-10
2.465,0.1768320708657512,77.50000001299077,0,100,3.0,2,2.57242922233141e-10
2.47,0.22070063230473494,77.50000000635443,0,100,3.0,2,1.2583022412805389e-10
2.475,0.24656126505113576,77.50000000307055,0,100,3.0,2,6.080304136967153e-11
2.48,0.24656126505724016,77.50000000146574,0,100,3.0,2,2.9024474792779507e-11
2.485,0.220700632329898,77.50000000069117,0,100,3.0,2,1.36866008075897e-11
2.49,0.17683207093748562,77.50000000032198,0,100,3.0,2,6.3757492135115204e-12
2.495,0.12682276483597799,77.50000000014816,0,100,3.0,2,2.9339083417959623e-12
2.5,0.08141644409447898,77.50000000006736,0,100,3.0,2,1.3338505217833169e-12
2.505,0.04678490952598309,77.50000000003025,0,100,3.0,2,5.991071225478231e-13
2.51,0.024064605020532023,77.50000000001342,0,100,3.0,2,2.656444921019939e-13
2.515,0.011080171739334697,77.50000000000588,0,100,3.0,2,1.165008683582897e-13
2.52,0.004571212771509492,77.50000000000254,0,100,3.0,2,5.037114839645859e-14
2.525,0.0017299316936037438,77.5000000000011,0,100,3.0,2,2.1668035902387214e-14
2.53,0.0008899431850697582,77.50000000000045,0,100,3.0,2,9.004898037355725e-15
2.535,0.002128806368910263,77.50000000000018,0,100,3.0,2,3.6582398276757634e-15
2.54,0.009309664818487698,77.50000000000009,0,100,3.0,2,1.6884183820041984e-15
2.545,0.03503263543368747,77.50000000000003,0,100,3.0,2,5.628061273347328e-16
2.55,0.10606267793605692,77.50000000000001,0,100,3.0,2,2.814030636673664e-16
2.555,0.25734927343160535,77.5,0,100,3.0,2,0.0
2.56,0.5003202479539708,77.5,0,100,3.0,2,0.0
2.565,0.7793067891790435,77.5,0,100,3.0,2,0.0
2.57,0.9720477407234077,77.5000029632167,1,100,3.0,2,5.867755844249559e-08
2.575,0.967267334488097,77.50000632443192,0,100,3.0,2,1.252362756864692e-07
2.58,0.7505869905515209,77.50001473324576,0,100,3.0,2,2.917474408505849e-07
2.585,0.4028369574773956,77.50003930345265,0,100,3.0,2,7.782861911378535e-07
2.59,0.04553881263121314,77.50012007178523,0,100,3.0,2,2.37765911352014e-06
2.595,-0.189138810908105,77.50039768906025,0,100,3.0,2,7.875030896043021e-06
2.6,-0.22868072635956738,77.50133813309903,0,100,3.0,2,2.6497685129220596e-05
2.605,-0.14104670682394166,77.50437429970992,0,100,3.0,2,8.661979623609861e-05
2.61,-0.051158381651102834,77.51356283545961,0,100,3.0,2,0.0002685709992001851
2.615,-0.008206426846427752,77.539423280672,0,100,3.0,2,0.0007806590232078606
2.62,0.005350271385530505,77.60683292766095,0,100,3.0,2,0.0021155035180385365
2.625,0.01084668799215426,77.7691843879838,0,100,3.0,2,0.005330383920471266
2.63,0.016256859896386415,78.1298195737859,0,100,3.0,2,0.012471674728433559
2.635,0.02345021205790711,78.8674564682652,0,100,3.0,2,0.027078345906241648
2.64,0.0330621597308209,80.25416185836706,0,100,3.0,2,0.05453785858152585
2.645,0.04559141319943196,82.64472323642266,0,100,3.0,2,0.10187570765193393
2.65,0.06149084917446989,86.41224109374863,0,100,3.0,2,0.17648002165838877
2.655,0.08111733445924295,91.81665598492147,0,100,3.0,2,0.2834981383152766
2.66,0.1046628598272375,98.826395638257,0,100,3.0,2,0.42230486412390095
2.665,0.1320831047748631,106.95895384922622,0,100,3.0,2,0.5833456207767568
2.67,0.16303381314489318,115.23602411394728,0,100,3.0,2,0.7472480022563818
2.675,0.19682662652900276,122.32971667135199,0,100,3.0,2,0.8877171618089502
2.68,0.23241585813229,126.89775582948093,0,100,3.0,2,0.9781733827619986
2.685,0.26842527782774417,128.0,0,100,3.0,2,1.0
2.69,0.30321927900592993,125.42125272540896,0,100,3.0,2,0.9489356975328508
2.695,0.3350163137995362,119.74965133212939,0,100,3.0,2,0.8366267590520671
2.7,0.3620352400956416,112.17257946470455,0,100,3.0,2,0.6865857319743476
2.705,0.3826586036805073,104.08785511981466,0,100,3.0,2,0.5264921805903894
2.71,0.39559233134833227,96.70488803956961,0,100,3.0,2,0.38029481266474474
2.715,0.4,90.78889417401182,0,100,3.0,2,0.2631464192873627
2.72,0.39559233134833227,86.60772759605685,0,100,3.0,2,0.18035104150607617
2.725,0.3826586036805073,84.04089578195409,0,100,3.0,2,0.12952268875156617
2.73,0.3620352400956416,82.75786879881116,0,100,3.0,2,0.10411621383784475
2.735,0.3350163137995362,82.37959366821764,0,100,3.0,2,0.09662561719242846
2.74,0.3032192790059296,82.57856812118584,0,100,3.0,2,0.1005657053700166
2.745,0.26842527782774417,83.11531036543767,0,100,3.0,2,0.11119426466213198
2.75,0.23241585813229,83.83263983129649,0,100,3.0,2,0.12539880854052454
2.755,0.19682662652900276,84.63250912217958,0,100,3.0,2,0.14123780439959574
2.76,0.16303381314489318,85.45226040314074,0,100,3.0,2,0.1574705030324899
2.765,0.13208310477486307,86.2475629773933,0,100,3.0,2,0.1732190688592733
2.77,0.10466285982723562,86.98281595132833,0,100,3.0,2,0.18777853368966999
2.775,0.08111733445917907,87.62707318852279,0,100,3.0,2,0.20053610274302547
2.78,0.06149084917398798,88.15320332098976,0,100,3.0,2,0.21095452120771804
2.785,0.04559141333598128,88.5385782151131,0,100,3.0,2,0.21858570722996248
2.79,0.03306217087257399,88.76624892522591,0,100,3.0,2,0.22309403812328532
2.795,0.02345067901074276,88.82603771663241,0,100,3.0,2,0.22427797458678045
2.8,0.016268788896435526,88.71524935893723,0,100,3.0,2,0.22208414572152926
2.805,0.011039026374860051,88.43886075670979,0,100,3.0,2,0.2166111040932631
2.81,0.007326255555493689,88.00914720955005,0,100,3.0,2,0.20810192494158516
2.815,0.0047556414315231815,87.44477763798974,0,100,3.0,2,0.19692628986118307
2.82,0.0030193390635632803,86.76946988444872,0,100,3.0,2,0.18355385909799454
2.825,0.001874953127946523,86.0103405328122,0,100,3.0,2,0.16852159470915234
2.83,0.0011387927410965778,85.1961087935566,0,100,3.0,2,0.15239819393181395
2.835,0.0006765107634274089,84.35531914558466,0,100,3.0,2,0.13574889397197343
2.84,0.00039307957404427924,83.51473332893123,0,100,3.0,2,0.11910363027586592
2.845,0.00022338910511776318,82.69801221580293,0,100,3.0,2,0.10293093496639472
2.85,0.00012417073320013317,81.92476728085217,0,100,3.0,2,0.08761915407628051
2.855,6.750753468904987e-05,81.2100160794701,0,100,3.0,2,0.07346566494000187
2.86,3.5897234866245036e-05,80.56403251225963,0,100,3.0,2,0.06067391113385405
2.865,1.8670050400879738e-05,79.99254590939884,0,100,3.0,2,0.04935734474057114
2.87,9.497421874143672e-06,79.49721667177356,0,100,3.0,2,0.039548844985615
2.875,4.725434140340885e-06,79.07630197143015,0,100,3.0,2,0.031213900424359505
2.88,2.299606063738814e-06,78.72542256815419,0,100,3.0,2,0.024265793428795777
2.885,1.0945633976635486e-06,78.43834933264405,0,100,3.0,2,0.018581174903842604
2.89,5.095703414287532e-07,78.20774277436361,0,100,3.0,2,0.01401470840323979
2.895,2.3202944964797243e-07,78.02579755035103,0,100,3.0,2,0.010411832680218405
2.9,1.0333746954038608e-07,77.88476352268945,0,100,3.0,2,0.007619079657216909
2.905,4.501406988770349e-08,77.77733293361308,0,100,3.0,2,0.005491741259664978
2.91,0.0,77.69689796089891,0,100,3.0,2,0.0038989695227506687
2.915,0.0,77.63769342762592,0,100,3.0,2,0.0027266025272459243
2.92,0.0,77.59484565128201,0,100,3.0,2,0.0018781317085547404
2.925,0.0,77.56435078582085,0,100,3.0,2,0.0012742729865514734
2.93,0.0,77.54300535190977,0,100,3.0,2,0.0008515911269261333
2.935,0.0,77.52830892491497,0,100,3.0,2,0.0005605727705934027
2.94,0.0,77.5183550878223,0,100,3.0,2,0.0003634670855901034
2.945,0.0,77.51172254143796,0,100,3.0,2,0.0002321295334249863
2.95,0.0,77.50737427460564,0,100,3.0,2,0.00014602523971560832
2.955,0.0,77.50456929349846,0,100,3.0,2,9.04810593755032e-05
2.96,0.0,77.5027887592473,0,100,3.0,2,5.522295539198113e-05
2.965,0.0,77.50167650638357,0,100,3.0,2,3.319814620940318e-05
2.97,0.0,77.50099273108047,0,100,3.0,2,1.9658041197479378e-05
2.975,0.0,77.50057901557518,0,100,3.0,2,1.1465654954136962e-05
2.98,0.0,77.50033264507117,0,100,3.0,2,6.587031112242738e-06
2.985,0.0,77.50018823663869,0,100,3.0,2,3.727458191926218e-06
2.99,0.0,77.50010492028098,0,100,3.0,2,2.0776293262437016e-06
2.995,0.0,77.50005760324511,0,100,3.0,2,1.1406583190242906e-06
3.0,0.0,77.50003115061858,0,100,3.0,2,6.168439323245015e-07
3.005,0.0,77.50001659275955,0,100,3.0,2,3.285694960465149e-07
3.01,0.001684486749771458,77.5000087056817,0,100,3.0,2,1.7238973650999488e-07
3.015,0.00456624331333666,77.50000449903288,0,100,3.0,2,8.908976006201592e-08
3.02,0.011079731271581421,77.50000229017026,0,100,3.0,2,4.5349906096618887e-08
3.025,0.024064571490409,77.5000011482821,0,100,3.0,2,2.2738259310631967e-08
3.03,0.046784906529573234,77.50000056710259,0,100,3.0,2,1.1229754235419834e-08
3.035,0.08141644351188804,77.50000027587154,0,100,3.0,2,5.4628028217596484e-09
3.04,0.12682276464025305,77.50000013218568,0,100,3.0,2,2.617538133437289e-09
3.045,0.1768320708657512,77.500000062387,0,100,3.0,2,1.235386182790787e-09
3.05,0.22070063230473494,77.50000002900254,0,100,3.0,2,5.743076333529454e-10
3.055,0.24656126505113576,77.50000001328037,0,100,3.0,2,2.629776352676183e-10
3.06,0.24656126505724016,77.50000000598986,0,100,3.0,2,1.1861110993273127e-10
3.065,0.220700632329898,77.50000000266107,0,100,3.0,2,5.2694412090096365e-11
3.07,0.17683207093748562,77.50000000116447,0,100,3.0,2,2.3058729843031337e-11
3.075,0.12682276483597799,77.50000000050191,0,100,3.0,2,9.938874805667714e-12
3.08,0.08141644409447898,77.50000000021309,0,100,3.0,2,4.219638939692159e-12
3.085,0.04678490952598309,77.50000000008912,0,100,3.0,2,1.7646786122580548e-12
3.09,0.024064605020532023,77.5000000000367,0,100,3.0,2,7.268641134528074e-13
3.095,0.011080171739334697,77.5000000000149,0,100,3.0,2,2.949104107234e-13
3.1,0.004571212771509492,77.50000000000595,0,100,3.0,2,1.1790788367662653e-13
3.105,0.0017299316936037438,77.50000000000234,0,100,3.0,2,4.6431505505115455e-14
3.11,0.0008899431850697582,77.50000000000091,0,100,3.0,2,1.800979607471145e-14
3.115,0.002128806368910263,77.50000000000034,0,100,3.0,2,6.7536735280167935e-15
3.12,0.009309664818487698,77.50000000000013,0,100,3.0,2,2.5326275730062976e-15
3.125,0.03503263543368747,77.50000000000004,0,100,3.0,2,8.442091910020992e-16
3.13,0.10606267793605692,77.50000000000001,0,100,3.0,2,2.814030636673664e-16
3.135,0.25734927343160535,77.5,0,100,3.0,2,0.0
3.14,0.5003202479539708,77.5,0,100,3.0,2,0.0
3.145,0.7793067891790435,77.5,0,100,3.0,2,0.0
3.15,0.9720477407234077,77.5000029632167,1,100,3.0,2,5.867755844249559e-08
3.155,0.967267334488097,77.50000682291645,0,100,3.0,2,1.3510725637496592e-07
3.16,0.7505869905515209,77.50001756024393,0,100,3.0,2,3.4772760262841426e-07
3.165,0.4028369574773956,77.50005342195217,0,100,3.0,2,1.0578604390880938e-06
3.17,0.04553881263121314,77.50018840392086,0,100,3.0,2,3.7307707100803828e-06
3.175,-0.189138810908105,77.50070967490346,0,100,3.0,2,1.4052968385378857e-05
3.18,-0.22868072635956738,77.50264736798302,0,100,3.0,2,5.242312837655692e-05
3.185,-0.14104670682394166,77.50936430658398,0,100,3.0,2,0.00018543181354407307
3.19,-0.051158381651102834,77.53076934741445,0,100,3.0,2,0.0006092940082069027
3.195,-0.008206426846427752,77.59306177469023,0,100,3.0,2,0.0018428074196084581
3.2,0.005350271385530505,77.75802676786665,0,100,3.0,2,0.005109440947854515
3.205,0.01084668799215426,78.15461689924777,0,100,3.0,2,0.012962710876193472
3.21,0.016256859896386415,79.01828265856908,0,100,3.0,2,0.030065003139981734
3.215,0.02345021205790711,80.71788402888605,0,100,3.0,2,0.06372047581952568
3.22,0.0330621597308209,83.73079902637203,0,100,3.0,2,0.12338215893805991
3.225,0.04559141319943196,88.52107119930265,0,100,3.0,2,0.2182390336495575
3.23,0.06149084917446989,95.30690819667116,0,100,3.0,2,0.3526120434984388
3.235,0.08111733445924295,103.7805137153438,0,100,3.0,2,0.5204062121850258
3.24,0.1046628598272375,112.93009024750643,0,100,3.0,2,0.7015859454951768
3.245,0.1320831047748631,121.13525691684497,0,100,3.0,2,0.8640644934028706
3.25,0.16303381314489318,126.6019505798869,0,100,3.0,2,0.9723158530670674
3.255,0.19682662652900276,128.0,0,100,3.0,2,1.0
3.26,0.23241585813229,124.99911850064926,0,100,3.0,2,0.9405766039732527
3.265,0.26842527782774417,118.41082419885984,0,100,3.0,2,0.8101153306704919
3.27,0.30321927900592993,109.85508918464754,0,100,3.0,2,0.6406948353395553
3.275,0.3350163137995362,101.13977923732722,0,100,3.0,2,0.4681144403431132
3.28,0.3620352400956416,93.67740219718712,0,100,3.0,2,0.3203445979641014
3.285,0.3826586036805073,88.18807433450232,0,100,3.0,2,0.21164503632677856
3.29,0.39559233134833227,84.73520644729146,0,100,3.0,2,0.14327141479785072
3.295,0.4,82.96744827784511,0,100,3.0,2,0.1082663025315863
3.3,0.39559233134833227,82.39155633242602,0,100,3.0,2,0.09686250163219842
3.305,0.3826586036805073,82.55988591100417,0,100,3.0,2,0.10019576061394402
3.31,0.3620352400956416,83.1463378415175,0,100,3.0,2,0.11180867012905926
3.315,0.3350163137995362,83.94360114320315,0,100,3.0,2,0.1275960622416466
3.32,0.3032192790059296,84.8277522116186,0,100,3.0,2,0.14510400419046737
3.325,0.26842527782774417,85.72195777553705,0,100,3.0,2,0.1628110450601396
3.33,0.23241585813229,86.57191545419312,0,100,3.0,2,0.17964189018204194
3.335,0.19682662652900276,87.33344446152883,0,100,3.0,2,0.19472167250552133
3.34,0.16303381314489318,87.96825352116706,0,100,3.0,2,0.20729214893400114
3.345,0.13208310477486307,88.44394081009204,0,100,3.0,2,0.21671169920974345
3.35,0.10466285982723562,88.73561558960037,0,100,3.0,2,0.22248743741782914
3.355,0.08111733445917907,88.82770800558913,0,100,3.0,2,0.22431104961562634
3.36,0.06149084917398798,88.71524935893723,0,100,3.0,2,0.22208414572152926
3.365,0.04559141333598128,88.40429210697437,0,100,3.0,2,0.21592657637573004
3.37,0.03306217087257399,87.9113648010271,0,100,3.0,2,0.2061656396242991
3.375,0.02345067901074276,87.26201550499496,0,100,3.0,2,0.19330723772267253
3.38,0.016268788896435526,86.48861883511692,0,100,3.0,2,0.17799245218053314
3.385,0.011039026374860051,85.62770772453368,0,100,3.0,2,0.1609447074165085
3.39,0.007326255555493689,84.71713506982503,0,100,3.0,2,0.14291356573910957
3.395,0.0047556414315231815,83.79336949573046,0,100,3.0,2,0.12462117813327643
3.4,0.0030193390635632803,82.88918720853592,0,100,3.0,2,0.10671657838684981
3.405,0.001874953127946523,82.03194835275565,0,100,3.0,2,0.08974155153971582
3.41,0.0011387927410965778,81.24255572514794,0,100,3.0,2,0.0741100143593651
3.415,0.0006765107634274089,80.53510165291061,0,100,3.0,2,0.06010102282991311
3.42,0.00039307957404427924,79.91712911156813,0,100,3.0,2,0.047863942803329305
3.425,0.00022338910511776318,79.39037558157813,0,100,3.0,2,0.03743317983323023
3.43,0.00012417073320013317,78.95183743607636,0,100,3.0,2,0.028749256159927926
3.435,6.750753468904987e-05,78.59498841544391,0,100,3.0,2,0.021682938919681337
3.44,3.5897234866245036e-05,78.31100344773567,0,100,3.0,2,0.016059474212587566
3.445,1.8670050400879738e-05,78.0898716426395,0,100,3.0,2,0.011680626586920675
3.45,9.497421874143672e-06,77.92132184618897,0,100,3.0,2,0.008343006855227205
3.455,4.725434140340885e-06,77.79552354015783,0,100,3.0,2,0.005851951290254073
3.46,2.299606063738814e-06,77.70355971062563,0,100,3.0,2,0.00403088535892329
3.465,1.0945633976635486e-06,77.63769342762592,0,100,3.0,2,0.0027266025272459243
3.47,5.095703414287532e-07,77.59146527391141,0,100,3.0,2,0.001811193542800205
3.475,2.3202944964797243e-07,77.55966517374333,0,100,3.0,2,0.0011814885889767574
3.48,1.0333746954038608e-07,77.53822145556238,0,100,3.0,2,0.0007568605061857226
3.485,4.501406988770349e-08,77.52404446821832,0,100,3.0,2,0.00047612808353110806
3.49,0.0,77.51485404628625,0,100,3.0,2,0.0002941395304207059
3.495,0.0,77.50901147768072,0,100,3.0,2,0.00017844510258842634
3.5,0.0,77.5053686969771,0,100,3.0,2,0.00010631083122971762
3.505,0.0,77.5031409672966,0,100,3.0,2,6.2197372209942e-05
3.51,0.0,77.50180459429171,0,100,3.0,2,3.57345404299534e-05
3.515,0.0,77.50101816317644,0,100,3.0,2,2.016164705821103e-05
3.52,0.0,77.50056412693317,0,100,3.0,2,1.1170830359810455e-05
3.525,0.0,77.50030694313577,0,100,3.0,2,6.078081896410565e-06
3.53,0.0,77.50016400634816,0,100,3.0,2,3.2476504585621016e-06
3.535,0.0,77.5000860567684,0,100,3.0,2,1.7040944236790586e-06
3.54,0.001684486749771458,77.50004434361045,0,100,3.0,2,8.780912961324562e-07
3.545,0.00456624331333666,77.50002243875255,0,100,3.0,2,4.443317337036476e-07
3.55,0.011079731271581421,77.50001115033744,0,100,3.0,2,2.207987612415885e-07
3.555,0.024064571490409,77.50000544125342,0,100,3.0,2,1.0774759249837342e-07
3.56,0.046784906529573234,77.50000260754337,0,100,3.0,2,5.163452208375254e-08
3.565,0.08141644351188804,77.50000122711641,0,100,3.0,2,2.42993349270409e-08
3.57,0.12682276464025305,77.50000056710259,0,100,3.0,2,1.1229754235419834e-08
3.575,0.1768320708657512,77.50000025737073,0,100,3.0,2,5.096450082635441e-09
3.58,0.22070063230473494,77.50000011470392,0,100,3.0,2,2.271364808008668e-09
3.585,0.24656126505113576,77.50000005020178,0,100,3.0,2,9.940945932216307e-10
3.59,0.24656126505724016,77.50000002157653,0,100,3.0,2,4.2725792980599007e-10
3.595,0.220700632329898,77.5000000091068,0,100,3.0,2,1.8033265090221308e-10
3.6,0.17683207093748562,77.5000000037746,0,100,3.0,2,7.474459335294387e-11
3.605,0.12682276483597799,77.50000000153638,0,100,3.0,2,3.042332942226998e-11
3.61,0.08141644409447898,77.50000000061411,0,100,3.0,2,1.2160551993321572e-11
3.615,0.04678490952598309,77.50000000024106,0,100,3.0,3,4.7734401689895364e-12
3.62,0.024064605020532023,77.50000000009292,0,100,3.0,3,1.840094633320909e-12
3.625,0.011080171739334697,77.50000000003517,0,100,3.0,3,6.964725825767319e-13
3.63,0.004571212771509492,77.50000000001307,0,100,3.0,3,2.588908185739771e-13
3.635,0.0017299316936037438,77.50000000000477,0,100,3.0,3,9.455142939223511e-14
3.64,0.0008899431850697582,77.5000000000017,0,100,3.0,3,3.376836764008397e-14
3.645,0.002128806368910263,77.5000000000006,0,100,3.0,3,1.1818928674029389e-14
3.65,0.009309664818487698,77.50000000000021,0,100,3.0,3,4.221045955010496e-15
3.655,0.03503263543368747,77.50000000000007,0,100,3.0,3,1.4070153183368321e-15
3.66,0.10606267793605692,77.50000000000003,0,100,3.0,3,5.628061273347328e-16
3.665,0.25734927343160535,77.5,0,100,3.0,3,0.0
3.67,0.5003202479539708,77.5,0,100,3.0,3,0.0
3.675,0.7793067891790435,77.5,0,100,3.0,3,0.0
3.68,0.9720477407234077,77.50000298257781,1,100,3.0,3,5.9060946760288096e-08
3.685,0.967267334488097,77.50000698562181,0,100,3.0,3,1.3832914473283328e-07
3.69,0.7505869905515209,77.50001839468638,0,100,3.0,3,3.642512154166782e-07
3.695,0.4028369574773956,77.50005766999934,0,100,3.0,3,1.1419801848709954e-06
3.7,0.04553881263121314,77.50020995712008,0,100,3.0,3,4.157566734204353e-06
3.705,-0.189138810908105,77.50081280880359,0,100,3.0,3,1.6095223833415298e-05
3.71,-0.22868072635956738,77.503097351455,0,100,3.0,3,6.133369217815863e-05
3.715,-0.14104670682394166,77.51113090624347,0,100,3.0,3,0.00022041398501912253
3.72,-0.051158381651102834,77.53698570626372,0,100,3.0,3,0.0007323902230439779
3.725,-0.008206426846427752,77.61265550495322,0,100,3.0,3,0.0022308020782816694
3.73,0.005350271385530505,77.81335454355643,0,100,3.0,3,0.006205040466463934
3.735,0.01084668799215426,78.2945754104132,0,100,3.0,3,0.015734166542835687
3.74,0.016256859896386415,79.33525192393353,0,100,3.0,3,0.036341622256109436
3.745,0.02345021205790711,81.35961530766114,0,100,3.0,3,0.07642802589428009
3.75,0.0330621597308209,84.88912272221204,0,100,3.0,3,0.14631926182598093
3.755,0.04559141319943196,90.37654399373201,0,100,3.0,3,0.25498106918281216
3.76,0.06149084917446989,97.92423792213376,0,100,3.0,3,0.40444035489373775
3.765,0.08111733445924295,106.98718963572514,0,100,3.0,3,0.5839047452618841
3.77,0.1046628598272375,116.25086790845694,0,100,3.0,3,0.7673439189793453
3.775,0.1320831047748631,123.85923787688145,0,100,3.0,3,0.918004710433296
3.78,0.16303381314489318,128.0,0,100,3.0,3,1.0
3.785,0.19682662652900276,127.61098502595775,0,100,3.0,3,0.9922967331872821
3.79,0.23241585813229,122.83587158770212,0,100,3.0,3,0.8977400314396459
3.795,0.26842527782774417,114.96520763494516,0,100,3.0,3,0.7418852997018843
3.8,0.30321927900592993,105.89752443347074,0,100,3.0,3,0.562327216504371
3.805,0.3350163137995362,97.4283723807234,0,100,3.0,3,0.39462123526184956
3.81,0.3620352400956416,90.72827099469485,0,100,3.0,3,0.2619459602909872
3.815,0.3826586036805073,86.19634780611744,0,100,3.0,3,0.17220490705183059
3.82,0.39559233134833227,83.63586300786153,0,100,3.0,3,0.12150223777943625
3.825,0.4,82.56052605964184,0,100,3.0,3,0.10020843682459098
3.83,0.39559233134833227,82.45518590911567,0,100,3.0,3,0.09812249324981524
3.835,0.3826586036805073,82.9135053462967,0,100,3.0,3,0.10719812566924163
3.84,0.3620352400956416,83.66619963054956,0,100,3.0,3,0.12210296298117933
3.845,0.3350163137995362,84.55142388335696,0,100,3.0,3,0.13963215610607843
3.85,0.3032192790059296,85.47238297465216,0,100,3.0,3,0.15786896979509235
3.855,0.26842527782774417,86.36478766196998,0,100,3.0,3,0.17554034974197988
3.86,0.23241585813229,87.17876238495688,0,100,3.0,3,0.1916586610882551
3.865,0.19682662652900276,87.87166435112398,0,100,3.0,3,0.205379492101465
3.87,0.16303381314489318,88.40698222909897,0,100,3.0,3,0.21597984612077173
3.875,0.13208310477486307,88.75580649977894,0,100,3.0,3,0.22288725742136517
3.88,0.10466285982723562,88.89887430140394,0,100,3.0,3,0.22572028319611753
3.885,0.08111733445917907,88.82817993521967,0,100,3.0,3,0.22432039475682505
3.89,0.06149084917398798,88.54767901408137,0,100,3.0,3,0.21876592107091816
3.895,0.04559141333598128,88.07291340431424,0,100,3.0,3,0.20936462186760862
3.9,0.03306217087257399,87.42958320393963,0,100,3.0,3,0.19662540997900255
3.905,0.02345067901074276,86.65124282568554,0,100,3.0,3,0.1812127292214959
3.91,0.016268788896435526,85.77640730681179,0,100,3.0,3,0.1638892536002335
3.915,0.011039026374860051,84.8454151685361,0,100,3.0,3,0.14545376571358629
3.92,0.007326255555493689,83.8974007286156,0,100,3.0,3,0.12668120254684345
3.925,0.0047556414315231815,82.96768491225848,0,100,3.0,3,0.108270988361554
3.93,0.0030193390635632803,82.08581065794073,0,100,3.0,3,0.09080813184041042
3.935,0.001874953127946523,81.27434395854696,0,100,3.0,3,0.07473948432766267
3.94,0.0011387927410965778,80.54845330467741,0,100,3.0,3,0.060365411973810075
3.945,0.0006765107634274089,79.91618583984749,0,100,3.0,3,0.047845264155395764
3.95,0.00039307957404427924,79.37929015460902,0,100,3.0,3,0.03721366642790146
3.955,0.00022338910511776318,78.93439927898388,0,100,3.0,3,0.028403946118492576
3.96,0.00012417073320013317,78.57438266865057,0,100,3.0,3,0.021274904329714284
3.965,6.750753468904987e-05,78.28969728617166,0,100,3.0,3,0.01563757002320117
3.97,3.5897234866245036e-05,78.06960660042824,0,100,3.0,3,0.011279338622341472
3.975,1.8670050400879738e-05,77.90318289291574,0,100,3.0,3,0.007983819661697764
3.98,9.497421874143672e-06,77.78005407488197,0,100,3.0,3,0.005545625245187608
3.985,4.725434140340885e-06,77.69089493772672,0,100,3.0,3,0.0037800977767668284
3.99,2.299606063738814e-06,77.62769081034563,0,100,3.0,3,0.002528530897933197
3.995,1.0945633976635486e-06,77.58381805725054,0,100,3.0,3,0.0016597635099116707
4.0,5.095703414287532e-07,77.55399185562284,0,100,3.0,3,0.0010691456558978225
4.005,2.3202944964797243e-07,77.53412963416547,0,100,3.0,3,0.0006758343399102353
4.01,1.0333746954038608e-07,77.52117130985577,0,100,3.0,3,0.0004192338585301734
4.015,4.501406988770349e-08,77.51288773328321,0,100,3.0,3,0.0002552026392714372
4.02,0.0,77.50769871188156,0,100,3.0,3,0.00015244974022890023
4.025,0.0,77.5045130724965,0,100,3.0,3,8.936777220779138e-05
4.03,0.0,77.50259620671603,0,100,3.0,3,5.141003398089107e-05
4.035,0.0,77.50146561177017,0,100,3.0,3,2.9022015250928793e-05
4.04,0.0,77.50081191643977,0,100,3.0,3,1.6077553262824374e-05
4.045,0.0,77.50044138385367,0,100,3.0,3,8.740274330083333e-06
4.05,0.0,77.500235469285,0,100,3.0,3,4.662758118850587e-06
4.055,0.0,77.5001232721027,0,100,3.0,3,2.4410317365945417e-06
4.06,0.001684486749771458,77.50006332979159,0,100,3.0,3,1.2540552789475738e-06
4.065,0.00456624331333666,77.50003192743502,0,100,3.0,3,6.322264359913797e-07
4.07,0.011079731271581421,77.50001579547595,0,100,3.0,3,3.1278170189859274e-07
4.075,0.024064571490409,77.50000766856529,0,100,3.0,3,1.518527779911766e-07
4.08,0.046784906529573234,77.50000365349266,0,100,3.0,3,7.234638920942082e-08
4.085,0.08141644351188804,77.50000170810699,0,100,3.0,3,3.382390084628034e-08
4.09,0.12682276464025305,77.50000078367253,0,100,3.0,3,1.55182679819599e-08
4.095,0.1768320708657512,77.50000035283112,0,100,3.0,3,6.986754901800391e-09
4.1,0.22070063230473494,77.5000001558877,0,100,3.0,3,3.086885238072943e-09
4.105,0.24656126505113576,77.50000006758799,0,100,3.0,3,1.3383760458532154e-09
4.11,0.24656126505724016,77.50000002875676,0,100,3.0,3,5.694407673668183e-10
4.115,0.220700632329898,77.50000001200668,0,100,3.0,3,2.377560414772395e-10
4.12,0.17683207093748562,77.50000000491947,0,100,3.0,3,9.74152683711779e-11
4.125,0.12682276483597799,77.50000000197801,0,100,3.0,3,3.916849243186073e-11
4.13,0.08141644409447898,77.50000000078046,0,100,3.0,3,1.5454656256611765e-11
4.135,0.04678490952598309,77.5000000003022,0,100,3.0,3,5.9840361488865464e-12
4.14,0.024064605020532023,77.50000000011482,0,100,3.0,3,2.2737367544323206e-12
4.145,0.011080171739334697,77.50000000004282,0,100,3.0,3,8.47867430829775e-13
4.15,0.004571212771509492,77.50000000001566,0,100,3.0,3,3.101061761614378e-13
4.155,0.0017299316936037438,77.50000000000563,0,100,3.0,3,1.114356132122771e-13
4.16,0.0008899431850697582,77.50000000000198,0,100,3.0,3,3.911502584976393e-14
4.165,0.002128806368910263,77.50000000000068,0,100,3.0,3,1.3507347056033587e-14
4.17,0.009309664818487698,77.50000000000023,0,100,3.0,3,4.502449018677863e-15
4.175,0.03503263543368747,77.50000000000007,0,100,3.0,3,1.4070153183368321e-15
4.18,0.10606267793605692,77.50000000000003,0,100,3.0,3,5.628061273347328e-16
4.185,0.25734927343160535,77.50000000000001,0,100,3.0,3,2.814030636673664e-16
4.19,0.5003202479539708,77.5,0,100,3.0,3,0.0
4.195,0.7793067891790435,77.5,0,100,3.0,3,0.0
4.2,0.9720477407234077,77.50000295858096,1,100,3.0,3,5.85857616676936e-08
4.205,0.967267334488097,77.50000649780915,0,100,3.0,3,1.2866948817744662e-07
4.21,0.7505869905515209,77.50001571079831,0,100,3.0,3,3.111049170006436e-07
4.215,0.4028369574773956,77.50004401685699,0,100,3.0,3,8.716209304854448e-07
4.22,0.04553881263121314,77.50014199796655,0,100,3.0,3,2.8118409218087877e-06
4.225,-0.189138810908105,77.50049432191162,0,100,3.0,3,9.7885527052898e-06
4.23,-0.22868072635956738,77.50173211644027,0,100,3.0,3,3.42993354508107e-05
4.235,-0.14104670682394166,77.50584288582245,0,100,3.0,3,0.00011570070935536563
4.24,-0.051158381651102834,77.51854730297484,0,100,3.0,3,0.00036727332623441534
4.245,-0.008206426846427752,77.55481496280055,0,100,3.0,3,0.001085444807931663
4.25,0.005350271385530505,77.65008419708057,0,100,3.0,3,0.0029719642986252228
4.255,0.01084668799215426,77.87981851286148,0,100,3.0,3,0.00752115867052428
4.26,0.016256859896386415,78.38742298606793,0,100,3.0,3,0.017572732397384796
4.265,0.02345021205790711,79.41315942805718,0,100,3.0,3,0.03788434511004326
4.27,0.0330621597308209,81.30460163111171,0,100,3.0,3,0.0753386461606279
4.275,0.04559141319943196,84.47809489490693,0,100,3.0,3,0.1381800969288501
4.28,0.06149084917446989,89.30317826768169,0,100,3.0,3,0.23372630233033045
4.285,0.08111733445924295,95.91109716494718,0,100,3.0,3,0.36457618148410254
4.29,0.1046628598272375,103.98360250134391,0,100,3.0,3,0.5244277723038397
4.295,0.1320831047748631,112.63196549089727,0,100,3.0,3,0.6956824849682628
4.3,0.16303381314489318,120.48176915990015,0,100,3.0,3,0.851124141780201
4.305,0.19682662652900276,126.00411814452141,0,100,3.0,3,0.960477587020226
4.31,0.23241585813229,128.0,0,100,3.0,3,1.0
4.315,0.26842527782774417,126.03166825490115,0,100,3.0,3,0.9610231337604188
4.32,0.30321927900592993,120.59024835370354,0,100,3.0,3,0.8532722446277929
4.325,0.3350163137995362,112.91318697147013,0,100,3.0,3,0.7012512271578243
4.33,0.3620352400956416,104.54533238728061,0,100,3.0,3,0.5355511363817943
4.335,0.3826586036805073,96.85710937740994,0,100,3.0,3,0.38330909658237505
4.34,0.39559233134833227,90.72270386050883,0,100,3.0,3,0.2618357200100758
4.345,0.4,86.44535081746378,0,100,3.0,3,0.17713565975175793
4.35,0.39559233134833227,83.88417312505604,0,100,3.0,3,0.12641926980308985
4.355,0.3826586036805073,82.66571321886003,0,100,3.0,3,0.10229135086851553
4.36,0.3620352400956416,82.37202450792604,0,100,3.0,3,0.09647573283021865
4.365,0.3350163137995362,82.65192834843367,0,100,3.0,3,0.10201838313730041
4.37,0.3032192790059296,83.25634189984378,0,100,3.0,3,0.11398696831373813
4.375,0.26842527782774417,84.0264242558057,0,100,3.0,3,0.12923612387734046
4.38,0.23241585813229,84.86484526486245,0,100,3.0,3,0.1458385200962862
4.385,0.19682662652900276,85.70909511705845,0,100,3.0,3,0.16255633895165253
4.39,0.16303381314489318,86.51374059129739,0,100,3.0,3,0.17848991269895825
4.395,0.13208310477486307,87.24132622835091,0,100,3.0,3,0.19289754907625573
4.4,0.10466285982723562,87.85911768203138,0,100,3.0,3,0.20513104320854222
4.405,0.08111733445917907,88.33897458047528,0,100,3.0,3,0.2146331600094115
4.41,0.06149084917398798,88.65851542478347,0,100,3.0,3,0.22096070148086086
4.415,0.04559141333598128,88.80252600599808,0,100,3.0,3,0.22381239615837772
4.42,0.03306217087257399,88.76406271594287,0,100,3.0,3,0.22305074685035386
4.425,0.02345067901074276,88.5449807473852,0,100,3.0,3,0.21871249004723162
4.43,0.016268788896435526,88.15577906783629,0,100,3.0,3,0.21100552609576817
4.435,0.011039026374860051,87.61476482243962,0,100,3.0,3,0.20029237272157674
4.44,0.007326255555493689,86.94662571979583,0,100,3.0,3,0.18706189544150165
4.445,0.0047556414315231815,86.18056443389439,0,100,3.0,3,0.17189236502761168
4.45,0.0030193390635632803,85.34819090517139,0,100,3.0,3,0.15540972089448302
4.455,0.001874953127946523,84.48138340308783,0,100,3.0,3,0.13824521590272937
4.46,0.0011387927410965778,83.61031721315373,0,100,3.0,3,0.1209963804584898
4.465,0.0006765107634274089,82.7618245365926,0,100,3.0,3,0.10419454527906136
4.47,0.00039307957404427924,81.9581974975489,0,100,3.0,3,0.08828113856532464
4.475,0.00022338910511776318,81.21648669901883,0,100,3.0,3,0.07359379602017485
4.48,0.00012417073320013317,80.54828942211552,0,100,3.0,3,0.06036216677456468
4.485,6.750753468904987e-05,79.95997193468784,0,100,3.0,3,0.04871231553837313
4.49,3.5897234866245036e-05,79.45323475258576,0,100,3.0,3,0.038677915892787275
4.495,1.8670050400879738e-05,79.02591053115628,0,100,3.0,3,0.030216050121906632
4.5,9.497421874143672e-06,78.67288122682059,0,100,3.0,3,0.023225370828130552
4.505,4.725434140340885e-06,78.38701167635604,0,100,3.0,3,0.01756458765061463
4.51,2.299606063738814e-06,78.16001677799984,0,100,3.0,3,0.013069639168313722
4.515,1.0945633976635486e-06,77.98320447949557,0,100,3.0,3,0.009568405534565727
4.52,5.095703414287532e-07,77.84806252373428,0,100,3.0,3,0.0068923272026591076
4.525,2.3202944964797243e-07,77.74667998599702,0,100,3.0,3,0.0048847521979607815
4.53,1.0333746954038608e-07,77.6720128543322,0,100,3.0,3,0.0034061951352909866
4.535,4.501406988770349e-08,77.61801527615162,0,100,3.0,3,0.002336936161418297
4.54,0.0,77.5796646933126,0,100,3.0,3,0.0015775186794573105
4.545,0.0,77.5529107463042,0,100,3.0,3,0.0010477375505783498
4.55,0.0,77.53457579886194,0,100,3.0,3,0.000684669284394789
4.555,0.0,77.52223058524193,0,100,3.0,3,0.00044020960875105396
4.56,0.0,77.51406306247611,0,100,3.0,3,0.00027847648467547634
4.565,0.0,77.50875304685681,0,100,3.0,3,0.00017332766053089986
4.57,0.0,77.50536029803884,0,100,3.0,3,0.00010614451562054735
4.575,0.0,77.50322975038792,0,100,3.0,3,6.395545322606727e-05
4.58,0.0,77.501914693741,0,100,3.0,3,3.791472754455348e-05
4.585,0.0,77.50111681184963,0,100,3.0,3,2.211508613123163e-05
4.59,0.0,77.50064093065815,0,100,3.0,3,1.2691696200995961e-05
4.595,0.0,77.50036190319393,0,100,3.0,3,7.166399879875231e-06
4.6,0.0,77.50020105927997,0,100,3.0,3,3.981371880663213e-06
4.605,0.0,77.50010990214456,0,100,3.0,3,2.1762800902634618e-06
4.61,0.0,77.5000591069498,0,100,3.0,3,1.1704346496180103e-06
4.615,0.0,77.50003127672464,0,100,3.0,3,6.193410820062559e-07
4.62,0.001684486749771458,77.5000162837461,0,100,3.0,3,3.2245041794421114e-07
4.625,0.00456624331333666,77.50000834137632,0,100,3.0,3,1.651757686139006e-07
4.63,0.011079731271581421,77.50000420408458,0,100,3.0,3,8.324919951636469e-08
4.635,0.024064571490409,77.50000208475734,0,100,3.0,3,4.128232358378245e-08
4.64,0.046784906529573234,77.50000101716151,0,100,3.0,3,2.0141812055413483e-08
4.645,0.08141644351188804,77.50000048828643,0,100,3.0,3,9.669038252126268e-09
4.65,0.12682276464025305,77.50000023062678,0,100,3.0,3,4.5668669638034055e-09
4.655,0.1768320708657512,77.50000010717541,0,100,3.0,3,2.1222853441634805e-09
4.66,0.22070063230473494,77.50000004900393,0,100,3.0,3,9.703748475820447e-10
4.665,0.24656126505113576,77.50000002204536,0,100,3.0,3,4.365416982794402e-10
4.67,0.24656126505724016,77.50000000975783,0,100,3.0,3,1.9322428805494247e-10
4.675,0.220700632329898,77.50000000424953,0,100,3.0,3,8.414908374070725e-11
4.68,0.17683207093748562,77.50000000182087,0,100,3.0,3,3.605673735382699e-11
4.685,0.12682276483597799,77.50000000076766,0,100,3.0,3,1.5201112096247465e-11
4.69,0.08141644409447898,77.50000000031842,0,100,3.0,3,6.305398447594679e-12
4.695,0.04678490952598309,77.50000000012996,0,100,3.0,3,2.573431017238066e-12
4.7,0.024064605020532023,77.50000000005218,0,100,3.0,3,1.0333120497865694e-12
4.705,0.011080171739334697,77.50000000002062,0,100,3.0,3,4.0831584538134865e-13
4.71,0.004571212771509492,77.50000000000801,0,100,3.0,3,1.5871132790839464e-13
4.715,0.0017299316936037438,77.50000000000307,0,100,3.0,3,6.078306175215115e-14
4.72,0.0008899431850697582,77.50000000000115,0,100,3.0,3,2.279364815705668e-14
4.725,0.002128806368910263,77.50000000000043,0,100,3.0,3,8.442091910020992e-15
4.73,0.009309664818487698,77.50000000000016,0,100,3.0,3,3.0954337003410305e-15
4.735,0.03503263543368747,77.50000000000006,0,100,3.0,3,1.1256122546694657e-15
4.74,0.10606267793605692,77.50000000000001,0,100,3.0,3,2.814030636673664e-16
4.745,0.25734927343160535,77.5,0,100,3.0,3,0.0
4.75,0.5003202479539708,77.5,0,100,3.0,3,0.0
4.755,0.7793067891790435,77.5,0,100,3.0,3,0.0
4.76,0.9720477407234077,77.50000295860458,1,100,3.0,3,5.8586229359585414e-08
4.765,0.967267334488097,77.50000607194025,0,100,3.0,3,1.2023644056189188e-07
4.77,0.7505869905515209,77.50001345273148,0,100,3.0,3,2.663907223742883e-07
4.775,0.4028369574773956,77.5000335974731,0,100,3.0,3,6.65296497145121e-07
4.78,0.04553881263121314,77.5000952391376,0,100,3.0,3,1.8859235166978084e-06
4.785,-0.189138810908105,77.50029396174413,0,100,3.0,3,5.821024636320949e-06
4.79,-0.22868072635956738,77.50093256649718,0,100,3.0,3,1.8466663310573943e-05
4.795,-0.14104670682394166,77.5029100232732,0,100,3.0,3,5.762422323172278e-05
4.8,-0.051158381651102834,77.50870714352278,0,100,3.0,3,0.00017241868361948757
4.805,-0.008206426846427752,77.5246562773498,0,100,3.0,3,0.00048824311583773423
4.81,0.005350271385530505,77.56565066778992,0,100,3.0,3,0.0013000132235628605
4.815,0.01084668799215426,77.66383990810884,0,100,3.0,3,0.0032443546160166505
4.82,0.016256859896386415,77.88262038992832,0,100,3.0,4,0.007576641384719209
4.825,0.02345021205790711,78.33545183145863,0,100,3.0,4,0.016543600622943112
4.83,0.0330621597308209,79.20484989603223,0,100,3.0,4,0.03375940388182632
4.835,0.04559141319943196,80.75054676642503,0,100,3.0,4,0.06436726270148578
4.84,0.06149084917446989,83.28992906835192,0,100,3.0,4,0.11465206075944404
4.845,0.08111733445924295,87.13394030962314,0,100,3.0,4,0.19077109524006222
4.85,0.1046628598272375,92.47378991953458,0,100,3.0,4,0.2965106914759323
4.855,0.1320831047748631,99.23955414039685,0,100,3.0,4,0.43048622060191777
4.86,0.16303381314489318,106.98246625036123,0,100,3.0,4,0.5838112128784402
4.865,0.19682662652900276,114.8494723141842,0,100,3.0,4,0.7395935111719643
4.87,0.23241585813229,121.70177762100317,0,100,3.0,4,0.8752827251683797
4.875,0.26842527782774417,126.37413972136399,0,100,3.0,4,0.9678047469577027
4.88,0.30321927900592993,128.0,0,100,3.0,4,1.0
4.885,0.3350163137995362,126.27952255457706,0,100,3.0,4,0.9659311396945952
4.89,0.3620352400956416,121.57753056726469,0,100,3.0,4,0.8728223874705879
4.895,0.3826586036805073,114.80819134861454,0,100,3.0,4,0.7387760663091989
4.9,0.39559233134833227,107.1570555269131,0,100,3.0,4,0.5872684262755069
4.905,0.4,99.75682326894582,0,100,3.0,4,0.44072917364249153
4.91,0.39559233134833227,93.437628290086,0,100,3.0,4,0.3155965998036831
4.915,0.3826586036805073,88.6210265304858,0,100,3.0,4,0.2202183471383328
4.92,0.3620352400956416,85.35521064557099,0,100,3.0,4,0.15554872565487113
4.925,0.3350163137995362,83.43676931776182,0,100,3.0,4,0.11755978847053099
4.93,0.3032192790059296,82.55078966163666,0,100,3.0,4,0.1000156368640922
4.935,0.26842527782774417,82.37990978446584,0,100,3.0,4,0.0966318769201156
4.94,0.23241585813229,82.66385053700031,0,100,3.0,4,0.10225446607921415
4.945,0.19682662652900276,83.21572546574443,0,100,3.0,4,0.11318268248998865
4.95,0.16303381314489318,83.91239791841033,0,100,3.0,4,0.12697817660218486
4.955,0.13208310477486307,84.67546318988141,0,100,3.0,4,0.14208837999765173
4.96,0.10466285982723562,85.45331282711224,0,100,3.0,4,0.1574913431111335
4.965,0.08111733445917907,86.20847512306442,0,100,3.0,4,0.17244505194186965
4.97,0.06149084917398798,86.91043201717129,0,100,3.0,4,0.1863451884588374
4.975,0.04559141333598128,87.53247338289246,0,100,3.0,4,0.19866283926519726
4.98,0.03306217087257399,88.0509704560115,0,100,3.0,4,0.20893010803983164
4.985,0.02345067901074276,88.44584531855038,0,100,3.0,4,0.21674941224852243
4.99,0.016268788896435526,88.70146811501344,0,100,3.0,4,0.22181124980224634
4.995,0.011039026374860051,88.80754517288817,0,100,3.0,4,0.2239117856017459
5.0,0.007326255555493689,88.75976200907462,0,100,3.0,4,0.22296558433811128
5.005,0.0047556414315231815,88.56006114259078,0,100,3.0,4,0.21901111173447094
5.01,0.0030193390635632803,88.21650740561338,0,100,3.0,4,0.2122080674378888
5.015,0.001874953127946523,87.74274663539316,0,100,3.0,4,0.20282666604738933
5.02,0.0011387927410965778,87.15710631316468,0,100,3.0,4,0.19122982798345892
5.025,0.0006765107634274089,86.48142019658886,0,100,3.0,4,0.17784990488294766
5.03,0.00039307957404427924,85.73968176817759,0,100,3.0,4,0.16316201521143742
5.035,0.00022338910511776318,84.95664182706211,0,100,3.0,4,0.14765627380321017
5.04,0.00012417073320013317,84.15646337911748,0,100,3.0,4,0.13181115602212837
5.045,6.750753468904987e-05,83.36153323734182,0,100,3.0,4,0.11606996509587757
5.05,3.5897234866245036e-05,82.59150690834363,0,100,3.0,4,0.10082191897710163
5.055,1.8670050400879738e-05,81.86263483969579,0,100,3.0,4,0.08638880870684726
5.06,9.497421874143672e-06,81.18738775969096,0,100,3.0,4,0.07301757939982106
5.065,4.725434140340885e-06,80.57437030471705,0,100,3.0,4,0.06087861989538713
5.07,2.299606063738814e-06,80.02848839135753,0,100,3.0,4,0.0500690770565847
5.075,1.0945633976635486e-06,79.55131885537037,0,100,3.0,4,0.040620175353868686
5.08,5.095703414287532e-07,79.14162062723075,0,100,3.0,4,0.03250733915308417
5.085,2.3202944964797243e-07,78.79592494440962,0,100,3.0,4,0.025661880087319212
5.09,1.0333746954038608e-07,78.50914673365939,0,100,3.0,4,0.019983103636819648
5.095,4.501406988770349e-08,78.2751686651716,0,100,3.0,4,0.015349874557853577
5.1,0.0,78.08736155817212,0,100,3.0,4,0.01163092194400237
5.105,0.0,77.93901792246764,0,100,3.0,4,0.008693424207280032
5.11,0.0,77.82368785280029,0,100,3.0,4,0.0064096604514908995
5.115,0.0,77.73541708275205,0,100,3.0,4,0.004661724410931694
5.12,0.0,77.66889506741865,0,100,3.0,4,0.0033444567805672436
5.125,0.0,77.61952627338034,0,100,3.0,4,0.0023668568986206853
5.13,0.0,77.583440560487,0,100,3.0,4,0.0016522883264753596
5.135,0.0,77.55745905335685,0,100,3.0,4,0.0011378030367693284
5.14,0.0,77.53903077198105,0,100,3.0,4,0.0007728865738821098
5.145,0.0,77.52615310372167,0,100,3.0,4,0.0005178832420132368
5.15,0.0,77.51728648731061,0,100,3.0,4,0.00034230667941809016
5.155,0.0,77.51127087641395,0,100,3.0,4,0.00022318567156327782
5.16,0.0,77.50724896569103,0,100,3.0,4,0.0001435438750699704
5.165,0.0,77.50459898318086,0,100,3.0,4,9.10689738783267e-05
5.17,0.0,77.50287816056776,0,100,3.0,4,5.699327856952082e-05
5.175,0.0,77.50177678810005,0,100,3.0,4,3.518392277317274e-05
5.18,0.0,77.50108199106754,0,100,3.0,4,2.1425565693793897e-05
5.185,0.0,77.5006499487824,0,100,3.0,4,1.2870272918730328e-05
5.19,0.0,77.50038512526845,0,100,3.0,4,7.626242939628661e-06
5.195,0.0,77.50022510871771,0,100,3.0,4,4.457598370580323e-06
5.2,0.0,77.5001297926306,0,100,3.0,4,2.5701511010358426e-06
5.205,0.0,77.50007382019291,0,100,3.0,4,1.4617859982094934e-06
5.21,0.0,77.50004141596045,0,100,3.0,4,8.201180287752583e-07
5.215,0.0,77.50002292069169,0,100,3.0,4,4.5387508299598373e-07
5.22,0.0,77.50001251281783,0,100,3.0,4,2.477785709414651e-07
5.225,0.0,77.50000673829383,0,100,3.0,4,1.334315610696793e-07
5.23,0.001684486749771458,77.50000357941612,0,100,3.0,4,7.087952705732466e-08
5.235,0.00456624331333666,77.50000187560704,0,100,3.0,4,3.714073347221682e-08
5.24,0.011079731271581421,77.50000096948018,0,100,3.0,4,1.919762739096696e-08
5.245,0.024064571490409,77.5000004943146,0,100,3.0,4,9.788408024718646e-09
5.25,0.046784906529573234,77.5000002486196,0,100,3.0,4,4.923160387610695e-09
5.255,0.08141644351188804,77.50000012334874,0,100,3.0,4,2.442549326714119e-09
5.26,0.12682276464025305,77.50000006036726,0,100,3.0,4,1.1953912095609352e-09
5.265,0.1768320708657512,77.5000000291431,0,100,3.0,4,5.770909910556793e-10
5.27,0.22070063230473494,77.50000001387833,0,100,3.0,4,2.748185133806137e-10
5.275,0.24656126505113576,77.50000000651939,0,100,3.0,4,1.290967508911047e-10
5.28,0.24656126505724016,77.50000000302094,0,100,3.0,4,5.982066327440875e-11
5.285,0.220700632329898,77.50000000138085,0,100,3.0,4,2.7343654293494327e-11
5.29,0.17683207093748562,77.5000000006226,0,100,3.0,4,1.2328831025394658e-11
5.295,0.12682276483597799,77.50000000027693,0,100,3.0,4,5.4837015016859696e-12
5.3,0.08141644409447898,77.50000000012149,0,100,3.0,4,2.4057147912923155e-12
5.305,0.04678490952598309,77.50000000005258,0,100,3.0,4,1.0411913355692557e-12
5.31,0.024064605020532023,77.50000000002245,0,100,3.0,4,4.446168405944389e-13
5.315,0.011080171739334697,77.50000000000945,0,100,3.0,4,1.8713303733879865e-13
5.32,0.004571212771509492,77.50000000000392,0,100,3.0,4,7.766724557219314e-14
5.325,0.0017299316936037438,77.5000000000016,0,100,3.0,4,3.179854619441241e-14
5.33,0.0008899431850697582,77.50000000000065,0,100,3.0,4,1.2944540928698855e-14
5.335,0.002128806368910263,77.50000000000026,0,100,3.0,4,5.065255146012595e-15
5.34,0.009309664818487698,77.5000000000001,0,100,3.0,4,1.969821445671565e-15
5.345,0.03503263543368747,77.50000000000004,0,100,3.0,4,8.442091910020992e-16
5.35,0.10606267793605692,77.50000000000001,0,100,3.0,4,2.814030636673664e-16
5.355,0.25734927343160535,77.5,0,100,3.0,4,0.0
5.36,0.5003202479539708,77.5,0,100,3.0,4,0.0
5.365,0.7793067891790435,77.5,0,100,3.0,4,0.0
5.37,0.9720477407234077,77.50000296948818,1,100,3.0,4,5.880174611694102e-08
5.375,0.967267334488097,77.50000569775776,0,100,3.0,4,1.1282688628042625e-07
5.38,0.7505869905515209,77.50001160514543,0,100,3.0,4,2.298048600258169e-07
5.385,0.4028369574773956,77.50002597622895,0,100,3.0,4,5.143807713763392e-07
5.39,0.04553881263121314,77.50006479633647,0,100,3.0,4,1.2830957717655434e-06
5.395,-0.189138810908105,77.50017625577325,0,100,3.0,4,3.4902133317772686e-06
5.4,-0.22868072635956738,77.50050086841989,0,100,3.0,4,9.918186532500516e-06
5.405,-0.14104670682394166,77.50142865589663,0,100,3.0,4,2.829021577488873e-05
5.41,-0.051158381651102834,77.50398157370557,0,100,3.0,4,7.884304367471847e-05
5.415,-0.008206426846427752,77.51067533757195,0,100,3.0,4,0.00021139282320699983
5.42,0.005350271385530505,77.52730884085351,0,100,3.0,4,0.0005407691258120272
5.425,0.01084668799215426,77.56636304281409,0,100,3.0,4,0.0013141196596849329
5.43,0.016256859896386415,77.65284520055016,0,100,3.0,4,0.0030266376346566454
5.435,0.02345021205790711,77.83322987050369,0,100,3.0,4,0.006598611297102698
5.44,0.0330621597308209,78.1872403295472,0,100,3.0,4,0.01360871939697414
5.445,0.04559141319943196,78.84023424224648,0,100,3.0,4,0.026539291925672896
5.45,0.06149084917446989,79.97095670826675,0,100,3.0,4,0.04892983580726247
5.455,0.08111733445924295,81.80632016868279,0,100,3.0,4,0.08527366670658987
5.46,0.1046628598272375,84.59367894710928,0,100,3.0,4,0.14046889004176796
5.465,0.1320831047748631,88.54439663235735,0,100,3.0,4,0.21870092341301678
5.47,0.16303381314489318,93.75204790615024,0,100,3.0,4,0.3218227308148562
5.475,0.19682662652900276,100.10305003439262,0,100,3.0,4,0.44758514919589354
5.48,0.23241585813229,107.21134158829996,0,100,3.0,4,0.588343397788118
5.485,0.26842527782774417,114.41340788288605,0,100,3.0,4,0.7309585719383376
5.49,0.30321927900592993,120.84835205343285,0,100,3.0,4,0.8583832089788682
5.495,0.3350163137995362,125.61961314314837,0,100,3.0,4,0.9528636265969974
5.5,0.3620352400956416,128.0,0,100,3.0,4,1.0
5.505,0.3826586036805073,127.61649189867344,0,100,3.0,4,0.9924057801717514
5.51,0.39559233134833227,124.55056380219376,0,100,3.0,4,0.9316943327167082
5.515,0.4,119.31727660822673,0,100,3.0,4,0.8280648833312224
5.52,0.39559233134833227,112.73085488286033,0,100,3.0,4,0.6976406907497095
5.525,0.3826586036805073,105.70533944720569,0,100,3.0,4,0.5585215732119938
5.53,0.3620352400956416,99.05756588644317,0,100,3.0,4,0.4268824928008549
5.535,0.3350163137995362,93.36977976270926,0,100,3.0,4,0.3142530646081041
5.54,0.3032192790059296,88.93881976923748,0,100,3.0,4,0.2265112825591581
5.545,0.26842527782774417,85.80451228187178,0,100,3.0,4,0.16444578775983723
5.55,0.23241585813229,83.82672655699294,0,100,3.0,4,0.12528171399986016
5.555,0.19682662652900276,82.7748209960611,0,100,3.0,4,0.1044519009121009
5.56,0.16303381314489318,82.40190901663448,0,100,3.0,4,0.09706750527989062
5.565,0.13208310477486307,82.49126872046433,0,100,3.0,4,0.09883700436563037
5.57,0.10466285982723562,82.87544727441968,0,100,3.0,4,0.10644450048355811
5.575,0.08111733445917907,83.4360460880505,0,100,3.0,4,0.11754546709010898
5.58,0.06149084917398798,84.09372294879006,0,100,3.0,4,0.1305687712631695
5.585,0.04559141333598128,84.79583101125908,0,100,3.0,4,0.14447190121305115
5.59,0.03306217087257399,85.5058631950615,0,100,3.0,4,0.15853194445666324
5.595,0.02345067901074276,86.19614522117905,0,100,3.0,4,0.1722008954688921
5.6,0.016268788896435526,86.8436056995559,0,100,3.0,4,0.1850218950407108
5.605,0.011039026374860051,87.42781600360316,0,100,3.0,4,0.19659041591293377
5.61,0.007326255555493689,87.93044648752333,0,100,3.0,4,0.2065434948024421
5.615,0.0047556414315231815,88.33547851565123,0,100,3.0,4,0.2145639310029947
5.62,0.0030193390635632803,88.62973571355158,0,100,3.0,4,0.22039080620894222
5.625,0.001874953127946523,88.80347070164842,0,100,3.0,4,0.22383110300293904
5.63,0.0011387927410965778,88.85085527781466,0,100,3.0,4,0.22476941144187446
5.635,0.0006765107634274089,88.77028929388132,0,100,3.0,4,0.22317404542339245
5.64,0.00039307957404427924,88.56448531910543,0,100,3.0,4,0.21909871919020651
5.645,0.00022338910511776318,88.24031547557608,0,100,3.0,4,0.21267951436784321
5.65,0.00012417073320013317,87.8084299935687,0,100,3.0,4,0.20412732660532068
5.655,6.750753468904987e-05,87.28267622254438,0,100,3.0,4,0.193716360842463
5.66,3.5897234866245036e-05,86.67936206088412,0,100,3.0,4,0.18176954576008153
5.665,1.8670050400879738e-05,86.016418335048,0,100,3.0,4,0.1686419472286733
5.67,9.497421874143672e-06,85.3125199363333,0,100,3.0,4,0.15470336507590698
5.675,4.725434140340885e-06,84.5862253135029,0,100,3.0,4,0.14032129333669097
5.68,2.299606063738814e-06,83.85518857261796,0,100,3.0,4,0.1258453182696626
5.685,1.0945633976635486e-06,83.13548881550771,0,100,3.0,4,0.1115938379308458
5.69,5.095703414287532e-07,82.44110870951447,0,100,3.0,4,0.09784373682206865
5.695,2.3202944964797243e-07,81.78358009436656,0,100,3.0,4,0.08482336820527833
5.7,1.0333746954038608e-07,81.17180019591906,0,100,3.0,4,0.07270891477067448
5.705,4.501406988770349e-08,80.61200908161038,0,100,3.0,4,0.06162394221010656
5.71,0.0,80.10790842175395,0,100,3.0,4,0.05164175092582074
5.715,0.0,79.6608941015899,0,100,3.0,4,0.04278998220970106
5.72,0.0,79.27037104260374,0,100,3.0,4,0.03505685232878697
5.725,0.0,78.93411763673835,0,100,3.0,4,0.028398369044323756
5.73,0.0,78.64866905740534,0,100,3.0,4,0.022745921928818667
5.735,0.0,78.40969275082458,0,100,3.0,4,0.018013717838110406
5.74,0.0,78.21233488198824,0,100,3.0,4,0.01410564122748992
5.745,0.0,78.05152265334826,0,100,3.0,4,0.010921240660361537
5.75,0.0,77.92221354848724,0,100,3.0,4,0.008360664326479908
5.755,0.0,77.81958813058185,0,100,3.0,4,0.006328477833303938
5.76,0.0,77.739187667373,0,100,3.0,4,0.004736389452930742
5.765,0.0,77.67700135526229,0,100,3.0,4,0.0035049773319265607
5.77,0.0,77.62951022741545,0,100,3.0,4,0.002564558958721814
5.775,0.0,77.59369603358714,0,100,3.0,4,0.001855367001725469
5.78,0.0,77.56702364039619,0,100,3.0,4,0.0013272007999244866
5.785,0.0,77.54740503652089,0,100,3.0,4,0.0009387135944729771
5.79,0.0,77.53315206797399,0,100,3.0,4,0.0006564765935442918
5.795,0.0,77.52292379040485,0,100,3.0,4,0.00045393644366031774
5.8,0.0,77.51567299156609,0,100,3.0,4,0.0003103562686354814
5.805,0.0,77.5105951482266,0,100,3.0,4,0.00020980491537820494
5.81,0.0,77.50708193342838,0,100,3.0,4,0.000140236305512498
5.815,0.0,77.50468043597927,0,100,3.0,4,9.268190057955192e-05
5.82,0.0,77.5030585138007,0,100,3.0,4,6.056462971674357e-05
5.825,0.0,77.5019761697444,0,100,3.0,4,3.913207414644369e-05
5.83,0.0,77.5012624893213,0,100,3.0,4,2.4999788540708772e-05
5.835,0.0,77.5007974819221,0,100,3.0,4,1.579172122982491e-05
5.84,0.0,77.5004980852106,0,100,3.0,4,9.863073477118174e-06
5.845,0.0,77.50030759276243,0,100,3.0,4,6.090945790598054e-06
5.85,0.0,77.5001878184466,0,100,3.0,4,3.7191771604968814e-06
5.855,0.0,77.50011339399136,0,100,3.0,4,2.24542557140183e-06
5.86,0.0,77.50006769108984,0,100,3.0,4,1.3404176205776732e-06
5.865,0.0,77.50003995421815,0,100,3.0,4,7.911726366854613e-07
5.87,0.0,77.50002331757771,0,100,3.0,4,4.6173421215862256e-07
5.875,0.0,77.5000134553158,0,100,3.0,4,2.6644189692843153e-07
5.88,0.0,77.5000076770439,0,100,3.0,4,1.5202067121964941e-07
5.885,0.0,77.50000433095647,0,100,3.0,4,8.576151429062322e-08
5.89,0.0,77.5000024158128,0,100,3.0,4,4.7837877254645684e-08
5.895,0.0,77.5000013323932,0,100,3.0,4,2.6384023696286167e-08
5.9,0.001684486749771458,77.50000072659299,0,100,3.0,4,1.4387979933984537e-08
5.905,0.00456624331333666,77.50000039177765,0,100,3.0,4,7.757973203342321e-09
5.91,0.011079731271581421,77.50000020887083,0,100,3.0,4,4.136056038915551e-09
5.915,0.024064571490409,77.50000011010462,0,100,3.0,4,2.180289550661916e-09
5.92,0.046784906529573234,77.50000005738825,0,100,3.0,4,1.1364009667274087e-09
5.925,0.08141644351188804,77.50000002957536,0,100,3.0,4,5.856507094463133e-10
5.93,0.12682276464025305,77.50000001507047,0,100,3.0,4,2.984251349886054e-10
5.935,0.1768320708657512,77.500000007593,0,100,3.0,4,1.5035647094811054e-10
5.94,0.22070063230473494,77.50000000378259,0,100,3.0,4,7.490274187472492e-11
5.945,0.24656126505113576,77.50000000186319,0,100,3.0,4,3.689475567742841e-11
5.95,0.24656126505724016,77.50000000090742,0,100,3.0,4,1.7968711227416016e-11
5.955,0.220700632329898,77.50000000043697,0,100,3.0,4,8.65286280470785e-12
5.96,0.17683207093748562,77.50000000020806,0,100,3.0,4,4.120022255153911e-12
5.965,0.12682276483597799,77.50000000009796,0,100,3.0,4,1.9397113178591565e-12
5.97,0.08141644409447898,77.50000000004559,0,100,3.0,4,9.027410282449114e-13
5.975,0.04678490952598309,77.50000000002099,0,100,3.0,4,4.156323250367002e-13
5.98,0.024064605020532023,77.50000000000955,0,100,3.0,4,1.8910285878447022e-13
5.985,0.011080171739334697,77.50000000000429,0,100,3.0,4,8.498372522754466e-14
5.99,0.004571212771509492,77.5000000000019,0,100,3.0,4,3.77080105314271e-14
5.995,0.0017299316936037438,77.50000000000084,0,100,3.0,4,1.6602780756374617e-14
6.0,0.0008899431850697582,77.50000000000037,0,100,3.0,4,7.316479655351527e-15
6.005,0.002128806368910263,77.50000000000016,0,100,3.0,4,3.0954337003410305e-15
6.01,0.009309664818487698,77.50000000000007,0,100,3.0,4,1.4070153183368321e-15
6.015,0.03503263543368747,77.50000000000003,0,100,3.0,4,5.628061273347328e-16
6.02,0.10606267793605692,77.50000000000001,0,100,3.0,4,2.814030636673664e-16
6.025,0.25734927343160535,77.5,0,100,3.0,5,0.0
6.03,0.5003202479539708,77.5,0,100,3.0,5,0.0
6.035,0.7793067891790435,77.5,0,100,3.0,5,0.0
6.04,0.9720477407234077,77.500002958773,1,100,3.0,5,5.858956426729294e-08
6.045,0.967267334488097,77.50000546428119,0,100,3.0,5,1.0820358787184725e-07
6.05,0.7505869905515209,77.50001062202656,0,100,3.0,5,2.1033715970273502e-07
6.055,0.4028369574773956,77.50002239224668,0,100,3.0,5,4.4341082529361227e-07
6.06,0.04553881263121314,77.50005200199026,0,100,3.0,5,1.02974238129178e-06
6.065,-0.189138810908105,77.50013136979197,0,100,3.0,5,2.6013820192614243e-06
6.07,-0.22868072635956738,77.500348976995,0,100,3.0,5,6.910435544541812e-06
6.075,-0.14104670682394166,77.50094026919814,0,100,3.0,5,1.8619192042361908e-05
6.08,-0.051158381651102834,77.50250156884175,0,100,3.0,5,4.953601666833907e-05
6.085,-0.008206426846427752,77.50646349798603,0,100,3.0,5,0.0001279900591293656
6.09,0.005350271385530505,77.51606687857341,0,100,3.0,5,0.0003181560113546874
6.095,0.01084668799215426,77.53822670841546,0,100,3.0,5,0.0007569645230785114
6.1,0.016256859896386415,77.58680716105046,0,100,3.0,5,0.001718953684167497
6.105,0.02345021205790711,77.68785709154544,0,100,3.0,5,0.003719942406840375
6.11,0.0330621597308209,77.887086691764,0,100,3.0,5,0.007665083005227668
6.115,0.04559141319943196,78.2590727582843,0,100,3.0,5,0.015031143728402068
6.12,0.06149084917446989,78.91621161051839,0,100,3.0,5,0.02804379426769086
6.125,0.08111733445924295,80.01343757456958,0,100,3.0,5,0.04977104108058573
6.13,0.1046628598272375,81.74285634130786,0,100,3.0,5,0.08401695725362092
6.135,0.1320831047748631,84.31195179429643,0,100,3.0,5,0.13489013454052343
6.14,0.16303381314489318,87.901396401456,0,100,3.0,5,0.20596824557338608
6.145,0.19682662652900276,92.60462093409878,0,100,3.0,5,0.29910140463561935
6.15,0.23241585813229,98.36041410535273,0,100,3.0,5,0.4130775070366878
6.155,0.26842527782774417,104.89886875963668,0,100,3.0,5,0.542551856626469
6.16,0.30321927900592993,111.72519191704913,0,100,3.0,5,0.6777265726148343
6.165,0.3350163137995362,118.16084139169179,0,100,3.0,5,0.8051651760731048
6.17,0.3620352400956416,123.44597190058819,0,100,3.0,5,0.9098212257542216
6.175,0.3826586036805073,126.8853149889204,0,100,3.0,5,0.9779270294835722
6.18,0.39559233134833227,128.0,0,100,3.0,5,1.0
6.185,0.4,126.63996232829166,0,100,3.0,5,0.9730685609562705
6.19,0.39559233134833227,123.02080083428294,0,100,3.0,5,0.901401996718474
6.195,0.3826586036805073,117.67285691971338,0,100,3.0,5,0.7955021172220472
6.2,0.3620352400956416,111.31932295360359,0,100,3.0,5,0.6696895634376948
6.205,0.3350163137995362,104.72219297741232,0,100,3.0,5,0.5390533262853925
6.21,0.3032192790059296,98.54122587220695,0,100,3.0,5,0.416657938063504
6.215,0.26842527782774417,93.24077000881171,0,100,3.0,5,0.31169841601607345
6.22,0.23241585813229,89.05862778667502,0,100,3.0,5,0.22888371854802017
6.225,0.19682662652900276,86.02983062093439,0,100,3.0,5,0.16890753704820574
6.23,0.16303381314489318,84.04430011310514,0,100,3.0,5,0.12959010124960668
6.235,0.13208310477486307,82.91403914295742,0,100,3.0,5,0.10720869590014695
6.24,0.10466285982723562,82.43084219355964,0,100,3.0,5,0.09764043947642854
6.245,0.08111733445917907,82.40487403519835,0,100,3.0,5,0.09712621851877914
6.25,0.06149084917398798,82.6832394412119,0,100,3.0,5,0.10263840477647318
6.255,0.04559141333598128,83.1531724022942,0,100,3.0,5,0.11194400796622184
6.26,0.03306217087257399,83.73628303404763,0,100,3.0,5,0.12349075314945804
6.265,0.02345067901074276,84.3794760785732,0,100,3.0,5,0.13622724908065753
6.27,0.016268788896435526,85.04618667950153,0,100,3.0,5,0.14942943919805013
6.275,0.011039026374860051,85.70962794829856,0,100,3.0,5,0.16256689006531805
6.28,0.007326255555493689,86.34837941821235,0,100,3.0,5,0.17521543402400686
6.285,0.0047556414315231815,86.9439438761245,0,100,3.0,5,0.18700878962622758
6.29,0.0030193390635632803,87.47968669983455,0,100,3.0,5,0.19761755841256526
6.295,0.001874953127946523,87.94062017392422,0,100,3.0,5,0.2067449539390934
6.3,0.0011387927410965778,88.31363393334613,0,100,3.0,5,0.21413136501675495
6.305,0.0006765107634274089,88.58790904639335,0,100,3.0,5,0.21956255537412572
6.31,0.00039307957404427924,88.75535462171156,0,100,3.0,5,0.22287830934082298
6.315,0.00022338910511776318,88.81097155676089,0,100,3.0,5,0.22397963478734437
6.32,0.00012417073320013317,88.75308856210596,0,100,3.0,5,0.2228334368733853
6.325,6.750753468904987e-05,88.58344151123836,0,100,3.0,5,0.2194740893314527
6.33,3.5897234866245036e-05,88.30708565167193,0,100,3.0,5,0.2140016960727114
6.335,1.8670050400879738e-05,87.9321449759833,0,100,3.0,5,0.20657712823729318
6.34,9.497421874143672e-06,87.46941544648372,0,100,3.0,5,0.19741416725710342
6.345,4.725434140340885e-06,86.93184890432175,0,100,3.0,5,0.18676928523409414
6.35,2.299606063738814e-06,86.3339520046189,0,100,3.0,5,0.17492974266572067
6.355,1.0945633976635486e-06,85.69113900207235,0,100,3.0,5,0.1622007723182643
6.36,5.095703414287532e-07,85.01907845595186,0,100,3.0,5,0.14889264269211597
6.365,2.3202944964797243e-07,84.33307199951354,0,100,3.0,5,0.1353083564260106
6.37,1.0333746954038608e-07,83.64749858354884,0,100,3.0,5,0.12173264521878888
6.375,4.501406988770349e-08,82.9753506563806,0,100,3.0,5,0.10842278527486333
6.38,0.0,82.32788034858761,0,100,3.0,5,0.09560159106114084
6.385,0.0,81.71436473001928,0,100,3.0,5,0.08345276693107492
6.39,0.0,81.1419904202965,0,100,3.0,5,0.072118622184089
6.395,0.0,80.6158499811668,0,100,3.0,5,0.06169999962706542
6.4,0.0,80.13903615377343,0,100,3.0,5,0.05225814165887985
6.405,0.0,79.71281547685754,0,100,3.0,5,0.04381812825460481
6.41,0.0,79.3368602696585,0,100,3.0,5,0.03637347068630696
6.415,0.0,79.00951732219087,0,100,3.0,5,0.02989143212259156
6.42,0.0,78.72809267612408,0,100,3.0,5,0.024318666853942135
6.425,0.0,78.48913425373082,0,100,3.0,5,0.019586816905560887
6.43,0.0,78.28869738715993,0,100,3.0,5,0.015617770042770854
6.435,0.0,78.12258208905189,0,100,3.0,5,0.012328358199047306
6.44,0.0,77.98653479275193,0,100,3.0,5,0.009634352331721292
6.445,0.0,77.87641094495675,0,100,3.0,5,0.007453682078351399
6.45,0.0,77.78829800908163,0,100,3.0,5,0.005708871466962949
6.455,0.0,77.71860097946956,0,100,3.0,5,0.0043287322667238904
6.46,0.0,77.66409434843045,0,100,3.0,5,0.00324939303822679
6.465,0.0,77.62194561942003,0,100,3.0,5,0.002414764740990731
6.47,0.0,77.58971598801718,0,100,3.0,5,0.0017765542181618933
6.475,0.0,77.56534382372206,0,100,3.0,5,0.0012939371034071253
6.48,0.0,77.54711620521454,0,100,3.0,5,0.0009329941626640785
6.485,0.0,77.53363311752659,0,100,3.0,5,0.0006660023272592307
6.49,0.0,77.5237681295009,0,100,3.0,5,0.00047065602972067364
6.495,0.0,77.5166285333287,0,100,3.0,5,0.00032927788769701567
6.5,0.0,77.51151712141865,0,100,3.0,5,0.0002280618102702755
6.505,0.0,77.50789705214179,0,100,3.0,5,0.00015637727013437269
6.51,0.0,77.505360645962,0,100,3.0,5,0.00010615140518811725
6.515,0.0,77.50360246944363,0,100,3.0,5,7.133602858683087e-05
6.52,0.0,77.50239670480131,0,100,3.0,5,4.745950101610646e-05
6.525,0.0,77.50157855546459,0,100,3.0,5,3.1258524051290716e-05
6.53,0.0,77.50102928633274,0,100,3.0,5,2.0381907578968532e-05
6.535,0.0,77.5006644214217,0,100,3.0,5,1.31568598357091e-05
6.54,0.0,77.50042460206915,0,100,3.0,5,8.407961765255599e-06
6.545,0.0,77.50026862822737,0,100,3.0,5,5.319370839094635e-06
6.55,0.0,77.50016824890496,0,100,3.0,5,3.3316614842713553e-06
6.555,0.0,77.50010432392213,0,100,3.0,5,2.06582024020463e-06
6.56,0.0,77.5000640393074,0,100,3.0,5,1.2681050971013523e-06
6.565,0.0,77.50003891709427,0,100,3.0,5,7.706355301486315e-07
6.57,0.0,77.50002341344106,0,100,3.0,5,4.636324961616578e-07
6.575,0.0,77.50001394508438,0,100,3.0,5,2.761402846758891e-07
6.58,0.0,77.50000822257998,0,100,3.0,5,1.6282336591442313e-07
6.585,0.0,77.500004799833,0,100,3.0,5,9.504619788683635e-08
6.59,0.0,77.5000027738004,0,100,3.0,5,5.4926740665113096e-08
6.595,0.0,77.50000158692114,0,100,3.0,5,3.1424181065856394e-08
6.6,0.0,77.5000008988072,0,100,3.0,5,1.779816239823139e-08
6.605,0.0,77.50000050397477,0,100,3.0,5,9.979698510920067e-09
6.61,0.001684486749771458,77.50000027975774,0,100,3.0,5,5.539757273371572e-09
6.615,0.00456624331333666,77.50000015373986,0,100,3.0,5,3.044353697627194e-09
6.62,0.011079731271581421,77.50000008364152,0,100,3.0,5,1.6562678005771382e-09
6.625,0.024064571490409,77.50000004504935,0,100,3.0,5,8.920662844277536e-10
6.63,0.046784906529573234,77.50000002402072,0,100,3.0,5,4.756578497414588e-10
6.635,0.08141644351188804,77.50000001267986,0,100,3.0,5,2.5108638600622637e-10
6.64,0.12682276464025305,77.50000000662635,0,100,3.0,5,1.3121487175132896e-10
6.645,0.1768320708657512,77.50000000342818,0,100,3.0,5,6.788483086992447e-11
6.65,0.22070063230473494,77.50000000175585,0,100,3.0,5,3.476931833754879e-11
6.655,0.24656126505113576,77.50000000089031,0,100,3.0,5,1.7629901938760507e-11
6.66,0.24656126505724016,77.50000000044692,0,100,3.0,5,8.849844949275007e-12
6.665,0.220700632329898,77.50000000022209,0,100,3.0,5,4.397767078993602e-12
6.67,0.17683207093748562,77.50000000010927,0,100,3.0,5,2.1637081565383805e-12
6.675,0.12682276483597799,77.50000000005322,0,100,3.0,5,1.0538544734342872e-12
6.68,0.08141644409447898,77.50000000002566,0,100,3.0,5,5.082139329832637e-13
6.685,0.04678490952598309,77.50000000001225,0,100,3.0,5,2.4256944088126986e-13
6.69,0.024064605020532023,77.50000000000578,0,100,3.0,5,1.1453104691261813e-13
6.695,0.011080171739334697,77.50000000000271,0,100,3.0,5,5.374798516046698e-14
6.7,0.004571212771509492,77.50000000000125,0,100,3.0,5,2.4763469602728244e-14
6.705,0.0017299316936037438,77.50000000000057,0,100,3.0,5,1.1256122546694657e-14
6.71,0.0008899431850697582,77.50000000000026,0,100,3.0,5,5.065255146012595e-15
6.715,0.002128806368910263,77.50000000000011,0,100,3.0,5,2.2512245093389313e-15
6.72,0.009309664818487698,77.50000000000006,0,100,3.0,5,1.1256122546694657e-15
6.725,0.03503263543368747,77.50000000000003,0,100,3.0,5,5.628061273347328e-16
6.73,0.10606267793605692,77.50000000000001,0,100,3.0,5,2.814030636673664e-16
6.735,0.25734927343160535,77.5,0,100,3.0,5,0.0
6.74,0.5003202479539708,77.5,0,100,3.0,5,0.0
6.745,0.7793067891790435,77.5,0,100,3.0,5,0.0
6.75,0.9720477407234077,77.5000029768749,1,100,3.0,5,5.8948017741016935e-08
6.755,0.967267334488097,77.50000639791868,0,100,3.0,5,1.2669145904861705e-07
6.76,0.7505869905515209,77.50001503914727,0,100,3.0,5,2.978048964657976e-07
6.765,0.4028369574773956,77.5000405977313,0,100,3.0,5,8.039154712749602e-07
6.77,0.04553881263121314,77.50012568133535,0,100,3.0,5,2.488739313818796e-06
6.775,-0.189138810908105,77.50042139469598,0,100,3.0,5,8.344449425278683e-06
6.78,-0.22868072635956738,77.50143220973679,0,100,3.0,5,2.8360588847345023e-05
6.785,-0.14104670682394166,77.5047186192955,0,100,3.0,5,9.343800585153338e-05
6.79,-0.051158381651102834,77.51471703980556,0,100,3.0,5,0.0002914265308031825
6.795,-0.008206426846427752,77.54295938552251,0,100,3.0,5,0.0008506809014357997
6.8,0.005350271385530505,77.6167303530177,0,100,3.0,5,0.002311492138964373
6.805,0.01084668799215426,77.79449447378158,0,100,3.0,5,0.005831573738249171
6.81,0.016256859896386415,78.1889498680611,0,100,3.0,5,0.013642571644774282
6.815,0.02345021205790711,78.9936054602403,0,100,3.0,5,0.029576345747332738
6.82,0.0330621597308209,80.4996856165681,0,100,3.0,5,0.059399715179566354
6.825,0.04559141319943196,83.07993103850617,0,100,3.0,5,0.11049368393081534
6.83,0.06149084917446989,87.11287313371587,0,100,3.0,5,0.19035392343991814
6.835,0.08111733445924295,92.83655963825184,0,100,3.0,5,0.3036942502624127
6.84,0.1046628598272375,100.1592760486476,0,100,3.0,5,0.44869853561678413
6.845,0.1320831047748631,108.50359714416015,0,100,3.0,5,0.6139326167160426
6.85,0.16303381314489318,116.78654847688122,0,100,3.0,5,0.777951454987747
6.855,0.19682662652900276,123.60821001847575,0,100,3.0,5,0.913033861751995
6.86,0.23241585813229,127.62847233815549,0,100,3.0,5,0.9926430165971384
6.865,0.26842527782774417,128.0,0,100,3.0,5,1.0
6.87,0.30321927900592993,124.66760400991004,0,100,3.0,5,0.934011960592278
6.875,0.3350163137995362,118.39038146372059,0,100,3.0,5,0.8097105240340711
6.88,0.3620352400956416,110.47562935409675,0,100,3.0,5,0.6529827594870644
6.885,0.3826586036805073,102.35298204453142,0,100,3.0,5,0.4921382583075528
6.89,0.39559233134833227,95.17874322086946,0,100,3.0,5,0.35007412318553394
6.895,0.4,89.61569511522995,0,100,3.0,5,0.23991475475702878
6.9,0.39559233134833227,85.82517009686714,0,100,3.0,5,0.16485485340330971
6.905,0.3826586036805073,83.6090618349903,0,100,3.0,5,0.12097152148495643
6.91,0.3620352400956416,82.59933730320935,0,100,3.0,5,0.1009769763011753
6.915,0.3350163137995362,82.41268319594003,0,100,3.0,5,0.09728085536514917
6.92,0.3032192790059296,82.73585255051967,0,100,3.0,5,0.10368024852514192
6.925,0.26842527782774417,83.34863649182353,0,100,3.0,5,0.11581458399650547
6.93,0.23241585813229,84.11012510513392,0,100,3.0,5,0.1308935664382954
6.935,0.19682662652900276,84.93289016428321,0,100,3.0,5,0.14718594384719225
6.94,0.16303381314489318,85.75985479737454,0,100,3.0,5,0.1635614811361296
6.945,0.13208310477486307,86.54900938892803,0,100,3.0,5,0.17918830473124805
6.95,0.10466285982723562,87.2655137876512,0,100,3.0,5,0.19337651064655845
6.955,0.08111733445917907,87.87880541393756,0,100,3.0,5,0.2055208992858922
6.96,0.06149084917398798,88.36243221298648,0,100,3.0,5,0.21509766758389062
6.965,0.04559141333598128,88.69504827525046,0,100,3.0,5,0.2216841242623853
6.97,0.03306217087257399,88.86166481029888,0,100,3.0,5,0.22498346159007676
6.975,0.02345067901074276,88.85467214111144,0,100,3.0,5,0.22484499289329576
6.98,0.016268788896435526,88.67438787319062,0,100,3.0,5,0.22127500738991338
6.985,0.011039026374860051,88.32902560186928,0,100,3.0,5,0.21443615053206486
6.99,0.007326255555493689,87.834072636083,0,100,3.0,5,0.20463510170461374
6.995,0.0047556414315231815,87.21113807884366,0,100,3.0,5,0.19229976393749823
7.0,0.0030193390635632803,86.48638950473932,0,100,3.0,5,0.177948307024541
7.005,0.001874953127946523,85.68873539894074,0,100,3.0,5,0.16215317621664824
7.01,0.0011387927410965778,84.84792859716677,0,100,3.0,5,0.14550353657755982
7.015,0.0006765107634274089,83.99276234682259,0,100,3.0,5,0.12856955142222945
7.02,0.00039307957404427924,83.14950732513329,0,100,3.0,5,0.11187143218085714
7.025,0.00022338910511776318,82.34069963296807,0,100,3.0,5,0.0958554382765954
7.03,0.00012417073320013317,81.58434279250736,0,100,3.0,5,0.08087807509915558
7.035,6.750753468904987e-05,80.89353805575186,0,100,3.0,5,0.06719877338122497
7.04,3.5897234866245036e-05,80.27651326693037,0,100,3.0,5,0.05498046073129437
7.045,1.8670050400879738e-05,79.73698603104926,0,100,3.0,5,0.04429675309008427
7.05,9.497421874143672e-06,79.27477491320202,0,100,3.0,5,0.03514405768716877
7.055,4.725434140340885e-06,78.88656355336967,0,100,3.0,5,0.027456704027122157
7.06,2.299606063738814e-06,78.56672572691414,0,100,3.0,5,0.02112328172107214
7.065,1.0945633976635486e-06,78.30813189638289,0,100,3.0,5,0.01600261180956216
7.07,5.095703414287532e-07,78.10287630828009,0,100,3.0,5,0.011938144718417582
7.075,2.3202944964797243e-07,77.94288469900617,0,100,3.0,5,0.008769994039726167
7.08,1.0333746954038608e-07,77.82038311916784,0,100,3.0,5,0.0063442201815414505
7.085,4.501406988770349e-08,77.72822597134211,0,100,3.0,5,0.004519326165190349
7.09,0.0,77.66009471412842,0,100,3.0,5,0.0031701923589786034
7.095,0.0,77.61058733996865,0,100,3.0,5,0.0021898483162108096
7.1,0.0,77.57522294299544,0,100,3.0,5,0.0014895632276324417
7.105,0.0,77.55038621312866,0,100,3.0,5,0.0009977467946269503
7.11,0.0,77.53323453510313,0,100,3.0,5,0.0006581096060026449
7.115,0.0,77.52158658720883,0,100,3.0,5,0.0004274571724520814
7.12,0.0,77.51380685790998,0,100,3.0,5,0.0002734031269303704
7.125,0.0,77.5086960537223,0,100,3.0,5,0.0001721990836099709
7.13,0.0,77.50539344261945,0,100,3.0,5,0.00010680084394950859
7.135,0.0,77.50329402128571,0,100,3.0,5,6.522814427151136e-05
7.14,0.0,77.50198108554771,0,100,3.0,5,3.922941678637255e-05
7.145,0.0,77.50117326616962,0,100,3.0,5,2.323299345773806e-05
7.15,0.0,77.50068423668777,0,100,3.0,5,1.3549241342076076e-05
7.155,0.0,77.5003929458036,0,100,3.0,5,7.781105021721677e-06
7.16,0.0,77.50022221606024,0,100,3.0,5,4.400318024499038e-06
7.165,0.0,77.5001237470122,0,100,3.0,5,2.4504358850775826e-06
7.17,0.0,77.5000678594742,0,100,3.0,5,1.3437519643534554e-06
7.175,0.0,77.50003664398938,0,100,3.0,5,7.256235519862727e-07
7.18,0.0,77.50001948549742,0,100,3.0,5,3.858514340249307e-07
7.185,0.0,77.50001020320788,0,100,3.0,5,2.0204372036811162e-07
7.19,0.001684486749771458,77.50000526112309,0,100,3.0,5,1.0418065530171985e-07
7.195,0.00456624331333666,77.50000267138621,0,100,3.0,5,5.289873688480379e-08
7.2,0.011079731271581421,77.50000133570758,0,100,3.0,5,2.6449655051422243e-08
7.205,0.024064571490409,77.50000065766176,0,100,3.0,5,1.3023005107747354e-08
7.21,0.046784906529573234,77.5000003188675,0,100,3.0,5,6.3142080519058494e-09
7.215,0.08141644351188804,77.500000152242,0,100,3.0,5,3.0146929705074623e-09
7.22,0.12682276464025305,77.50000007157726,0,100,3.0,5,1.4173715138859185e-09
7.225,0.1768320708657512,77.50000003313846,0,100,3.0,5,6.562071810026957e-10
7.23,0.22070063230473494,77.50000001510796,0,100,3.0,6,2.991674762705599e-10
7.235,0.24656126505113576,77.5000000067826,0,100,3.0,6,1.3430889843635165e-10
7.24,0.24656126505724016,77.50000000299849,0,100,3.0,6,5.937604643381431e-11
7.245,0.220700632329898,77.50000000130535,0,100,3.0,6,2.584855981622961e-11
7.25,0.17683207093748562,77.50000000055958,0,100,3.0,6,1.1080808438029887e-11
7.255,0.12682276483597799,77.50000000023623,0,100,3.0,6,4.677763127342632e-12
7.26,0.08141644409447898,77.5000000000982,0,100,3.0,6,1.944495169941502e-12
7.265,0.04678490952598309,77.50000000004019,0,100,3.0,6,7.958078640513122e-13
7.27,0.024064605020532023,77.5000000000162,0,100,3.0,6,3.207994925807977e-13
7.275,0.011080171739334697,77.50000000000644,0,100,3.0,6,1.27475587841317e-13
7.28,0.004571212771509492,77.50000000000252,0,100,3.0,6,4.9808342269123855e-14
7.285,0.0017299316936037438,77.50000000000097,0,100,3.0,6,1.9135408329380917e-14
7.29,0.0008899431850697582,77.50000000000037,0,100,3.0,6,7.316479655351527e-15
7.295,0.002128806368910263,77.50000000000014,0,100,3.0,6,2.8140306366736642e-15
7.3,0.009309664818487698,77.50000000000004,0,100,3.0,6,8.442091910020992e-16
7.305,0.03503263543368747,77.50000000000001,0,100,3.0,6,2.814030636673664e-16
7.31,0.10606267793605692,77.5,0,100,3.0,6,0.0
7.315,0.25734927343160535,77.5,0,100,3.0,6,0.0
7.32,0.5003202479539708,77.5,0,100,3.0,6,0.0
7.325,0.7793067891790435,77.5000029632167,1,100,3.0,6,5.867755844249559e-08
7.33,0.9720477407234077,77.50000632443192,0,100,3.0,6,1.252362756864692e-07
7.335,0.967267334488097,77.50001473324576,0,100,3.0,6,2.917474408505849e-07
7.34,0.7505869905515209,77.50003930345265,0,100,3.0,6,7.782861911378535e-07
7.345,0.4028369574773956,77.50012007178523,0,100,3.0,6,2.37765911352014e-06
7.35,0.04553881263121314,77.50039768906025,0,100,3.0,6,7.875030896043021e-06
7.355,-0.189138810908105,77.50133813309903,0,100,3.0,6,2.6497685129220596e-05
7.36,-0.22868072635956738,77.50437429970992,0,100,3.0,6,8.661979623609861e-05
7.365,-0.14104670682394166,77.51356283545961,0,100,3.0,6,0.0002685709992001851
7.37,-0.051158381651102834,77.539423280672,0,100,3.0,6,0.0007806590232078606
7.375,-0.008206426846427752,77.60683292766095,0,100,3.0,6,0.0021155035180385365
7.38,0.005350271385530505,77.7691843879838,0,100,3.0,6,0.005330383920471266
7.385,0.01084668799215426,78.1298195737859,0,100,3.0,6,0.012471674728433559
7.39,0.016256859896386415,78.8674564682652,0,100,3.0,6,0.027078345906241648
7.395,0.02345021205790711,80.25416185836706,0,100,3.0,6,0.05453785858152585
7.4,0.0330621597308209,82.64472323642266,0,100,3.0,6,0.10187570765193393
7.405,0.04559141319943196,86.41224109374863,0,100,3.0,6,0.17648002165838877
7.41,0.06149084917446989,91.81665598492147,0,100,3.0,6,0.2834981383152766
7.415,0.08111733445924295,98.826395638257,0,100,3.0,6,0.42230486412390095
7.42,0.1046628598272375,106.95895384922622,0,100,3.0,6,0.5833456207767568
7.425,0.1320831047748631,115.23602411394728,0,100,3.0,6,0.7472480022563818
7.43,0.16303381314489318,122.32971667135199,0,100,3.0,6,0.8877171618089502
7.435,0.19682662652900276,126.89775582948093,0,100,3.0,6,0.9781733827619986
7.44,0.23241585813229,128.0,0,100,3.0,6,1.0
7.445,0.26842527782774417,125.42125272540896,0,100,3.0,6,0.9489356975328508
7.45,0.30321927900592993,119.74965133212939,0,100,3.0,6,0.8366267590520671
7.455,0.3350163137995362,112.17257946470455,0,100,3.0,6,0.6865857319743476
7.46,0.3620352400956416,104.08785511981466,0,100,3.0,6,0.5264921805903894
7.465,0.3826586036805073,96.70488803956961,0,100,3.0,6,0.38029481266474474
7.47,0.39559233134833227,90.78889417401182,0,100,3.0,6,0.2631464192873627
7.475,0.4,86.60772759605685,0,100,3.0,6,0.18035104150607617
7.48,0.39559233134833227,84.04089578195409,0,100,3.0,6,0.12952268875156617
7.485,0.3826586036805073,82.75786879881116,0,100,3.0,6,0.10411621383784475
7.49,0.3620352400956416,82.37959366821764,0,100,3.0,6,0.09662561719242846
7.495,0.3350163137995362,82.57856812118584,0,100,3.0,6,0.1005657053700166
7.5,0.3032192790059296,83.11531036543767,0,100,3.0,6,0.11119426466213198
7.505,0.26842527782774417,83.83263983129649,0,100,3.0,6,0.12539880854052454
7.51,0.23241585813229,84.63250912217958,0,100,3.0,6,0.14123780439959574
7.515,0.19682662652900276,85.45226040314074,0,100,3.0,6,0.1574705030324899
7.52,0.16303381314489318,86.2475629773933,0,100,3.0,6,0.1732190688592733
7.525,0.13208310477486307,86.98281595132833,0,100,3.0,6,0.18777853368966999
7.53,0.10466285982723562,87.62707318852279,0,100,3.0,6,0.20053610274302547
7.535,0.08111733445917907,88.15320332098976,0,100,3.0,6,0.21095452120771804
7.54,0.06149084917398798,88.5385782151131,0,100,3.0,6,0.21858570722996248
7.545,0.04559141333598128,88.76624892522591,0,100,3.0,6,0.22309403812328532
7.55,0.03306217087257399,88.82603771663241,0,100,3.0,6,0.22427797458678045
7.555,0.02345067901074276,88.71524935893723,0,100,3.0,6,0.22208414572152926
7.56,0.016268788896435526,88.43886075670979,0,100,3.0,6,0.2166111040932631
7.565,0.011039026374860051,88.00914720955005,0,100,3.0,6,0.20810192494158516
7.57,0.007326255555493689,87.44477763798974,0,100,3.0,6,0.19692628986118307
7.575,0.0047556414315231815,86.76946988444872,0,100,3.0,6,0.18355385909799454
7.58,0.0030193390635632803,86.0103405328122,0,100,3.0,6,0.16852159470915234
7.585,0.001874953127946523,85.1961087935566,0,100,3.0,6,0.15239819393181395
7.59,0.0011387927410965778,84.35531914558466,0,100,3.0,6,0.13574889397197343
7.595,0.0006765107634274089,83.51473332893123,0,100,3.0,6,0.11910363027586592
7.6,0.00039307957404427924,82.69801221580293,0,100,3.0,6,0.10293093496639472
7.605,0.00022338910511776318,81.92476728085217,0,100,3.0,6,0.08761915407628051
7.61,0.00012417073320013317,81.2100160794701,0,100,3.0,6,0.07346566494000187
7.615,6.750753468904987e-05,80.56403251225963,0,100,3.0,6,0.06067391113385405
7.62,3.5897234866245036e-05,79.99254590939884,0,100,3.0,6,0.04935734474057114
7.625,1.8670050400879738e-05,79.49721667177356,0,100,3.0,6,0.039548844985615
7.63,9.497421874143672e-06,79.07630197143015,0,100,3.0,6,0.031213900424359505
7.635,4.725434140340885e-06,78.72542256815419,0,100,3.0,6,0.024265793428795777
7.64,2.299606063738814e-06,78.43834933264405,0,100,3.0,6,0.018581174903842604
7.645,1.0945633976635486e-06,78.20774277436361,0,100,3.0,6,0.01401470840323979
7.65,5.095703414287532e-07,78.02579755035103,0,100,3.0,6,0.010411832680218405
7.655,2.3202944964797243e-07,77.88476352268945,0,100,3.0,6,0.007619079657216909
7.66,1.0333746954038608e-07,77.77733293361308,0,100,3.0,6,0.005491741259664978
7.665,4.501406988770349e-08,77.69689796089891,0,100,3.0,6,0.0038989695227506687
7.67,0.0,77.63769342762592,0,100,3.0,6,0.0027266025272459243
7.675,0.0,77.59484565128201,0,100,3.0,6,0.0018781317085547404
7.68,0.0,77.56435078582085,0,100,3.0,6,0.0012742729865514734
7.685,0.0,77.54300535190977,0,100,3.0,6,0.0008515911269261333
7.69,0.0,77.52830892491497,0,100,3.0,6,0.0005605727705934027
7.695,0.0,77.5183550878223,0,100,3.0,6,0.0003634670855901034
7.7,0.0,77.51172254143796,0,100,3.0,6,0.0002321295334249863
7.705,0.0,77.50737427460564,0,100,3.0,6,0.00014602523971560832
7.71,0.0,77.50456929349846,0,100,3.0,6,9.04810593755032e-05
7.715,0.0,77.5027887592473,0,100,3.0,6,5.522295539198113e-05
7.72,0.0,77.50167650638357,0,100,3.0,6,3.319814620940318e-05
7.725,0.0,77.50099273108047,0,100,3.0,6,1.9658041197479378e-05
7.73,0.0,77.50057901557518,0,100,3.0,6,1.1465654954136962e-05
7.735,0.0,77.50033264507117,0,100,3.0,6,6.587031112242738e-06
7.74,0.0,77.50018823663869,0,100,3.0,6,3.727458191926218e-06
7.745,0.0,77.50010492028098,0,100,3.0,6,2.0776293262437016e-06
7.75,0.0,77.50005760324511,0,100,3.0,6,1.1406583190242906e-06
7.755,0.0,77.50003115061858,0,100,3.0,6,6.168439323245015e-07
7.76,0.0,77.50001659275955,0,100,3.0,6,3.285694960465149e-07
7.765,0.001684486749771458,77.5000087056817,0,100,3.0,6,1.7238973650999488e-07
7.77,0.00456624331333666,77.50000449903288,0,100,3.0,6,8.908976006201592e-08
7.775,0.011079731271581421,77.50000229017026,0,100,3.0,6,4.5349906096618887e-08
7.78,0.024064571490409,77.5000011482821,0,100,3.0,6,2.2738259310631967e-08
7.785,0.046784906529573234,77.50000056710259,0,100,3.0,6,1.1229754235419834e-08
7.79,0.08141644351188804,77.50000027587154,0,100,3.0,6,5.4628028217596484e-09
7.795,0.12682276464025305,77.50000013218568,0,100,3.0,6,2.617538133437289e-09
7.8,0.1768320708657512,77.500000062387,0,100,3.0,6,1.235386182790787e-09
7.805,0.22070063230473494,77.50000002900254,0,100,3.0,6,5.743076333529454e-10
7.81,0.24656126505113576,77.50000001328037,0,100,3.0,6,2.629776352676183e-10
7.815,0.24656126505724016,77.50000000598986,0,100,3.0,6,1.1861110993273127e-10
7.82,0.220700632329898,77.50000000266107,0,100,3.0,6,5.2694412090096365e-11
7.825,0.17683207093748562,77.50000000116447,0,100,3.0,6,2.3058729843031337e-11
7.83,0.12682276483597799,77.50000000050191,0,100,3.0,6,9.938874805667714e-12
7.835,0.08141644409447898,77.50000000021309,0,100,3.0,6,4.219638939692159e-12
7.84,0.04678490952598309,77.50000000008912,0,100,3.0,6,1.7646786122580548e-12
7.845,0.024064605020532023,77.5000000000367,0,100,3.0,6,7.268641134528074e-13
7.85,0.011080171739334697,77.5000000000149,0,100,3.0,6,2.949104107234e-13
7.855,0.004571212771509492,77.50000000000595,0,100,3.0,6,1.1790788367662653e-13
7.86,0.0017299316936037438,77.50000000000234,0,100,3.0,6,4.6431505505115455e-14
7.865,0.0008899431850697582,77.50000000000091,0,100,3.0,6,1.800979607471145e-14
7.87,0.002128806368910263,77.50000000000034,0,100,3.0,6,6.7536735280167935e-15
7.875,0.009309664818487698,77.50000000000013,0,100,3.0,6,2.5326275730062976e-15
7.88,0.03503263543368747,77.50000000000004,0,100,3.0,6,8.442091910020992e-16
7.885,0.10606267793605692,77.50000000000001,0,100,3.0,6,2.814030636673664e-16
7.89,0.25734927343160535,77.5,0,100,3.0,6,0.0
7.895,0.5003202479539708,77.5,0,100,3.0,6,0.0
7.9,0.7793067891790435,77.5,0,100,3.0,6,0.0
7.905,0.9720477407234077,77.50000297426018,1,100,3.0,6,5.889624126572052e-08
7.91,0.967267334488097,77.50000567823217,0,100,3.0,6,1.1244024100357486e-07
7.915,0.7505869905515209,77.50001149390847,0,100,3.0,6,2.276021479976389e-07
7.92,0.4028369574773956,77.50002552223552,0,100,3.0,6,5.053908023343172e-07
7.925,0.04553881263121314,77.50006306261808,0,100,3.0,6,1.2487647144989932e-06
7.93,-0.189138810908105,77.5001698874946,0,100,3.0,6,3.3641088038220374e-06
7.935,-0.22868072635956738,77.50047859341034,0,100,3.0,6,9.477097234362236e-06
7.94,-0.14104670682394166,77.50135524508104,0,100,3.0,6,2.6836536258290627e-05
7.945,-0.051158381651102834,77.50375492034152,0,100,3.0,6,7.435485824794117e-05
7.95,-0.008206426846427752,77.51002123916122,0,100,3.0,6,0.00019844037943007696
7.955,0.005350271385530505,77.5255453584863,0,100,3.0,6,0.0005058486828969839
7.96,0.01084668799215426,77.5619207241607,0,100,3.0,6,0.0012261529536772287
7.965,0.016256859896386415,77.64238621016548,0,100,3.0,6,0.0028195289141679874
7.97,0.02345021205790711,77.8102100292443,0,100,3.0,6,0.006142772856322825
7.975,0.0330621597308209,78.13987659239612,0,100,3.0,6,0.01267082361180437
7.98,0.04559141319943196,78.74916028808956,0,100,3.0,6,0.02473584728890209
7.985,0.06149084917446989,79.80740165759062,0,100,3.0,6,0.04569112193248747
7.99,0.08111733445924295,81.53230654845552,0,100,3.0,6,0.07984765442486184
7.995,0.1046628598272375,84.16614940220346,0,100,3.0,6,0.13200295845947443
8.0,0.1320831047748631,87.92480409158405,0,100,3.0,6,0.20643176418978318
8.005,0.16303381314489318,92.92132389923525,0,100,3.0,6,0.30537275047990586
8.01,0.19682662652900276,99.07906867815493,0,100,3.0,6,0.4273082906565332
8.015,0.23241585813229,106.06297302446497,0,100,3.0,6,0.5656034262270291
8.02,0.26842527782774417,113.26372517607233,0,100,3.0,6,0.7081925777440065
8.025,0.30321927900592993,119.86120910133064,0,100,3.0,6,0.8388358237887257
8.03,0.3350163137995362,124.96909105340002,0,100,3.0,6,0.9399820010574261
8.035,0.3620352400956416,127.82948178557024,0,100,3.0,6,0.9966234016944602
8.04,0.3826586036805073,128.0,0,100,3.0,6,1.0
8.045,0.39559233134833227,125.47008483330974,0,100,3.0,6,0.9499026699665295
8.05,0.4,120.66481219264665,0,100,3.0,6,0.8547487562900327
8.055,0.39559233134833227,114.3347951868165,0,100,3.0,6,0.7294018848874556
8.06,0.3826586036805073,107.37172732806118,0,100,3.0,6,0.5915193530309145
8.065,0.3620352400956416,100.61213146388492,0,100,3.0,6,0.4576659695818796
8.07,0.3350163137995362,94.68808896833318,0,100,3.0,6,0.34035819739273615
8.075,0.3032192790059296,89.95808553040531,0,100,3.0,6,0.24669476297832302
8.08,0.26842527782774417,86.51808198825748,0,100,3.0,6,0.17857588095559362
8.085,0.23241585813229,84.26758558980437,0,100,3.0,6,0.13401159583771027
8.09,0.19682662652900276,82.99601598482167,0,100,3.0,6,0.10883199969943896
8.095,0.16303381314489318,82.46008910161746,0,100,3.0,6,0.09821958617064269
8.1,0.13208310477486307,82.43631776475485,0,100,3.0,6,0.09774886662880884
8.105,0.10466285982723562,82.74620952675184,0,100,3.0,6,0.10388533716340279
8.11,0.08111733445917907,83.26041912278987,0,100,3.0,6,0.1140677054017796
8.115,0.06149084917398798,83.8909837535951,0,100,3.0,6,0.12655413373455632
8.12,0.04559141333598128,84.57950349558233,0,100,3.0,6,0.14018818803133326
8.125,0.03306217087257399,85.2861599745921,0,100,3.0,6,0.15418138563548703
8.13,0.02345067901074276,85.98163805601772,0,100,3.0,6,0.16795322883203395
8.135,0.016268788896435526,86.64215441522398,0,100,3.0,6,0.18103276069750465
8.14,0.011039026374860051,87.24693849353997,0,100,3.0,6,0.19300868304039548
8.145,0.007326255555493689,87.77732882594401,0,100,3.0,6,0.2035114618998814
8.15,0.0047556414315231815,88.21678411743441,0,100,3.0,6,0.21221354687988941
8.155,0.0030193390635632803,88.5513239266052,0,100,3.0,6,0.21883809755653874
8.16,0.001874953127946523,88.77009736679604,0,100,3.0,6,0.22317024488705023
8.165,0.0011387927410965778,88.8659030200672,0,100,3.0,6,0.22506738653598404
8.17,0.0006765107634274089,88.83555969828684,0,100,3.0,6,0.2244665286789474
8.175,0.00039307957404427924,88.68007425722836,0,100,3.0,6,0.22138760905402685
8.18,0.00022338910511776318,88.40458376283155,0,100,3.0,6,0.2159323517392386
8.185,0.00012417073320013317,88.01807297572829,0,100,3.0,6,0.20827867278669876
8.19,6.750753468904987e-05,87.5328876255651,0,100,3.0,6,0.19867104209039793
8.195,3.5897234866245036e-05,86.96407988350431,0,100,3.0,6,0.18740752244562991
8.2,1.8670050400879738e-05,86.32863430486985,0,100,3.0,6,0.1748244416805911
8.205,9.497421874143672e-06,85.64462963051776,0,100,3.0,6,0.16127979466371792
8.21,4.725434140340885e-06,84.93039382902155,0,100,3.0,6,0.14713651146577336
8.215,2.299606063738814e-06,84.20370673858773,0,100,3.0,6,0.13274666809084607
8.22,1.0945633976635486e-06,83.48109723485612,0,100,3.0,6,0.11843756900705192
8.225,5.095703414287532e-07,82.77727103304531,0,100,3.0,6,0.10450041649594673
8.23,2.3202944964797243e-07,82.10469232958998,0,100,3.0,6,0.09118202632851446
8.235,1.0333746954038608e-07,81.4733289031435,0,100,3.0,6,0.07867978026026726
8.24,4.501406988770349e-08,80.89055736587513,0,100,3.0,6,0.06713974981930941
8.245,0.0,80.36121411084514,0,100,3.0,6,0.05665770516525029
8.25,0.0,79.8877689525599,0,100,3.0,6,0.04728255351603753
8.255,0.0,79.47059295025286,0,100,3.0,6,0.039021642579264645
8.26,0.0,79.108289512118,0,100,3.0,6,0.03184731707164368
8.265,0.0,78.79805835279892,0,100,3.0,6,0.02570412579799838
8.27,0.0,78.53606471576967,0,100,3.0,6,0.020516132985537998
8.275,0.0,78.31779082219269,0,100,3.0,6,0.016193877667182006
8.28,0.0,78.13835205700114,0,100,3.0,6,0.012640634792101837
8.285,0.0,77.99276627075692,0,100,3.0,6,0.009757747935780534
8.29,0.0,77.87617018053467,0,100,3.0,6,0.0074489144660331045
8.295,0.0,77.78398175514256,0,100,3.0,6,0.005623401091931931
8.3,0.0,77.71201139014435,0,100,3.0,6,0.004198245349393159
8.305,0.0,77.65652749302741,0,100,3.0,6,0.0030995543173744835
8.31,0.0,77.61428381951266,0,100,3.0,6,0.0022630459309438476
8.315,0.0,77.58251664176932,0,100,3.0,6,0.0016339929063231057
8.32,0.0,77.55891976749406,0,100,3.0,6,0.0011667280691893206
8.325,0.0,77.54160477570755,0,100,3.0,6,0.0008238569447040516
8.33,0.0,77.52905280217514,0,100,3.0,6,0.0005753030133691914
8.335,0.0,77.52006298507172,0,100,3.0,6,0.0003972868331033223
8.34,0.0,77.51370142552075,0,100,3.0,6,0.0002713153568465421
8.345,0.0,77.50925334255247,0,100,3.0,6,0.0001832345059894898
8.35,0.0,77.5061800815573,0,100,3.0,6,0.0001223778526198743
8.355,0.0,77.50408180688879,0,100,3.0,6,8.082785918399132e-05
8.36,0.0,77.50266608126702,0,100,3.0,6,5.279368845589992e-05
8.365,0.0,77.50172209455528,0,100,3.0,6,3.4100882282702947e-05
8.37,0.0,77.50110002684835,0,100,3.0,6,2.1782709868287808e-05
8.375,0.0,77.50069488391328,0,100,3.0,6,1.376007749075656e-05
8.38,0.0,77.50043409412848,0,100,3.0,6,8.59592333622774e-06
8.385,0.0,77.50026817497371,0,100,3.0,6,5.310395519051898e-06
8.39,0.0,77.50016383823585,0,100,3.0,6,3.24432150196657e-06
8.395,0.0,77.50009898627022,0,100,3.0,6,1.9601241627125354e-06
8.4,0.0,77.50005914218141,0,100,3.0,6,1.1711323052190667e-06
8.405,0.0,77.5000349447871,0,100,3.0,6,6.919759822393293e-07
8.41,0.0,77.50002041879647,0,100,3.0,6,4.0433260330633623e-07
8.415,0.0,77.50001179887397,0,100,3.0,6,2.3364106871866008e-07
8.42,0.0,77.50000674238683,0,100,3.0,6,1.335126104986737e-07
8.425,0.0,77.50000381021472,0,100,3.0,6,7.544979646557087e-08
8.43,0.0,77.50000212935424,0,100,3.0,6,4.216543055746916e-08
8.435,0.0,77.50000117681735,0,100,3.0,7,2.3303313848445402e-08
8.44,0.001684486749771458,77.50000064318053,0,100,3.0,7,1.2736248069390652e-08
8.445,0.00456624331333666,77.50000034763173,0,100,3.0,7,6.883796555881093e-09
8.45,0.011079731271581421,77.5000001858098,0,100,3.0,7,3.6794019008696767e-09
8.455,0.024064571490409,77.5000000982156,0,100,3.0,7,1.944863245148779e-09
8.46,0.046784906529573234,77.5000000513399,0,100,3.0,7,1.0166316017846227e-09
8.465,0.08141644351188804,77.50000002653947,0,100,3.0,7,5.255340101489264e-10
8.47,0.12682276464025305,77.50000001356726,0,100,3.0,7,2.686586003169351e-10
8.475,0.1768320708657512,77.5000000068589,0,100,3.0,7,1.3581975148518172e-10
8.48,0.22070063230473494,77.5000000034291,0,100,3.0,7,6.790284066599919e-11
8.485,0.24656126505113576,77.50000000169538,0,100,3.0,7,3.357194830164415e-11
8.49,0.24656126505724016,77.50000000082893,0,100,3.0,7,1.641452210678115e-11
8.495,0.220700632329898,77.5000000004008,0,100,3.0,7,7.936692007674403e-12
8.5,0.17683207093748562,77.50000000019165,0,100,3.0,7,3.795001716618104e-12
8.505,0.12682276483597799,77.50000000009062,0,100,3.0,7,1.7945073370067957e-12
8.51,0.08141644409447898,77.50000000004238,0,100,3.0,7,8.391439358560866e-13
8.515,0.04678490952598309,77.5000000000196,0,100,3.0,7,3.880548247972983e-13
8.52,0.024064605020532023,77.50000000000897,0,100,3.0,7,1.775653331741082e-13
8.525,0.011080171739334697,77.50000000000405,0,100,3.0,7,8.019987314519942e-14
8.53,0.004571212771509492,77.50000000000182,0,100,3.0,7,3.60195921494229e-14
8.535,0.0017299316936037438,77.5000000000008,0,100,3.0,7,1.575857156537252e-14
8.54,0.0008899431850697582,77.50000000000036,0,100,3.0,7,7.03507659168416e-15
8.545,0.002128806368910263,77.50000000000016,0,100,3.0,7,3.0954337003410305e-15
8.55,0.009309664818487698,77.50000000000007,0,100,3.0,7,1.4070153183368321e-15
8.555,0.03503263543368747,77.50000000000003,0,100,3.0,7,5.628061273347328e-16
8.56,0.10606267793605692,77.50000000000001,0,100,3.0,7,2.814030636673664e-16
8.565,0.25734927343160535,77.5,0,100,3.0,7,0.0
8.57,0.5003202479539708,77.5,0,100,3.0,7,0.0
8.575,0.7793067891790435,77.5,0,100,3.0,7,0.0
8.58,0.9720477407234077,77.50000295860458,1,100,3.0,7,5.8586229359585414e-08
8.585,0.967267334488097,77.50000607194025,0,100,3.0,7,1.2023644056189188e-07
8.59,0.7505869905515209,77.50001345273148,0,100,3.0,7,2.663907223742883e-07
8.595,0.4028369574773956,77.5000335974731,0,100,3.0,7,6.65296497145121e-07
8.6,0.04553881263121314,77.5000952391376,0,100,3.0,7,1.8859235166978084e-06
8.605,-0.189138810908105,77.50029396174413,0,100,3.0,7,5.821024636320949e-06
