Time,ECG,Pressure,R_Peaks,mean_hr,hrv_scale,Phase_Bin,Normalized_Pressure
0.0,0.001684486749771458,77.5,0,100,3.0,0,0.0
0.005,0.00456624331333666,77.5,0,100,3.0,0,0.0
0.01,0.011079731271581421,77.5,0,100,3.0,0,0.0
0.015,0.024064571490409,77.5,0,100,3.0,0,0.0
0.02,0.046784906529573234,77.5,0,100,3.0,0,0.0
0.025,0.08141644351188804,77.5,0,100,3.0,0,0.0
0.03,0.12682276464025305,77.5,0,100,3.0,0,0.0
0.035,0.1768320708657512,77.5,0,100,3.0,0,0.0
0.04,0.22070063230473494,77.5,0,100,3.0,0,0.0
0.045,0.24656126505113576,77.5,0,100,3.0,0,0.0
0.05,0.24656126505724016,77.5,0,100,3.0,0,0.0
0.055,0.220700632329898,77.5,0,100,3.0,0,0.0
0.06,0.17683207093748562,77.5,0,100,3.0,0,0.0
0.065,0.12682276483597799,77.5,0,100,3.0,0,0.0
0.07,0.08141644409447898,77.5,0,100,3.0,0,0.0
0.075,0.04678490952598309,77.5,0,100,3.0,0,0.0
0.08,0.024064605020532023,77.5,0,100,3.0,0,0.0
0.085,0.011080171739334697,77.5,0,100,3.0,0,0.0
0.09,0.004571212771509492,77.5,0,100,3.0,0,0.0
0.095,0.0017299316936037438,77.5,0,100,3.0,0,0.0
0.1,0.0008899431850697582,77.5,0,100,3.0,0,0.0
0.105,0.002128806368910263,77.5,0,100,3.0,0,0.0
0.11,0.009309664818487698,77.5,0,100,3.0,0,0.0
0.115,0.03503263543368747,77.5,0,100,3.0,0,0.0
0.12,0.10606267793605692,77.5,0,100,3.0,0,0.0
0.125,0.25734927343160535,77.5,0,100,3.0,0,0.0
0.13,0.5003202479539708,77.5,0,100,3.0,0,0.0
0.135,0.7793067891790435,77.5,0,100,3.0,0,0.0
0.14,0.9720477407234077,77.5,0,100,3.0,0,0.0
0.145,0.967267334488097,77.5,0,100,3.0,0,0.0
0.15,0.7505869905515209,77.5,0,100,3.0,0,0.0
0.155,0.4028369574773956,77.5,0,100,3.0,0,0.0
0.16,0.04553881263121314,77.5,0,100,3.0,0,0.0
0.165,-0.189138810908105,77.5,0,100,3.0,0,0.0
0.17,-0.22868072635956738,77.5,0,100,3.0,0,0.0
0.175,-0.14104670682394166,77.5,0,100,3.0,0,0.0
0.18,-0.051158381651102834,77.5,0,100,3.0,0,0.0
0.185,-0.008206426846427752,77.5,0,100,3.0,0,0.0
0.19,0.005350271385530505,77.5,0,100,3.0,0,0.0
0.195,0.01084668799215426,77.5,0,100,3.0,0,0.0
0.2,0.016256859896386415,77.5,0,100,3.0,0,0.0
0.205,0.02345021205790711,77.5,0,100,3.0,0,0.0
0.21,0.0330621597308209,77.5,0,100,3.0,0,0.0
0.215,0.04559141319943196,77.5,0,100,3.0,0,0.0
0.22,0.06149084917446989,77.5,0,100,3.0,0,0.0
0.225,0.08111733445924295,77.5,0,100,3.0,0,0.0
0.23,0.1046628598272375,77.5,0,100,3.0,0,0.0
0.235,0.1320831047748631,77.5,0,100,3.0,0,0.0
0.24,0.16303381314489318,77.5,0,100,3.0,0,0.0
0.245,0.19682662652900276,77.5,0,100,3.0,0,0.0
0.25,0.23241585813229,77.5,0,100,3.0,0,0.0
0.255,0.26842527782774417,77.5,0,100,3.0,0,0.0
0.26,0.30321927900592993,77.5,0,100,3.0,0,0.0
0.265,0.3350163137995362,77.5,0,100,3.0,0,0.0
0.27,0.3620352400956416,77.5,0,100,3.0,0,0.0
0.275,0.3826586036805073,77.5,0,100,3.0,0,0.0
0.28,0.39559233134833227,77.5,0,100,3.0,0,0.0
0.285,0.4,77.5,0,100,3.0,0,0.0
0.29,0.39559233134833227,77.5,0,100,3.0,0,0.0
0.295,0.3826586036805073,77.5,0,100,3.0,0,0.0
0.3,0.3620352400956416,77.5,0,100,3.0,0,0.0
0.305,0.3350163137995362,77.5,0,100,3.0,0,0.0
0.31,0.3032192790059296,77.5,0,100,3.0,0,0.0
0.315,0.26842527782774417,77.5,0,100,3.0,0,0.0
0.32,0.23241585813229,77.5,0,100,3.0,0,0.0
0.325,0.19682662652900276,77.5,0,100,3.0,0,0.0
0.33,0.16303381314489318,77.5,0,100,3.0,0,0.0
0.335,0.13208310477486307,77.5,0,100,3.0,0,0.0
0.34,0.10466285982723562,77.5,0,100,3.0,0,0.0
0.345,0.08111733445917907,77.5,0,100,3.0,0,0.0
0.35,0.06149084917398798,77.5,0,100,3.0,0,0.0
0.355,0.04559141333598128,77.5,0,100,3.0,0,0.0
0.36,0.03306217087257399,77.5,0,100,3.0,0,0.0
0.365,0.02345067901074276,77.5,0,100,3.0,0,0.0
0.37,0.016268788896435526,77.5,0,100,3.0,0,0.0
0.375,0.011039026374860051,77.5,0,100,3.0,0,0.0
0.38,0.007326255555493689,77.5,0,100,3.0,0,0.0
0.385,0.0047556414315231815,77.5,0,100,3.0,0,0.0
0.39,0.0030193390635632803,77.5,0,100,3.0,0,0.0
0.395,0.001874953127946523,77.5,0,100,3.0,0,0.0
0.4,0.0011387927410965778,77.5,0,100,3.0,0,0.0
0.405,0.0006765107634274089,77.5,0,100,3.0,0,0.0
0.41,0.00039307957404427924,77.5,0,100,3.0,0,0.0
0.415,0.00022338910511776318,77.5,0,100,3.0,0,0.0
0.42,0.00012417073320013317,77.5,0,100,3.0,0,0.0
0.425,6.750753468904987e-05,77.5,0,100,3.0,0,0.0
0.43,3.5897234866245036e-05,77.5,0,100,3.0,0,0.0
0.435,1.8670050400879738e-05,77.5,0,100,3.0,0,0.0
0.44,9.497421874143672e-06,77.5,0,100,3.0,0,0.0
0.445,4.725434140340885e-06,77.5,0,100,3.0,0,0.0
0.45,2.299606063738814e-06,77.5,0,100,3.0,0,0.0
0.455,1.0945633976635486e-06,77.5,0,100,3.0,0,0.0
0.46,5.095703414287532e-07,77.5,0,100,3.0,0,0.0
0.465,2.3202944964797243e-07,77.5,0,100,3.0,0,0.0
0.47,1.0333746954038608e-07,77.5,0,100,3.0,0,0.0
0.475,4.501406988770349e-08,77.5,0,100,3.0,0,0.0
0.48,0.0,77.5,0,100,3.0,0,0.0
0.485,0.0,77.5,0,100,3.0,0,0.0
0.49,0.0,77.5,0,100,3.0,0,0.0
0.495,0.0,77.5,0,100,3.0,0,0.0
0.5,0.0,77.5,0,100,3.0,0,0.0
0.505,0.0,77.5,0,100,3.0,0,0.0
0.51,0.0,77.5,0,100,3.0,0,0.0
0.515,0.0,77.5,0,100,3.0,0,0.0
0.52,0.0,77.5,0,100,3.0,0,0.0
0.525,0.0,77.5,0,100,3.0,0,0.0
0.53,0.0,77.5,0,100,3.0,0,0.0
0.535,0.0,77.5,0,100,3.0,0,0.0
0.54,0.0,77.5,0,100,3.0,0,0.0
0.545,0.0,77.5,0,100,3.0,0,0.0
0.55,0.0,77.5,0,100,3.0,0,0.0
0.555,0.0,77.5,0,100,3.0,0,0.0
0.56,0.0,77.5,0,100,3.0,0,0.0
0.565,0.0,77.5,0,100,3.0,0,0.0
0.57,0.001684486749771458,77.5,0,100,3.0,0,0.0
0.575,0.00456624331333666,77.5,0,100,3.0,0,0.0
0.58,0.011079731271581421,77.5,0,100,3.0,0,0.0
0.585,0.024064571490409,77.5,0,100,3.0,0,0.0
0.59,0.046784906529573234,77.5,0,100,3.0,0,0.0
0.595,0.08141644351188804,77.5,0,100,3.0,0,0.0
0.6,0.12682276464025305,77.5,0,100,3.0,0,0.0
0.605,0.1768320708657512,77.5,0,100,3.0,0,0.0
0.61,0.22070063230473494,77.5,0,100,3.0,0,0.0
0.615,0.24656126505113576,77.5,0,100,3.0,0,0.0
0.62,0.24656126505724016,77.5,0,100,3.0,0,0.0
0.625,0.220700632329898,77.5,0,100,3.0,0,0.0
0.63,0.17683207093748562,77.5,0,100,3.0,0,0.0
0.635,0.12682276483597799,77.5,0,100,3.0,0,0.0
0.64,0.08141644409447898,77.5,0,100,3.0,0,0.0
0.645,0.04678490952598309,77.5,0,100,3.0,0,0.0
0.65,0.024064605020532023,77.5,0,100,3.0,0,0.0
0.655,0.011080171739334697,77.5,0,100,3.0,0,0.0
0.66,0.004571212771509492,77.5,0,100,3.0,0,0.0
0.665,0.0017299316936037438,77.5,0,100,3.0,0,0.0
0.67,0.0008899431850697582,77.5,0,100,3.0,0,0.0
0.675,0.002128806368910263,77.5,0,100,3.0,0,0.0
0.68,0.009309664818487698,77.5,0,100,3.0,0,0.0
0.685,0.03503263543368747,77.5,0,100,3.0,0,0.0
0.69,0.10606267793605692,77.5,0,100,3.0,0,0.0
0.695,0.25734927343160535,77.5,0,100,3.0,0,0.0
0.7,0.5003202479539708,77.5,0,100,3.0,0,0.0
0.705,0.7793067891790435,77.5,0,100,3.0,0,0.0
0.71,0.9720477407234077,77.5000029632167,1,100,3.0,0,5.867755844249559e-08
0.715,0.967267334488097,77.50000712984016,0,100,3.0,0,1.4118495359395125e-07
0.72,0.7505869905515209,77.5000194714447,0,100,3.0,0,3.8557316241455583e-07
0.725,0.4028369574773956,77.50006403966208,0,100,3.0,0,1.2681121203590154e-06
0.73,0.04553881263121314,77.50024503836143,0,100,3.0,0,4.852244780740965e-06
0.735,-0.189138810908105,77.50098936987865,0,100,3.0,0,1.9591482745598493e-05
0.74,-0.22868072635956738,77.50389388012645,0,100,3.0,0,7.710653715752423e-05
0.745,-0.14104670682394166,77.51432894367915,0,100,3.0,0,0.0002837414589929956
0.75,-0.051158381651102834,77.54839812828513,0,100,3.0,0,0.0009583787779233446
0.755,-0.008206426846427752,77.64887051813086,0,100,3.0,0,0.0029479310520963004
0.76,0.005350271385530505,77.9156022259755,0,100,3.0,0,0.008229747049019897
0.765,0.01084668799215426,78.551415236932,0,100,3.0,0,0.020820103701623793
0.77,0.016256859896386415,79.9087326709927,0,100,3.0,0,0.0476976766533209
0.775,0.02345021205790711,82.49540705853538,0,100,3.0,0,0.0989189516541659
0.78,0.0330621597308209,86.8766410249275,0,100,3.0,0,0.18567605989955432
0.785,0.04559141319943196,93.4288216152286,0,100,3.0,0,0.3154222102025465
0.79,0.06149084917446989,101.98894029735766,0,100,3.0,0,0.4849295108387655
0.795,0.08111733445924295,111.57346408347172,0,100,3.0,0,0.6747220610588459
0.8,0.1046628598272375,120.40982181772105,0,100,3.0,0,0.8496994419350703
0.805,0.1320831047748631,126.41759273148509,0,100,3.0,0,0.9686652026036651
0.81,0.16303381314489318,128.0,0,100,3.0,0,1.0
0.815,0.19682662652900276,124.74381015396413,0,100,3.0,0,0.9355209931478047
0.82,0.23241585813229,117.61321624564147,0,100,3.0,0,0.7943211137750785
0.825,0.26842527782774417,108.516714797569,0,100,3.0,0,0.614192372229089
0.83,0.30321927900592993,99.5133886516984,0,100,3.0,0,0.43590868617224565
0.835,0.3350163137995362,92.10783014594557,0,100,3.0,0,0.2892639632860509
0.84,0.3620352400956416,86.94895560666967,0,100,3.0,0,0.187108031815241
0.845,0.3826586036805073,83.94943192645692,0,100,3.0,0,0.12771152329617672
0.85,0.39559233134833227,82.62145439320233,0,100,3.0,0,0.10141493847925401
0.855,0.4,82.3977614738222,0,100,3.0,0,0.09698537571925149
0.86,0.39559233134833227,82.8162323398421,0,100,3.0,0,0.10527192752162579
0.865,0.3826586036805073,83.56812750234484,0,100,3.0,0,0.1201609406404918
0.87,0.3620352400956416,84.46928792877765,0,100,3.0,0,0.1380057015599534
0.875,0.3350163137995362,85.41153093344663,0,100,3.0,0,0.15666397888013123
0.88,0.3032192790059296,86.32433114274932,0,100,3.0,0,0.1747392305494914
0.885,0.26842527782774417,87.15353818842898,0,100,3.0,0,0.19115917204809865
0.89,0.23241585813229,87.85308057266846,0,100,3.0,0,0.20501149648848438
0.895,0.19682662652900276,88.38380752300874,0,100,3.0,0,0.21552094104967803
0.9,0.16303381314489318,88.71525251608587,0,100,3.0,0,0.22208420823932412
0.905,0.13208310477486307,88.82796491611877,0,100,3.0,0,0.224316136952847
0.91,0.10466285982723562,88.71524935893723,0,100,3.0,0,0.22208414572152926
0.915,0.08111733445917907,88.3837885894648,0,100,3.0,0,0.21552056612801584
0.92,0.06149084917398798,87.85297994901912,0,100,3.0,0,0.2050095039409726
0.925,0.04559141333598128,87.15305452124724,0,100,3.0,0,0.1911495944801434
0.93,0.03306217087257399,86.32222756000658,0,100,3.0,0,0.17469757544567488
0.935,0.02345067901074276,85.40325259759987,0,100,3.0,0,0.15650005143762127
0.94,0.016268788896435526,84.43980999536285,0,100,3.0,0,0.13742198010619505
0.945,0.011039026374860051,83.4731498178831,0,100,3.0,0,0.11828019441352669
0.95,0.007326255555493689,82.53933634560707,0,100,3.0,0,0.09978883852687265
0.955,0.0047556414315231815,81.66732522001253,0,100,3.0,0,0.08252129148539661
0.96,0.0030193390635632803,80.8779681711764,0,100,3.0,0,0.06689045883517634
0.965,0.001874953127946523,80.18390922018638,0,100,3.0,0,0.05314671723141345
0.97,0.0011387927410965778,79.59023060237372,0,100,3.0,0,0.04139070499749946
0.975,0.0006765107634274089,79.09563918028746,0,100,3.0,0,0.0315968154512369
0.98,0.00039307957404427924,78.69395866561004,0,100,3.0,0,0.023642745853664163
0.985,0.00022338910511776318,78.3757053491493,0,100,3.0,0,0.017340699983154448
0.99,0.00012417073320013317,78.12956535899671,0,100,3.0,0,0.012466640772212169
0.995,6.750753468904987e-05,77.94364721018448,0,100,3.0,0,0.0087850932709798
1.0,3.5897234866245036e-05,77.8064423587659,0,100,3.0,0,0.0060681655201169585
1.005,1.8670050400879738e-05,77.70747890563989,0,100,3.0,0,0.004108493180987891
1.01,9.497421874143672e-06,77.63769342762592,0,100,3.0,0,0.0027266025272459243
1.015,4.725434140340885e-06,77.58957082695429,0,100,3.0,0,0.0017736797416690402
1.02,2.299606063738814e-06,77.55711288083009,0,100,3.0,0,0.0011309481352493032
1.025,1.0945633976635486e-06,77.53569568006696,0,100,3.0,0,0.000706845149840891
1.03,5.095703414287532e-07,77.52186811576739,0,100,3.0,0,0.0004330319953938593
1.035,2.3202944964797243e-07,77.51313170683527,0,100,3.0,0,0.0002600337987181626
1.04,1.0333746954038608e-07,77.5077293879036,0,100,3.0,0,0.00015305718620979995
1.045,4.501406988770349e-08,77.50445946888534,0,100,3.0,0,8.830631456126047e-05
1.05,0.0,77.50252194309775,0,100,3.0,0,4.993946728212328e-05
1.055,0.0,77.50139798186963,0,100,3.0,0,2.7682809299602303e-05
1.06,0.0,77.50075959466382,0,100,3.0,0,1.5041478491465937e-05
1.065,0.0,77.50040455389004,0,100,3.0,0,8.010968119518535e-06
1.07,0.0,77.50021119564977,0,100,3.0,0,4.182092074625142e-06
1.075,0.001684486749771458,77.50010807062557,0,100,3.0,0,2.140012387565431e-06
1.08,0.00456624331333666,77.50005420563956,0,100,3.0,0,1.0733790011362553e-06
1.085,0.011079731271581421,77.50002664988816,0,100,3.0,0,5.277205575409182e-07
1.09,0.024064571490409,77.50001284282068,0,100,3.0,0,2.5431328080599943e-07
1.095,0.046784906529573234,77.50000606651894,0,100,3.0,0,1.2012908782573036e-07
1.1,0.08141644351188804,77.50000280887754,0,100,3.0,0,5.5621337414867424e-08
1.105,0.12682276464025305,77.50000127479446,0,100,3.0,0,2.5243454587379714e-08
1.11,0.1768320708657512,77.50000056710259,0,100,3.0,0,1.1229754235419834e-08
1.115,0.22070063230473494,77.50000024728467,0,100,3.0,0,4.8967262280189734e-09
1.12,0.24656126505113576,77.50000010569316,0,100,3.0,0,2.0929338790107193e-09
1.125,0.24656126505724016,77.50000004428031,0,100,3.0,0,8.768378762343304e-10
1.13,0.220700632329898,77.50000001818397,0,100,3.0,0,3.600785764166797e-10
1.135,0.17683207093748562,77.50000000731949,0,100,3.0,0,1.4494030618170475e-10
1.14,0.12682276483597799,77.50000000288793,0,100,3.0,0,5.71867305984822e-11
1.145,0.08141644409447898,77.50000000111687,0,100,3.0,0,2.211631098280933e-11
1.15,0.04678490952598309,77.50000000042338,0,100,3.0,0,8.383841475841848e-12
1.155,0.024064605020532023,77.50000000015733,0,100,3.0,0,3.1154133178614134e-12
1.16,0.011080171739334697,77.5000000000573,0,100,3.0,0,1.1346171527068214e-12
1.165,0.004571212771509492,77.50000000002045,0,100,3.0,0,4.0493900861734025e-13
1.17,0.0017299316936037438,77.50000000000716,0,100,3.0,0,1.4182714408835267e-13
1.175,0.0008899431850697582,77.50000000000246,0,100,3.0,0,4.868273001445439e-14
1.18,0.002128806368910263,77.50000000000082,0,100,3.0,0,1.632137769270725e-14
1.185,0.009309664818487698,77.50000000000027,0,100,3.0,0,5.346658209679962e-15
1.19,0.03503263543368747,77.50000000000009,0,100,3.0,0,1.6884183820041984e-15
1.195,0.10606267793605692,77.50000000000003,0,100,3.0,0,5.628061273347328e-16
1.2,0.25734927343160535,77.50000000000001,0,100,3.0,0,2.814030636673664e-16
1.205,0.5003202479539708,77.5,0,100,3.0,1,0.0
1.21,0.7793067891790435,77.5,0,100,3.0,1,0.0
1.215,0.9720477407234077,77.5000029761183,1,100,3.0,1,5.8933035560504224e-08
1.22,0.967267334488097,77.50000618532628,0,100,3.0,1,1.2248170861258217e-07
1.225,0.7505869905515209,77.50001392552794,0,100,3.0,1,2.7575302847298647e-07
1.23,0.4028369574773956,77.50003551779191,0,100,3.0,1,7.033226121719882e-07
1.235,0.04553881263121314,77.50010313559092,0,100,3.0,1,2.0422889290915523e-06
1.24,-0.189138810908105,77.50032572609189,0,100,3.0,1,6.450021621528529e-06
1.245,-0.22868072635956738,77.50105352781613,0,100,3.0,1,2.0861936952983477e-05
1.25,-0.14104670682394166,77.50333849843346,0,100,3.0,1,6.610887987058545e-05
1.255,-0.051158381651102834,77.51010867794061,0,100,3.0,1,0.00020017184040806803
1.26,-0.008206426846427752,77.52887923627338,0,100,3.0,1,0.0005718660648194646
1.265,0.005350271385530505,77.57736547743413,0,100,3.0,1,0.0015319896521609532
1.27,0.01084668799215426,77.6937614840257,0,100,3.0,1,0.003836861069815838
1.275,0.016256859896386415,77.95299178483792,0,100,3.0,1,0.008970134353226137
1.28,0.02345021205790711,78.48782060961162,0,100,3.0,1,0.019560804150725097
1.285,0.0330621597308209,79.50840637712494,0,100,3.0,1,0.03977042330940479
1.29,0.04559141319943196,81.30639038119868,0,100,3.0,1,0.07537406695442934
1.295,0.06149084917446989,84.22371682098306,0,100,3.0,1,0.13314290734619916
1.3,0.08111733445924295,88.56905596488694,0,100,3.0,1,0.2191892270274642
1.305,0.1046628598272375,94.48254071967199,0,100,3.0,1,0.3362879350430097
1.31,0.1320831047748631,101.78187771882364,0,100,3.0,1,0.4808292617588839
1.315,0.16303381314489318,109.85607098931862,0,100,3.0,1,0.6407142770162104
1.32,0.19682662652900276,117.68289868067583,0,100,3.0,1,0.7957009639737789
1.325,0.23241585813229,124.01296766753546,0,100,3.0,1,0.9210488647036725
1.33,0.26842527782774417,127.69015041412591,0,100,3.0,1,0.9938643646361566
1.335,0.30321927900592993,128.0,0,100,3.0,1,1.0
1.34,0.3350163137995362,124.90331438199323,0,100,3.0,1,0.9386794927127372
1.345,0.3620352400956416,119.0509908262225,0,100,3.0,1,0.8227918975489604
1.35,0.3826586036805073,111.57334395352093,0,100,3.0,1,0.6747196822479392
1.355,0.39559233134833227,103.73799888891169,0,100,3.0,1,0.5195643344338948
1.36,0.4,96.61848240541384,0,100,3.0,1,0.3785838100081949
1.365,0.39559233134833227,90.88948241854119,0,100,3.0,1,0.265138265713687
1.37,0.3826586036805073,86.7893676493135,0,100,3.0,1,0.18394787424383177
1.375,0.3620352400956416,84.21448228450262,0,100,3.0,1,0.13296004523767568
1.38,0.3350163137995362,82.8706742557033,0,100,3.0,1,0.10634998526145162
1.385,0.3032192790059296,82.41285373443978,0,100,3.0,1,0.09728423236514412
1.39,0.26842527782774417,82.53508919471457,0,100,3.0,1,0.09970473652900144
1.395,0.23241585813229,83.00723630449004,0,100,3.0,1,0.10905418424732743
1.4,0.19682662652900276,83.67399525905368,0,100,3.0,1,0.12225733186244916
1.405,0.16303381314489318,84.43655035035052,0,100,3.0,1,0.13735743268020822
1.41,0.13208310477486307,85.23167363197578,0,100,3.0,1,0.15310244815793625
1.415,0.10466285982723562,86.01556443973125,0,100,3.0,1,0.1686250384105198
1.42,0.08111733445917907,86.75400535564901,0,100,3.0,1,0.18324763080493095
1.425,0.06149084917398798,87.41763420030695,0,100,3.0,1,0.19638879604568216
1.43,0.04559141333598128,87.98046505761806,0,100,3.0,1,0.20753396153699133
1.435,0.03306217087257399,88.42010861624007,0,100,3.0,1,0.2162397745790113
1.44,0.02345067901074276,88.71867720825321,0,100,3.0,1,0.22215202392580616
1.445,0.016268788896435526,88.86378878992376,0,100,3.0,1,0.2250255205925497
1.45,0.011039026374860051,88.84935272165478,0,100,3.0,1,0.22473965785455013
1.455,0.007326255555493689,88.67597412457343,0,100,3.0,1,0.22130641830838474
1.46,0.0047556414315231815,88.3509063891692,0,100,3.0,1,0.21486943344889498
1.465,0.0030193390635632803,87.88754641372572,0,100,3.0,1,0.20569398839060823
1.47,0.001874953127946523,87.30451845386142,0,100,3.0,1,0.19414888027448354
1.475,0.0011387927410965778,86.62443306399382,0,100,3.0,1,0.18068184285136277
1.48,0.0006765107634274089,85.87243609243906,0,100,3.0,1,0.16579081371166454
1.485,0.00039307957404427924,85.07467708397961,0,100,3.0,1,0.1499936056233586
1.49,0.00022338910511776318,84.25682600304509,0,100,3.0,1,0.13379853471376418
1.495,0.00012417073320013317,83.4427529734118,0,100,3.0,1,0.11767827670122376
1.5,6.750753468904987e-05,82.65346049137668,0,100,3.0,1,0.10204872260151836
1.505,3.5897234866245036e-05,81.90632528007868,0,100,3.0,1,0.087253965942152
1.51,1.8670050400879738e-05,81.21467213191562,0,100,3.0,1,0.07355786399832911
1.515,9.497421874143672e-06,80.58766909939999,0,100,3.0,1,0.06114196236435621
1.52,4.725434140340885e-06,80.03050585017243,0,100,3.0,1,0.05010902673608776
1.525,2.299606063738814e-06,79.54479733357823,0,100,3.0,1,0.04049103630847982
1.53,1.0945633976635486e-06,79.12914419384192,0,100,3.0,1,0.03226028106617671
1.535,5.095703414287532e-07,78.77977938473101,0,100,3.0,1,0.025342166034277518
1.54,2.3202944964797243e-07,78.49123590647207,0,100,3.0,1,0.019628433791526147
1.545,1.0333746954038608e-07,78.25698150946495,0,100,3.0,1,0.014989732860692077
1.55,4.501406988770349e-08,78.06998030229119,0,100,3.0,1,0.01128673865923139
1.555,0.0,77.9231562441036,0,100,3.0,1,0.008379331566407817
1.56,0.0,77.80974762879951,0,100,3.0,1,0.006133616411871556
1.565,0.0,77.72355354312545,0,100,3.0,1,0.004426802834167279
1.57,0.0,77.65908215107021,0,100,3.0,1,0.0031501416053506637
1.575,0.0,77.61161631556492,0,100,3.0,1,0.002210224070592399
1.58,0.0,77.5772147447986,0,100,3.0,1,0.0015290048474969466
1.585,0.0,77.55266706642777,0,100,3.0,1,0.001042912206490556
1.59,0.0,77.53541965668042,0,100,3.0,1,0.0007013793402062909
1.595,0.0,77.52348636988228,0,100,3.0,1,0.0004650766313322339
1.6,0.0,77.51535513982303,0,100,3.0,1,0.00030406217471344875
1.605,0.0,77.50989824011825,0,100,3.0,1,0.0001960047548167684
1.61,0.0,77.50629112804937,0,100,3.0,1,0.00012457679305681935
1.615,0.0,77.50394244274653,0,100,3.0,1,7.80681731987105e-05
1.62,0.0,77.50243595126653,0,100,3.0,1,4.8236658743251e-05
1.625,0.0,77.50148401443865,0,100,3.0,1,2.9386424527632303e-05
1.63,0.0,77.50089140278692,0,100,3.0,1,1.7651540335041004e-05
1.635,0.0,77.50052792980212,0,100,3.0,1,1.045405548748337e-05
1.64,0.0,77.50030827953894,0,100,3.0,1,6.104545325579148e-06
1.645,0.0,77.50017749231459,0,100,3.0,1,3.5146992988441947e-06
1.65,0.0,77.5001007582777,0,100,3.0,1,1.995213419730693e-06
1.655,0.0,77.50005639599301,0,100,3.0,1,1.1167523368975266e-06
1.66,0.0,77.50003112304574,0,100,3.0,1,6.162979355277718e-07
1.665,0.0,77.5000169348855,0,100,3.0,1,3.35344267206424e-07
1.67,0.0,77.50000908549865,0,100,3.0,1,1.7991086429217397e-07
1.675,0.001684486749771458,77.50000480597605,0,100,3.0,1,9.516784252179542e-08
1.68,0.00456624331333666,77.50000250657536,0,100,3.0,1,4.963515556762041e-08
1.685,0.011079731271581421,77.50000128898024,0,100,3.0,1,2.5524361256042774e-08
1.69,0.024064571490409,77.5000006535489,0,100,3.0,1,1.2941562277269936e-08
1.695,0.046784906529573234,77.5000003267204,0,100,3.0,1,6.469710822082309e-09
1.7,0.08141644351188804,77.50000016104258,0,100,3.0,1,3.1889619481937712e-09
1.705,0.12682276464025305,77.50000007826571,0,100,3.0,1,1.5498161170254738e-09
1.71,0.1768320708657512,77.50000003750323,0,100,3.0,1,7.426381621866816e-10
1.715,0.22070063230473494,77.50000001771872,0,100,3.0,1,3.508657215152738e-10
1.72,0.24656126505113576,77.50000000825395,0,100,3.0,1,1.6344452743927976e-10
1.725,0.24656126505724016,77.50000000379104,0,100,3.0,1,7.5070176697607e-11
1.73,0.220700632329898,77.5000000017168,0,100,3.0,1,3.399602271859087e-11
1.735,0.17683207093748562,77.50000000076656,0,100,3.0,1,1.517944406034508e-11
1.74,0.12682276483597799,77.50000000033748,0,100,3.0,1,6.682759955972617e-12
1.745,0.08141644409447898,77.50000000014649,0,100,3.0,1,2.900702780283213e-12
1.75,0.04678490952598309,77.5000000000627,0,100,3.0,1,1.2415503169004206e-12
1.755,0.024064605020532023,77.50000000002646,0,100,3.0,1,5.239725045486363e-13
1.76,0.011080171739334697,77.50000000001101,0,100,3.0,1,2.1808737434220896e-13
1.765,0.004571212771509492,77.50000000000452,0,100,3.0,1,8.948617424622252e-14
1.77,0.0017299316936037438,77.50000000000182,0,100,3.0,1,3.60195921494229e-14
1.775,0.0008899431850697582,77.50000000000072,0,100,3.0,1,1.4351556247035687e-14
1.78,0.002128806368910263,77.50000000000028,0,100,3.0,1,5.6280612733473285e-15
1.785,0.009309664818487698,77.50000000000011,0,100,3.0,1,2.2512245093389313e-15
1.79,0.03503263543368747,77.50000000000004,0,100,3.0,1,8.442091910020992e-16
1.795,0.10606267793605692,77.50000000000001,0,100,3.0,1,2.814030636673664e-16
1.8,0.25734927343160535,77.5,0,100,3.0,1,0.0
1.805,0.5003202479539708,77.5,0,100,3.0,1,0.0
1.81,0.7793067891790435,77.5,0,100,3.0,1,0.0
1.815,0.9720477407234077,77.5000029632167,1,100,3.0,1,5.867755844249559e-08
1.82,0.967267334488097,77.50000655696266,0,100,3.0,1,1.298408447513397e-07
1.825,0.7505869905515209,77.50001601034491,0,100,3.0,1,3.170365328240241e-07
1.83,0.4028369574773956,77.50004544101657,0,100,3.0,1,8.99822110244317e-07
1.835,0.04553881263121314,77.50014869178591,0,100,3.0,1,2.9443918001921736e-06
1.84,-0.189138810908105,77.50052429040315,0,100,3.0,1,1.0381988181169357e-05
1.845,-0.22868072635956738,77.50185613108916,0,100,3.0,1,3.675507107238833e-05
1.85,-0.14104670682394166,77.50631081326587,0,100,3.0,1,0.0001249665993241544
1.855,-0.051158381651102834,77.52014975748361,0,100,3.0,1,0.000399005098685312
1.86,-0.008206426846427752,77.55979081098688,0,100,3.0,1,0.001183976455185793
1.865,0.005350271385530505,77.66409531549888,0,100,3.0,1,0.003249412188096704
1.87,0.01084668799215426,77.9156022259755,0,100,3.0,1,0.008229747049019897
1.875,0.016256859896386415,78.47030047466006,0,100,3.0,1,0.019213870785347805
1.88,0.02345021205790711,79.58710350394266,0,100,3.0,1,0.04132878225629024
1.885,0.0330621597308209,81.63493153707977,0,100,3.0,1,0.0818798324174211
1.89,0.04559141319943196,85.04422605737544,0,100,3.0,1,0.14939061499753345
1.895,0.06149084917446989,90.17506082931254,0,100,3.0,1,0.2509913035507434
1.9,0.08111733445924295,97.10922237651356,0,100,3.0,1,0.38830143319828825
1.905,0.1046628598272375,105.4348054683108,0,100,3.0,1,0.5531644647190257
1.91,0.1320831047748631,114.14543827115567,0,100,3.0,1,0.7256522429931815
1.915,0.16303381314489318,121.77068305917047,0,100,3.0,1,0.8766471892905042
1.92,0.19682662652900276,126.76053431716763,0,100,3.0,1,0.9754561250924282
1.925,0.23241585813229,128.0,0,100,3.0,1,1.0
1.93,0.26842527782774417,125.22328551958378,0,100,3.0,1,0.9450155548432432
1.935,0.30321927900592993,119.11876940758584,0,100,3.0,1,0.8241340476749672
1.94,0.3350163137995362,111.06952938464173,0,100,3.0,1,0.6647431561315194
1.945,0.3620352400956416,102.6640997429807,0,100,3.0,1,0.4982990048114989
1.95,0.3826586036805073,95.21435532988534,0,100,3.0,1,0.35077931346307595
1.955,0.39559233134833227,89.47593013908856,0,100,3.0,1,0.23714713146710023
1.96,0.4,85.62914672129747,0,100,3.0,1,0.16097320240193017
1.965,0.39559233134833227,83.44602405169233,0,100,3.0,1,0.11774305052856106
1.97,0.3826586036805073,82.51418034326288,0,100,3.0,1,0.09929069986659167
1.975,0.3620352400956416,82.41498968684074,0,100,3.0,1,0.09732652845229191
1.98,0.3350163137995362,82.8162323398421,0,100,3.0,1,0.10527192752162579
1.985,0.3032192790059296,83.49152410841626,0,100,3.0,1,0.11864404175081698
1.99,0.26842527782774417,84.29989131592993,0,100,3.0,1,0.1346513131867312
1.995,0.23241585813229,85.15492185345755,0,100,3.0,1,0.15158261095955547
2.0,0.19682662652900276,85.99944257654766,0,100,3.0,1,0.16830579359500328
2.005,0.16303381314489318,86.7900828794801,0,100,3.0,1,0.18396203721742763
2.01,0.13208310477486307,87.49011325161499,0,100,3.0,1,0.19782402478445515
2.015,0.10466285982723562,88.06741819367026,0,100,3.0,1,0.20925580581525274
2.02,0.08111733445917907,88.49500148369576,0,100,3.0,1,0.21772280165734176
2.025,0.06149084917398798,88.7523881564347,0,100,3.0,1,0.22281956745415257
2.03,0.04559141333598128,88.82702867957946,0,100,3.0,1,0.22429759761543477
2.035,0.03306217087257399,88.71524935893724,0,100,3.0,1,0.22208414572152957
2.04,0.02345067901074276,88.42253532440515,0,100,3.0,1,0.2162878282060425
2.045,0.016268788896435526,87.96308039899121,0,100,3.0,1,0.20718971087111307
2.05,0.011039026374860051,87.35864540324948,0,100,3.0,1,0.1952207010544452
2.055,0.007326255555493689,86.6368502846674,0,100,3.0,1,0.1809277284092555
2.06,0.0047556414315231815,85.82908607103306,0,100,3.0,1,0.16493239744619922
2.065,0.0030193390635632803,84.96826586573214,0,100,3.0,1,0.14788645278677495
2.07,0.001874953127946523,84.08663760203554,0,100,3.0,1,0.13042846736704033
2.075,0.0011387927410965778,83.2138567338529,0,100,3.0,1,0.11314567789807708
2.08,0.0006765107634274089,82.37547016896139,0,100,3.0,1,0.09654396374180961
2.085,0.00039307957404427924,81.5919021412145,0,100,3.0,1,0.08102776517256444
2.09,0.00022338910511776318,80.8779681711764,0,100,3.0,1,0.06689045883517634
2.095,0.00012417073320013317,80.24288403167223,0,100,3.0,1,0.054314535280638274
2.1,6.750753468904987e-05,79.69068996060383,0,100,3.0,1,0.043379999219877896
2.105,3.5897234866245036e-05,79.22098057593206,0,100,3.0,1,0.03407882328578337
2.11,1.8670050400879738e-05,78.82981919714364,0,100,3.0,1,0.026333053408784855
2.115,9.497421874143672e-06,78.51071987622515,0,100,3.0,1,0.0200142549747555
2.12,4.725434140340885e-06,78.25559764113524,0,100,3.0,1,0.014962329527430474
2.125,2.299606063738814e-06,78.05561243800646,0,100,3.0,1,0.011002226495177486
2.13,1.0945633976635486e-06,77.90186011486975,0,100,3.0,1,0.007957626037024722
2.135,5.095703414287532e-07,77.78589030472493,0,100,3.0,1,0.00566119415296891
2.14,2.3202944964797243e-07,77.70005321255698,0,100,3.0,1,0.003961449753603574
2.145,1.0333746954038608e-07,77.63769342762592,0,100,3.0,1,0.0027266025272459243
2.15,4.501406988770349e-08,77.59321857741432,0,100,3.0,1,0.001845912424045926
2.155,0.0,77.56207451138886,0,100,3.0,1,0.0012291982453239098
2.16,0.0,77.54065797339315,0,100,3.0,1,0.0008051083840228168
2.165,0.0,77.5261938733732,0,100,3.0,1,0.0005186905618455908
2.17,0.0,77.51659874675121,0,100,3.0,1,0.0003286880544794825
2.175,0.0,77.51034599949604,0,100,3.0,1,0.00020487127714928458
2.18,0.0,77.50634294850691,0,100,3.0,1,0.00012560294073093452
2.185,0.0,77.50382500050979,0,100,3.0,1,7.574258435232031e-05
2.19,0.0,77.50226878523836,0,100,3.0,1,4.4926440363503776e-05
2.195,0.0,77.5013236612559,0,100,3.0,1,2.6211113978129872e-05
2.2,0.0,77.50075959466382,0,100,3.0,1,1.5041478491465937e-05
2.205,0.0,77.50042875434282,0,100,3.0,1,8.490185006347038e-06
2.21,0.0,77.50023804372503,0,100,3.0,1,4.71373712938171e-06
2.215,0.0,77.50012999496224,0,100,3.0,1,2.5741576680479963e-06
2.22,0.0,77.50006982611599,0,100,3.0,1,1.3826953661329285e-06
2.225,0.0,77.50003689188343,0,100,3.0,1,7.305323450590648e-07
2.23,0.001684486749771458,77.50001917190855,0,100,3.0,1,3.7964175342242717e-07
2.235,0.00456624331333666,77.50000979989558,0,100,3.0,1,1.9405733820745484e-07
2.24,0.011079731271581421,77.50000492718793,0,100,3.0,1,9.7568077832632e-08
2.245,0.024064571490409,77.50000243667935,0,100,3.0,1,4.825107628739085e-08
2.25,0.046784906529573234,77.50000118527527,0,100,3.0,1,2.34707973540575e-08
2.255,0.08141644351188804,77.50000056710259,0,100,3.0,1,1.1229754235419834e-08
2.26,0.12682276464025305,77.5000002668859,0,100,3.0,1,5.284869413378264e-09
2.265,0.1768320708657512,77.50000012354103,0,100,3.0,1,2.4463569915686023e-09
2.27,0.22070063230473494,77.50000005624946,0,100,3.0,1,1.1138507322204245e-09
2.275,0.24656126505113576,77.5000000251911,0,100,3.0,1,4.988336432589757e-10
2.28,0.24656126505724016,77.50000001109679,0,100,3.0,1,2.197383661167454e-10
2.285,0.220700632329898,77.50000000480806,0,100,3.0,1,9.520906835202575e-11
2.29,0.17683207093748562,77.50000000204909,0,100,3.0,1,4.05760705563249e-11
2.295,0.12682276483597799,77.50000000085898,0,100,3.0,1,1.7009408183373963e-11
2.3,0.08141644409447898,77.50000000035418,0,100,3.0,1,7.013408555781773e-12
2.305,0.04678490952598309,77.50000000014364,0,100,3.0,1,2.8444221675497395e-12
2.31,0.024064605020532023,77.5000000000573,0,100,3.0,1,1.1346171527068214e-12
2.315,0.011080171739334697,77.50000000002248,0,100,3.0,1,4.4517964672177365e-13
2.32,0.004571212771509492,77.50000000000868,0,100,3.0,1,1.7193727190076088e-13
2.325,0.0017299316936037438,77.5000000000033,0,100,3.0,1,6.5285510770829e-14
2.33,0.0008899431850697582,77.50000000000122,0,100,3.0,1,2.420066347539351e-14
2.335,0.002128806368910263,77.50000000000045,0,100,3.0,1,9.004898037355725e-15
2.34,0.009309664818487698,77.50000000000016,0,100,3.0,1,3.0954337003410305e-15
2.345,0.03503263543368747,77.50000000000006,0,100,3.0,1,1.1256122546694657e-15
2.35,0.10606267793605692,77.50000000000001,0,100,3.0,1,2.814030636673664e-16
2.355,0.25734927343160535,77.5,0,100,3.0,1,0.0
2.36,0.5003202479539708,77.5,0,100,3.0,1,0.0
2.365,0.7793067891790435,77.5,0,100,3.0,1,0.0
2.37,0.9720477407234077,77.50000297285139,1,100,3.0,1,5.886834437300386e-08
2.375,0.967267334488097,77.50000530693545,0,100,3.0,1,1.0508783067944203e-07
2.38,0.7505869905515209,77.50000990358893,0,100,3.0,1,1.9611067192173403e-07
2.385,0.4028369574773956,77.50001982409212,0,100,3.0,1,3.925562796189522e-07
2.39,0.04553881263121314,77.50004325455077,0,100,3.0,1,8.565257579191732e-07
2.395,-0.189138810908105,77.50010225221547,0,100,3.0,1,2.024796345938397e-06
2.4,-0.22868072635956738,77.50025515447763,0,100,3.0,1,5.052563913428493e-06
2.405,-0.14104670682394166,77.50065111312873,0,100,3.0,1,1.2893329281692192e-05
2.41,-0.051158381651102834,77.5016556352955,0,100,3.0,2,3.2784857336760114e-05
2.415,-0.008206426846427752,77.5041230530985,0,100,3.0,2,8.164461581180482e-05
2.42,0.005350271385530505,77.50995217468612,0,100,3.0,2,0.00019707276606178168
2.425,0.01084668799215426,77.52314677080123,0,100,3.0,2,0.00045835189705412224
2.43,0.016256859896386415,77.5516998892318,0,100,3.0,2,0.0010237601828078926
2.435,0.02345021205790711,77.61068779041351,0,100,3.0,2,0.002191837433930842
2.44,0.0330621597308209,77.72691068411858,0,100,3.0,2,0.004493280873635225
2.445,0.04559141319943196,77.94512791048818,0,100,3.0,2,0.008814414069072912
2.45,0.06149084917446989,78.33527463778944,0,100,3.0,2,0.016540091837414637
2.455,0.08111733445924295,78.99896604759932,0,100,3.0,2,0.029682495992065835
2.46,0.1046628598272375,80.07224939630862,0,100,3.0,2,0.0509356316100717
2.465,0.1320831047748631,81.7204261052448,0,100,3.0,2,0.08357279416326331
2.47,0.16303381314489318,84.12061794345547,0,100,3.0,2,0.13110134541495982
2.475,0.19682662652900276,87.42946229750719,0,100,3.0,2,0.1966230157922215
2.48,0.23241585813229,91.73737700835858,0,100,3.0,2,0.281928257591259
2.485,0.26842527782774417,97.01676931629909,0,100,3.0,2,0.38647067953067504
2.49,0.30321927900592993,103.07762067403631,0,100,3.0,2,0.5064875380997289
2.495,0.3350163137995362,109.547285918079,0,100,3.0,2,0.6345997211500791
2.5,0.3620352400956416,115.88935489775758,0,100,3.0,2,0.7601852455001502
2.505,0.3826586036805073,121.46784149663092,0,100,3.0,2,0.8706503266659589
2.51,0.39559233134833227,125.64938173597014,0,100,3.0,2,0.953453103682577
2.515,0.4,127.92198762400466,0,100,3.0,2,0.9984552004753398
2.52,0.39559233134833227,128.0,0,100,3.0,2,1.0
2.525,0.3826586036805073,125.88570936592106,0,100,3.0,2,0.9581328587311101
2.53,0.3620352400956416,121.86945869225406,0,100,3.0,2,0.8786031424208725
2.535,0.3350163137995362,116.46818566284037,0,100,3.0,2,0.7716472408483241
2.54,0.3032192790059296,110.32052036510477,0,100,3.0,2,0.6499112943585102
2.545,0.26842527782774417,104.06793787527148,0,100,3.0,2,0.5260977797083461
2.55,0.23241585813229,98.25233612633701,0,100,3.0,2,0.4109373490363765
2.555,0.19682662652900276,93.25154000116,0,100,3.0,2,0.31191168319128704
2.56,0.16303381314489318,89.26010953581861,0,100,3.0,2,0.23287345615482405
2.565,0.13208310477486307,86.30923714188744,0,100,3.0,2,0.17444033944331558
2.57,0.10466285982723562,84.31091336779528,0,100,3.0,2,0.1348695716395105
2.575,0.08111733445917907,83.10952769876539,0,100,3.0,2,0.11107975641119584
2.58,0.06149084917398798,82.52746353808783,0,100,3.0,2,0.09955373342748178
2.585,0.04559141333598128,82.39730098895348,0,100,3.0,2,0.09697625720699951
2.59,0.03306217087257399,82.57918101493716,0,100,3.0,2,0.10057784187994381
2.595,0.02345067901074276,82.96594925603675,0,100,3.0,2,0.10823661893142081
2.6,0.016268788896435526,83.48041632384403,0,100,3.0,2,0.11842408562067377
2.605,0.011039026374860051,84.0689265815959,0,100,3.0,2,0.130077754091008
2.61,0.007326255555493689,84.69428770080845,0,100,3.0,2,0.14246114259026624
2.615,0.0047556414315231815,85.32976261477468,0,100,3.0,2,0.15504480425296396
2.62,0.0030193390635632803,85.9547373404871,0,100,3.0,2,0.16742054139578416
2.625,0.001874953127946523,86.5520100326897,0,100,3.0,2,0.17924772341959788
2.63,0.0011387927410965778,87.10635008646118,0,100,3.0,2,0.19022475418735005
2.635,0.0006765107634274089,87.6039216179347,0,100,3.0,2,0.20007765580068718
2.64,0.00039307957404427924,88.03222807837258,0,100,3.0,2,0.20855897184896205
2.645,0.00022338910511776318,88.38032945552969,0,100,3.0,2,0.2154520684263305
2.65,0.00012417073320013317,88.63916817841286,0,100,3.0,2,0.22057758769134375
2.655,6.750753468904987e-05,88.80190141292597,0,100,3.0,2,0.2238000279787321
2.66,3.5897234866245036e-05,88.86417765780887,0,100,3.0,2,0.22503322094671024
2.665,1.8670050400879738e-05,88.8243209032272,0,100,3.0,2,0.2242439782817268
2.67,9.497421874143672e-06,88.68340224316833,0,100,3.0,2,0.22145350976570952
2.675,4.725434140340885e-06,88.44519089570802,0,100,3.0,2,0.2167364533803569
2.68,2.299606063738814e-06,88.11598630073253,0,100,3.0,2,0.21021755050955504
2.685,1.0945633976635486e-06,87.70434120731186,0,100,3.0,2,0.20206616252102685
2.69,5.095703414287532e-07,87.22069255967514,0,100,3.0,2,0.1924889615777256
2.695,2.3202944964797243e-07,86.67692234944266,0,100,3.0,2,0.18172123464242895
2.7,1.0333746954038608e-07,86.08587417136057,0,100,3.0,2,0.17001731032397174
2.705,4.501406988770349e-08,85.46085283042133,0,100,3.0,2,0.1576406501073531
2.71,0.0,84.81513397505938,0,100,3.0,2,0.14485413811998776
2.715,0.0,84.16150851063993,0,100,3.0,2,0.13191105961663235
2.72,0.0,83.51188276402677,0,100,3.0,2,0.11904718344607457
2.725,0.0,82.87695042266316,0,100,3.0,2,0.10647426579531004
2.73,0.0,82.26594662960856,0,100,3.0,2,0.094375180784328
2.735,0.0,81.68648876981439,0,100,3.0,2,0.08290076771909681
2.74,0.0,81.14450289682222,0,100,3.0,2,0.07216837419449935
2.745,0.0,80.64422982036547,0,100,3.0,2,0.06226197664090034
2.75,0.0,80.18830090453895,0,100,3.0,2,0.05323368127799898
2.755,0.0,79.77787079978671,0,100,3.0,2,0.04510635247102399
2.76,0.0,79.41279271871764,0,100,3.0,2,0.037877083538963165
2.765,0.0,79.09182142510376,0,100,3.0,2,0.03152121633868831
2.77,0.0,78.81282970556603,0,100,3.0,2,0.025996627832990716
2.775,0.0,78.57302553611746,0,100,3.0,2,0.02124803041816744
2.78,0.0,78.36915920379164,0,100,3.0,2,0.0172110733424087
2.785,0.0,78.19771204836658,0,100,3.0,2,0.013816080165674908
2.79,0.0,78.05506101455126,0,100,3.0,2,0.010991307218836762
2.795,0.0,77.93761564616551,0,100,3.0,2,0.008665656359713097
2.8,0.0,77.84192634995824,0,100,3.0,2,0.006770818811054313
2.805,0.0,77.76476459688695,0,100,3.0,2,0.005242863304692045
2.81,0.0,77.70317715212391,0,100,3.0,2,0.0040233099430477945
2.815,0.0,77.65451741637193,0,100,3.0,2,0.0030597508192461574
2.82,0.0,77.61645754224821,0,100,3.0,2,0.002306089945509169
2.825,0.0,77.58698520999887,0,100,3.0,2,0.001722479405918256
2.83,0.0,77.56438887326568,0,100,3.0,2,0.0012750271933798963
2.835,0.0,77.54723499220545,0,100,3.0,2,0.0009353463803058663
2.84,0.0,77.5343403315515,0,100,3.0,2,0.0006800065653763313
2.845,0.0,77.52474188210253,0,100,3.0,2,0.0004899382594560799
2.85,0.0,77.51766642181228,0,100,3.0,2,0.00034983013489662396
2.855,0.0,77.51250121060028,0,100,3.0,2,0.0002475487247579622
2.86,0.0,77.5087668416199,0,100,3.0,2,0.00017360082415648052
2.865,0.0,77.5060928693175,0,100,3.0,2,0.00012065087757423048
2.87,0.0,77.50419650919626,0,100,3.0,2,8.309919200519513e-05
2.875,0.0,77.50286445568868,0,100,3.0,2,5.672189482535293e-05
2.88,0.0,77.50193768711308,0,100,3.0,2,3.837004184325757e-05
2.885,0.0,77.50129901093455,0,100,3.0,2,2.5722988802875413e-05
2.89,0.0,77.50086303731972,0,100,3.0,2,1.708984791520433e-05
2.895,0.0,77.50056824282214,0,100,3.0,2,1.1252333111693443e-05
2.9,0.0,77.50037078824249,0,100,3.0,2,7.342341435483688e-06
2.905,0.0,77.50023977591869,0,100,3.0,2,4.7480379937879475e-06
2.91,0.0,77.50015366423075,0,100,3.0,2,3.0428560544823816e-06
2.915,0.0,77.50009759501206,0,100,3.0,2,1.9325744963315636e-06
2.92,0.0,77.50006142852273,0,100,3.0,2,1.216406390637017e-06
2.925,0.0,77.50003831776185,0,100,3.0,2,7.587675613626969e-07
2.93,0.0,77.50002368742268,0,100,3.0,2,4.6905787490857726e-07
2.935,0.0,77.50001451186063,0,100,3.0,2,2.873635767713549e-07
2.94,0.0,77.50000881081336,0,100,3.0,2,1.7447155159115397e-07
2.945,0.0,77.50000530147256,0,100,3.0,2,1.0497965455791622e-07
2.95,0.0,77.50000316129226,0,100,3.0,2,6.259984664409623e-08
2.955,0.0,77.50000186818718,0,100,3.0,2,3.699380561619643e-08
2.96,0.0,77.50000109411694,0,100,3.0,2,2.1665681965759638e-08
2.965,0.0,77.50000063503069,0,100,3.0,2,1.2574865100795799e-08
2.97,0.0,77.5000003652694,0,100,3.0,2,7.233057435724272e-09
2.975,0.0,77.50000020821858,0,100,3.0,2,4.123140201099346e-09
2.98,0.001684486749771458,77.5000001176287,0,100,3.0,2,2.32928121675124e-09
2.985,0.00456624331333666,77.5000000658559,0,100,3.0,2,1.3040772334381185e-09
2.99,0.011079731271581421,77.5000000365396,0,100,3.0,2,7.235565018424612e-10
2.995,0.024064571490409,77.50000002009187,0,100,3.0,2,3.978589075354693e-10
3.0,0.046784906529573234,77.50000001094875,0,100,3.0,2,2.1680699040252245e-10
3.005,0.08141644351188804,77.50000000591284,0,100,3.0,2,1.1708590532765414e-10
3.01,0.12682276464025305,77.50000000316457,0,100,3.0,2,6.266480403889482e-11
3.015,0.1768320708657512,77.5000000016785,0,100,3.0,2,3.3237641462007315e-11
3.02,0.22070063230473494,77.50000000088231,0,100,3.0,2,1.7471472013915778e-11
3.025,0.24656126505113576,77.50000000045962,0,100,3.0,2,9.101419288193632e-12
3.03,0.24656126505724016,77.50000000023728,0,100,3.0,2,4.698586954054017e-12
3.035,0.220700632329898,77.5000000001214,0,100,3.0,2,2.4040263729103113e-12
3.04,0.17683207093748562,77.50000000006156,0,100,3.0,2,1.2190380718070313e-12
3.045,0.12682276483597799,77.50000000003094,0,100,3.0,2,6.126144696038567e-13
3.05,0.08141644409447898,77.5000000000154,0,100,3.0,2,3.050409210154252e-13
3.055,0.04678490952598309,77.5000000000076,0,100,3.0,2,1.5055063906204104e-13
3.06,0.024064605020532023,77.50000000000372,0,100,3.0,2,7.372760268085e-14
3.065,0.011080171739334697,77.5000000000018,0,100,3.0,2,3.5738189085755534e-14
3.07,0.004571212771509492,77.50000000000087,0,100,3.0,2,1.716558688370935e-14
3.075,0.0017299316936037438,77.50000000000041,0,100,3.0,2,8.160688846353625e-15
3.08,0.0008899431850697582,77.5000000000002,0,100,3.0,2,3.93964289134313e-15
3.085,0.002128806368910263,77.50000000000009,0,100,3.0,2,1.6884183820041984e-15
3.09,0.009309664818487698,77.50000000000004,0,100,3.0,2,8.442091910020992e-16
3.095,0.03503263543368747,77.50000000000001,0,100,3.0,2,2.814030636673664e-16
3.1,0.10606267793605692,77.50000000000001,0,100,3.0,2,2.814030636673664e-16
3.105,0.25734927343160535,77.5,0,100,3.0,2,0.0
3.11,0.5003202479539708,77.5,0,100,3.0,2,0.0
3.115,0.7793067891790435,77.5,0,100,3.0,2,0.0
3.12,0.9720477407234077,77.5000029632167,1,100,3.0,2,5.867755844249559e-08
3.125,0.967267334488097,77.50000655696266,0,100,3.0,2,1.298408447513397e-07
3.13,0.7505869905515209,77.50001601034491,0,100,3.0,2,3.170365328240241e-07
3.135,0.4028369574773956,77.50004544101657,0,100,3.0,2,8.99822110244317e-07
3.14,0.04553881263121314,77.50014869178591,0,100,3.0,2,2.9443918001921736e-06
3.145,-0.189138810908105,77.50052429040315,0,100,3.0,2,1.0381988181169357e-05
3.15,-0.22868072635956738,77.50185613108916,0,100,3.0,2,3.675507107238833e-05
3.155,-0.14104670682394166,77.50631081326587,0,100,3.0,2,0.0001249665993241544
3.16,-0.051158381651102834,77.52014975748361,0,100,3.0,2,0.000399005098685312
3.165,-0.008206426846427752,77.55979081098688,0,100,3.0,2,0.001183976455185793
3.17,0.005350271385530505,77.66409531549888,0,100,3.0,2,0.003249412188096704
3.175,0.01084668799215426,77.9156022259755,0,100,3.0,2,0.008229747049019897
3.18,0.016256859896386415,78.47030047466006,0,100,3.0,2,0.019213870785347805
3.185,0.02345021205790711,79.58710350394266,0,100,3.0,2,0.04132878225629024
3.19,0.0330621597308209,81.63493153707977,0,100,3.0,2,0.0818798324174211
3.195,0.04559141319943196,85.04422605737544,0,100,3.0,2,0.14939061499753345
3.2,0.06149084917446989,90.17506082931254,0,100,3.0,2,0.2509913035507434
3.205,0.08111733445924295,97.10922237651356,0,100,3.0,2,0.38830143319828825
3.21,0.1046628598272375,105.4348054683108,0,100,3.0,2,0.5531644647190257
3.215,0.1320831047748631,114.14543827115567,0,100,3.0,2,0.7256522429931815
3.22,0.16303381314489318,121.77068305917047,0,100,3.0,2,0.8766471892905042
3.225,0.19682662652900276,126.76053431716763,0,100,3.0,2,0.9754561250924282
3.23,0.23241585813229,128.0,0,100,3.0,2,1.0
3.235,0.26842527782774417,125.22328551958378,0,100,3.0,2,0.9450155548432432
3.24,0.30321927900592993,119.11876940758584,0,100,3.0,2,0.8241340476749672
3.245,0.3350163137995362,111.06952938464173,0,100,3.0,2,0.6647431561315194
3.25,0.3620352400956416,102.6640997429807,0,100,3.0,2,0.4982990048114989
3.255,0.3826586036805073,95.21435532988534,0,100,3.0,2,0.35077931346307595
3.26,0.39559233134833227,89.47593013908856,0,100,3.0,2,0.23714713146710023
3.265,0.4,85.62914672129747,0,100,3.0,2,0.16097320240193017
3.27,0.39559233134833227,83.44602405169233,0,100,3.0,2,0.11774305052856106
3.275,0.3826586036805073,82.51418034326288,0,100,3.0,2,0.09929069986659167
3.28,0.3620352400956416,82.41498968684074,0,100,3.0,2,0.09732652845229191
3.285,0.3350163137995362,82.8162323398421,0,100,3.0,2,0.10527192752162579
3.29,0.3032192790059296,83.49152410841626,0,100,3.0,2,0.11864404175081698
3.295,0.26842527782774417,84.29989131592993,0,100,3.0,2,0.1346513131867312
3.3,0.23241585813229,85.15492185345755,0,100,3.0,2,0.15158261095955547
3.305,0.19682662652900276,85.99944257654766,0,100,3.0,2,0.16830579359500328
3.31,0.16303381314489318,86.7900828794801,0,100,3.0,2,0.18396203721742763
3.315,0.13208310477486307,87.49011325161499,0,100,3.0,2,0.19782402478445515
3.32,0.10466285982723562,88.06741819367026,0,100,3.0,2,0.20925580581525274
3.325,0.08111733445917907,88.49500148369576,0,100,3.0,2,0.21772280165734176
3.33,0.06149084917398798,88.7523881564347,0,100,3.0,2,0.22281956745415257
3.335,0.04559141333598128,88.82702867957946,0,100,3.0,2,0.22429759761543477
3.34,0.03306217087257399,88.71524935893724,0,100,3.0,2,0.22208414572152957
3.345,0.02345067901074276,88.42253532440515,0,100,3.0,2,0.2162878282060425
3.35,0.016268788896435526,87.96308039899121,0,100,3.0,2,0.20718971087111307
3.355,0.011039026374860051,87.35864540324948,0,100,3.0,2,0.1952207010544452
3.36,0.007326255555493689,86.6368502846674,0,100,3.0,2,0.1809277284092555
3.365,0.0047556414315231815,85.82908607103306,0,100,3.0,2,0.16493239744619922
3.37,0.0030193390635632803,84.96826586573214,0,100,3.0,2,0.14788645278677495
3.375,0.001874953127946523,84.08663760203554,0,100,3.0,2,0.13042846736704033
3.38,0.0011387927410965778,83.2138567338529,0,100,3.0,2,0.11314567789807708
3.385,0.0006765107634274089,82.37547016896139,0,100,3.0,2,0.09654396374180961
3.39,0.00039307957404427924,81.5919021412145,0,100,3.0,2,0.08102776517256444
3.395,0.00022338910511776318,80.8779681711764,0,100,3.0,2,0.06689045883517634
3.4,0.00012417073320013317,80.24288403167223,0,100,3.0,2,0.054314535280638274
3.405,6.750753468904987e-05,79.69068996060383,0,100,3.0,2,0.043379999219877896
3.41,3.5897234866245036e-05,79.22098057593206,0,100,3.0,2,0.03407882328578337
3.415,1.8670050400879738e-05,78.82981919714364,0,100,3.0,2,0.026333053408784855
3.42,9.497421874143672e-06,78.51071987622515,0,100,3.0,2,0.0200142549747555
3.425,4.725434140340885e-06,78.25559764113524,0,100,3.0,2,0.014962329527430474
3.43,2.299606063738814e-06,78.05561243800646,0,100,3.0,2,0.011002226495177486
3.435,1.0945633976635486e-06,77.90186011486975,0,100,3.0,2,0.007957626037024722
3.44,5.095703414287532e-07,77.78589030472493,0,100,3.0,2,0.00566119415296891
3.445,2.3202944964797243e-07,77.70005321255698,0,100,3.0,2,0.003961449753603574
3.45,1.0333746954038608e-07,77.63769342762592,0,100,3.0,2,0.0027266025272459243
3.455,4.501406988770349e-08,77.59321857741432,0,100,3.0,2,0.001845912424045926
3.46,0.0,77.56207451138886,0,100,3.0,2,0.0012291982453239098
3.465,0.0,77.54065797339315,0,100,3.0,2,0.0008051083840228168
3.47,0.0,77.5261938733732,0,100,3.0,2,0.0005186905618455908
3.475,0.0,77.51659874675121,0,100,3.0,2,0.0003286880544794825
3.48,0.0,77.51034599949604,0,100,3.0,2,0.00020487127714928458
3.485,0.0,77.50634294850691,0,100,3.0,2,0.00012560294073093452
3.49,0.0,77.50382500050979,0,100,3.0,2,7.574258435232031e-05
3.495,0.0,77.50226878523836,0,100,3.0,2,4.4926440363503776e-05
3.5,0.0,77.5013236612559,0,100,3.0,2,2.6211113978129872e-05
3.505,0.0,77.50075959466382,0,100,3.0,2,1.5041478491465937e-05
3.51,0.0,77.50042875434282,0,100,3.0,2,8.490185006347038e-06
3.515,0.0,77.50023804372503,0,100,3.0,2,4.71373712938171e-06
3.52,0.0,77.50012999496224,0,100,3.0,2,2.5741576680479963e-06
3.525,0.0,77.50006982611599,0,100,3.0,2,1.3826953661329285e-06
3.53,0.0,77.50003689188343,0,100,3.0,2,7.305323450590648e-07
3.535,0.001684486749771458,77.50001917190855,0,100,3.0,2,3.7964175342242717e-07
3.54,0.00456624331333666,77.50000979989558,0,100,3.0,2,1.9405733820745484e-07
3.545,0.011079731271581421,77.50000492718793,0,100,3.0,2,9.7568077832632e-08
3.55,0.024064571490409,77.50000243667935,0,100,3.0,2,4.825107628739085e-08
3.555,0.046784906529573234,77.50000118527527,0,100,3.0,2,2.34707973540575e-08
3.56,0.08141644351188804,77.50000056710259,0,100,3.0,2,1.1229754235419834e-08
3.565,0.12682276464025305,77.5000002668859,0,100,3.0,2,5.284869413378264e-09
3.57,0.1768320708657512,77.50000012354103,0,100,3.0,2,2.4463569915686023e-09
3.575,0.22070063230473494,77.50000005624946,0,100,3.0,2,1.1138507322204245e-09
3.58,0.24656126505113576,77.5000000251911,0,100,3.0,2,4.988336432589757e-10
3.585,0.24656126505724016,77.50000001109679,0,100,3.0,2,2.197383661167454e-10
3.59,0.220700632329898,77.50000000480806,0,100,3.0,2,9.520906835202575e-11
3.595,0.17683207093748562,77.50000000204909,0,100,3.0,2,4.05760705563249e-11
3.6,0.12682276483597799,77.50000000085898,0,100,3.0,2,1.7009408183373963e-11
3.605,0.08141644409447898,77.50000000035418,0,100,3.0,2,7.013408555781773e-12
3.61,0.04678490952598309,77.50000000014364,0,100,3.0,2,2.8444221675497395e-12
3.615,0.024064605020532023,77.5000000000573,0,100,3.0,3,1.1346171527068214e-12
3.62,0.011080171739334697,77.50000000002248,0,100,3.0,3,4.4517964672177365e-13
3.625,0.004571212771509492,77.50000000000868,0,100,3.0,3,1.7193727190076088e-13
3.63,0.0017299316936037438,77.5000000000033,0,100,3.0,3,6.5285510770829e-14
3.635,0.0008899431850697582,77.50000000000122,0,100,3.0,3,2.420066347539351e-14
3.64,0.002128806368910263,77.50000000000045,0,100,3.0,3,9.004898037355725e-15
3.645,0.009309664818487698,77.50000000000016,0,100,3.0,3,3.0954337003410305e-15
3.65,0.03503263543368747,77.50000000000006,0,100,3.0,3,1.1256122546694657e-15
3.655,0.10606267793605692,77.50000000000001,0,100,3.0,3,2.814030636673664e-16
3.66,0.25734927343160535,77.5,0,100,3.0,3,0.0
3.665,0.5003202479539708,77.5,0,100,3.0,3,0.0
3.67,0.7793067891790435,77.5,0,100,3.0,3,0.0
3.675,0.9720477407234077,77.50000297374913,1,100,3.0,3,5.888612144874492e-08
3.68,0.967267334488097,77.50000554229251,0,100,3.0,3,1.0974836659263e-07
3.685,0.7505869905515209,77.50001089363005,0,100,3.0,3,2.1571544649115894e-07
3.69,0.4028369574773956,77.50002329219902,0,100,3.0,3,4.612316637135201e-07
3.695,0.04553881263121314,77.50005501720798,0,100,3.0,3,1.0894496630507912e-06
3.7,-0.189138810908105,77.50014147667405,0,100,3.0,3,2.8015182979266e-06
3.705,-0.22868072635956738,77.50038203936165,0,100,3.0,3,7.565135874328646e-06
3.71,-0.14104670682394166,77.50104387099677,0,100,3.0,3,2.0670712807272914e-05
3.715,-0.051158381651102834,77.50280934894418,0,100,3.0,3,5.563067216203848e-05
3.72,-0.008206426846427752,77.50732620865207,0,100,3.0,3,0.00014507343865493522
3.725,0.005350271385530505,77.51834410030615,0,100,3.0,3,0.0003632495110129058
3.73,0.01084668799215426,77.5438839253435,0,100,3.0,3,0.0008689886206632376
3.735,0.016256859896386415,77.60003319888799,0,100,3.0,3,0.0019808554235244556
3.74,0.02345021205790711,77.71695884479526,0,100,3.0,3,0.0042962147484209455
3.745,0.0330621597308209,77.94735416107439,0,100,3.0,3,0.008858498239096763
3.75,0.04559141319943196,78.37652712296165,0,100,3.0,3,0.01735697273191381
3.755,0.06149084917446989,79.13155611625669,0,100,3.0,3,0.03230804190607306
3.76,0.08111733445924295,80.38464302269666,0,100,3.0,3,0.05712164401379534
3.765,0.1046628598272375,82.343885160172,0,100,3.0,3,0.09591851802320779
3.77,0.1320831047748631,85.22471103628145,0,100,3.0,3,0.15296457497587027
3.775,0.16303381314489318,89.19883842489475,0,100,3.0,3,0.23166016682959892
3.78,0.19682662652900276,94.32549970741455,0,100,3.0,3,0.3331782120280109
3.785,0.23241585813229,100.48032288769929,0,100,3.0,3,0.4550558987663225
3.79,0.26842527782774417,107.30647297952942,0,100,3.0,3,0.5902271877134538
3.795,0.30321927900592993,114.21475594199606,0,100,3.0,3,0.7270248701385359
3.8,0.3350163137995362,120.45003748051128,0,100,3.0,3,0.8504957916932927
3.805,0.3620352400956416,125.22088966023571,0,100,3.0,3,0.9449681120838755
3.81,0.3826586036805073,127.86445535794572,0,100,3.0,3,0.9973159476820934
3.815,0.39559233134833227,128.0,0,100,3.0,3,1.0
3.82,0.4,125.6224325713765,0,100,3.0,3,0.9529194568589407
3.825,0.39559233134833227,121.10441062169932,0,100,3.0,3,0.8634536756772142
3.83,0.3826586036805073,115.10629182521686,0,100,3.0,3,0.7446790460438981
3.835,0.3620352400956416,108.42415883922355,0,100,3.0,3,0.6123595809747238
3.84,0.3350163137995362,101.82426213116389,0,100,3.0,3,0.4816685570527503
3.845,0.3032192790059296,95.9108992171353,0,100,3.0,3,0.3645722617254514
3.85,0.26842527782774417,91.0567726711177,0,100,3.0,3,0.26845094398252867
3.855,0.23241585813229,87.39998871341729,0,100,3.0,3,0.19603938046370864
3.86,0.19682662652900276,84.89104364856149,0,100,3.0,3,0.1463572999715147
3.865,0.16303381314489318,83.36326087019651,0,100,3.0,3,0.11610417564745569
3.87,0.13208310477486307,82.60180749607288,0,100,3.0,3,0.10102589101134415
3.875,0.10466285982723562,82.39544857433123,0,100,3.0,3,0.0969395757293312
3.88,0.08111733445917907,82.56588583321162,0,100,3.0,3,0.10031457095468563
3.885,0.06149084917398798,82.97758774383091,0,100,3.0,3,0.10846708403625563
3.89,0.04559141333598128,83.53481518235527,0,100,3.0,3,0.1195012907397084
3.895,0.03306217087257399,84.17269198587077,0,100,3.0,3,0.13213251457169842
3.9,0.02345067901074276,84.84730381378846,0,100,3.0,3,0.1454911646294744
3.905,0.016268788896435526,85.52749703028248,0,100,3.0,3,0.15896033723331635
3.91,0.011039026374860051,86.18922655689688,0,100,3.0,3,0.1720638922157799
3.915,0.007326255555493689,86.81224897921524,0,100,3.0,3,0.18440096988545032
3.92,0.0047556414315231815,87.37855009885725,0,100,3.0,3,0.19561485344271776
3.925,0.0030193390635632803,87.87187469114481,0,100,3.0,3,0.2053836572503923
3.93,0.001874953127946523,88.27786380983255,0,100,3.0,3,0.21342304573925847
3.935,0.0011387927410965778,88.58446538596041,0,100,3.0,3,0.21949436407842404
3.94,0.0006765107634274089,88.78241080389745,0,100,3.0,3,0.22341407532470195
3.945,0.00039307957404427924,88.86563461459913,0,100,3.0,3,0.2250620715762204
3.95,0.00022338910511776318,88.83156660553249,0,100,3.0,3,0.22438745753529676
3.955,0.00012417073320013317,88.68125794526678,0,100,3.0,3,0.22141104842112433
3.96,6.750753468904987e-05,88.41932547809371,0,100,3.0,3,0.21622426689294477
3.965,3.5897234866245036e-05,88.05371562768302,0,100,3.0,3,0.20898446787491126
3.97,1.8670050400879738e-05,87.5953038525274,0,100,3.0,3,0.1999070069807405
3.975,9.497421874143672e-06,87.05735753278111,0,100,3.0,3,0.18925460460952695
3.98,4.725434140340885e-06,86.45489919507284,0,100,3.0,3,0.17732473653609584
3.985,2.299606063738814e-06,85.80401261860871,0,100,3.0,3,0.16443589343779622
3.99,1.0945633976635486e-06,85.12113632279124,0,100,3.0,3,0.15091359055032166
3.995,5.095703414287532e-07,84.42238724350504,0,100,3.0,3,0.13707697511891173
4.0,2.3202944964797243e-07,83.72295243199527,0,100,3.0,3,0.12322678083158946
4.005,1.0333746954038608e-07,83.03657902051401,0,100,3.0,3,0.10963522812899033
4.01,4.501406988770349e-08,82.3751833629874,0,100,3.0,3,0.09653828441559208
4.015,0.0,81.74859014595745,0,100,3.0,3,0.0841304979397515
4.02,0.0,81.16440233118264,0,100,3.0,3,0.0725624223996563
4.025,0.0,80.62799387960804,0,100,3.0,3,0.061940472863525574
4.03,0.0,80.14260996963905,0,100,3.0,3,0.05232891028988225
4.035,0.0,79.70955427614918,0,100,3.0,3,0.04375355002275598
4.04,0.0,79.32843998418399,0,100,3.0,3,0.03620673236007895
4.045,0.0,78.99748050116942,0,100,3.0,3,0.029653079231077625
4.05,0.0,78.71379703694723,0,100,3.0,3,0.0240355848900441
4.055,0.0,78.47372293720446,0,100,3.0,3,0.01928164232088033
4.06,0.0,78.27308840299582,0,100,3.0,3,0.015308681247442073
4.065,0.0,78.10747351380175,0,100,3.0,3,0.012029178491123766
4.07,0.0,77.97242183965022,0,100,3.0,3,0.009354887913865817
4.075,0.0,77.86361100272762,0,100,3.0,3,0.007200217875794518
4.08,0.0,77.77698005476563,0,100,3.0,3,0.00548475355971545
4.085,0.0,77.70881630558038,0,100,3.0,3,0.004134976348126429
4.09,0.0,77.655806205011,0,100,3.0,3,0.0030852713863565116
4.095,0.0,77.61505606633729,0,100,3.0,3,0.0022783379472730418
4.1,0.0,77.58408891032724,0,100,3.0,3,0.001665126937173047
4.105,0.0,77.56082363315717,0,100,3.0,3,0.0012044283793499074
4.11,0.0,77.54354220540637,0,100,3.0,3,0.0008622218892350076
4.115,0.0,77.53084984006664,0,100,3.0,3,0.0006108879221116159
4.12,0.0,77.52163215779164,0,100,3.0,3,0.000428359560230558
4.125,0.0,77.5150124370045,0,100,3.0,3,0.00029727598028714085
4.13,0.0,77.5103111471449,0,100,3.0,3,0.00020418113158225738
4.135,0.0,77.5070091798141,0,100,3.0,3,0.00013879563988326697
4.14,0.0,77.50471554451771,0,100,3.0,3,9.337711916254022e-05
4.145,0.0,77.50313979235368,0,100,3.0,3,6.217410601343905e-05
4.15,0.0,77.50206906643902,0,100,3.0,3,4.097161265386459e-05
4.155,0.0,77.50134943626045,0,100,3.0,3,2.6721510108013762e-05
4.16,0.0,77.5008710332745,0,100,3.0,3,1.724818365359944e-05
4.165,0.0,77.50055644410592,0,100,3.0,3,1.1018695166830193e-05
4.17,0.0,77.50035181372469,0,100,3.0,3,6.966608409730626e-06
4.175,0.0,77.50022014480413,0,100,3.0,3,4.359303052116938e-06
4.18,0.0,77.50013633536719,0,100,3.0,3,2.6997102413408337e-06
4.185,0.0,77.50008356281374,0,100,3.0,3,1.6547091830164904e-06
4.19,0.0,77.50005068996704,0,100,3.0,3,1.0037617235609852e-06
4.195,0.0,77.50003043234321,0,100,3.0,3,6.026206576036815e-07
4.2,0.0,77.50001808228075,0,100,3.0,3,3.5806496527746473e-07
4.205,0.0,77.50001063348085,0,100,3.0,3,2.1056397732572446e-07
4.21,0.0,77.50000618873845,0,100,3.0,3,1.2254927630219935e-07
4.215,0.0,77.50000356478414,0,100,3.0,3,7.058978489526858e-08
4.22,0.0,77.50000203221089,0,100,3.0,3,4.0241799736280216e-08
4.225,0.0,77.50000114659156,0,100,3.0,3,2.2704783320775034e-08
4.23,0.0,77.50000064025524,0,100,3.0,3,1.2678321530137789e-08
4.235,0.001684486749771458,77.50000035383596,0,100,3.0,3,7.006652631029247e-09
4.24,0.00456624331333666,77.50000019353308,0,100,3.0,3,3.832338275105489e-09
4.245,0.011079731271581421,77.5000001047642,0,100,3.0,3,2.0745385607387835e-09
4.25,0.024064571490409,77.50000005612742,0,100,3.0,3,1.111434042709649e-09
4.255,0.046784906529573234,77.5000000297606,0,100,3.0,3,5.893187983812174e-10
4.26,0.08141644351188804,77.50000001561753,0,100,3.0,3,3.0925802732754435e-10
4.265,0.12682276464025305,77.50000000811126,0,100,3.0,3,1.6061895927699573e-10
4.27,0.1768320708657512,77.50000000416935,0,100,3.0,3,8.256140765549597e-11
4.275,0.22070063230473494,77.50000000212106,0,100,3.0,3,4.2001095670736443e-11
4.28,0.24656126505113576,77.50000000106792,0,100,3.0,3,2.114687742847525e-11
4.285,0.24656126505724016,77.50000000053215,0,100,3.0,3,1.053770052515187e-11
4.29,0.220700632329898,77.50000000026245,0,100,3.0,3,5.196951779808923e-12
4.295,0.17683207093748562,77.5000000001281,0,100,3.0,3,2.5365672158976407e-12
4.3,0.12682276483597799,77.50000000006187,0,100,3.0,3,1.2252289392077134e-12
4.305,0.08141644409447898,77.50000000002959,0,100,3.0,3,5.858811785554568e-13
4.31,0.04678490952598309,77.500000000014,0,100,3.0,3,2.7718201771235593e-13
4.315,0.024064605020532023,77.50000000000655,0,100,3.0,3,1.297268123506559e-13
4.32,0.011080171739334697,77.50000000000304,0,100,3.0,3,6.022025562481641e-14
4.325,0.004571212771509492,77.50000000000139,0,100,3.0,3,2.7577500239401907e-14
4.33,0.0017299316936037438,77.50000000000063,0,100,3.0,3,1.2381734801364122e-14
4.335,0.0008899431850697582,77.50000000000028,0,100,3.0,3,5.6280612733473285e-15
4.34,0.002128806368910263,77.50000000000013,0,100,3.0,3,2.5326275730062976e-15
4.345,0.009309664818487698,77.50000000000006,0,100,3.0,3,1.1256122546694657e-15
4.35,0.03503263543368747,77.50000000000003,0,100,3.0,3,5.628061273347328e-16
4.355,0.10606267793605692,77.50000000000001,0,100,3.0,3,2.814030636673664e-16
4.36,0.25734927343160535,77.5,0,100,3.0,3,0.0
4.365,0.5003202479539708,77.5,0,100,3.0,3,0.0
4.37,0.7793067891790435,77.5,0,100,3.0,3,0.0
4.375,0.9720477407234077,77.5000029809538,1,100,3.0,3,5.902878801817219e-08
4.38,0.967267334488097,77.5000076117432,0,100,3.0,3,1.507275881225057e-07
4.385,0.7505869905515209,77.5000225601128,0,100,3.0,3,4.4673490686246884e-07
4.39,0.4028369574773956,77.50008255323985,0,100,3.0,3,1.6347176207802638e-06
4.395,0.04553881263121314,77.50035159314228,0,100,3.0,3,6.9622404412662534e-06
4.4,-0.189138810908105,77.50154954505174,0,100,3.0,3,3.068406043059152e-05
4.405,-0.22868072635956738,77.50651195236256,0,100,3.0,3,0.00012894955173382782
4.41,-0.14104670682394166,77.52511102860076,0,100,3.0,3,0.000497248091104191
4.415,-0.051158381651102834,77.58745792119252,0,100,3.0,3,0.0017318400236143309
4.42,-0.008206426846427752,77.77336256021145,0,100,3.0,3,0.005413120004187186
4.425,0.005350271385530505,78.2647632369274,0,100,3.0,3,0.015143826473809774
4.43,0.01084668799215426,79.41274973718394,0,100,3.0,3,0.03787623241948404
4.435,0.016256859896386415,81.77466341531024,0,100,3.0,3,0.08464680030317313
4.44,0.02345021205790711,86.03394894306237,0,100,3.0,3,0.16898908798143308
4.445,0.0330621597308209,92.71785451006303,0,100,3.0,3,0.3013436536646145
4.45,0.04559141319943196,101.73798428044198,0,100,3.0,3,0.4799600847612273
4.455,0.06149084917446989,111.98176511314185,0,100,3.0,3,0.6828072299632049
4.46,0.08111733445924295,121.32010874200647,0,100,3.0,3,0.8677249255842865
4.465,0.1046628598272375,127.25553783931267,0,100,3.0,3,0.9852581750358944
4.47,0.1320831047748631,128.0,0,100,3.0,3,1.0
4.475,0.16303381314489318,123.36205289758938,0,100,3.0,3,0.9081594633186015
4.48,0.19682662652900276,114.85117734162105,0,100,3.0,3,0.739627274091506
4.485,0.23241585813229,104.92626736430825,0,100,3.0,3,0.5430944032536286
4.49,0.26842527782774417,95.89770861756207,0,100,3.0,3,0.36431106173390243
4.495,0.30321927900592993,89.14527840592825,0,100,3.0,3,0.23059957239461887
4.5,0.3350163137995362,84.97294234750359,0,100,3.0,3,0.1479790563862097
4.505,0.3620352400956416,82.95462612724802,0,100,3.0,3,0.10801239855936672
4.51,0.3826586036805073,82.40774086849544,0,100,3.0,3,0.09718298749495917
4.515,0.39559233134833227,82.72209620826142,0,100,3.0,3,0.10340784570814691
4.52,0.4,83.47886936987618,0,100,3.0,3,0.11839345286883522
4.525,0.39559233134833227,84.43104888404353,0,100,3.0,3,0.1372484927533373
4.53,0.3826586036805073,85.43881511593356,0,100,3.0,3,0.15720425972145674
4.535,0.3620352400956416,86.4147123402621,0,100,3.0,3,0.17652895723291284
4.54,0.3350163137995362,87.29313876632602,0,100,3.0,3,0.193923539927248
4.545,0.3032192790059296,88.01888951697732,0,100,3.0,3,0.20829484192034306
4.55,0.26842527782774417,88.54587881000532,0,100,3.0,3,0.21873027346545187
4.555,0.23241585813229,88.83973171784147,0,100,3.0,3,0.22454914292755393
4.56,0.19682662652900276,88.88087191881303,0,100,3.0,3,0.2253638003725352
4.565,0.16303381314489318,88.66652984041815,0,100,3.0,3,0.22111940278055742
4.57,0.13208310477486307,88.21101970224717,0,100,3.0,3,0.21209940004449843
4.575,0.10466285982723562,87.54415234760847,0,100,3.0,3,0.1988941058932371
4.58,0.08111733445917907,86.70800718842511,0,100,3.0,3,0.1823367760084181
4.585,0.06149084917398798,85.7525448436669,0,100,3.0,3,0.16341672957756231
4.59,0.04559141333598128,84.73069463953787,0,100,3.0,3,0.1431820720700569
4.595,0.03306217087257399,83.69358403321934,0,100,3.0,3,0.12264522838058095
4.6,0.02345067901074276,82.68649462999765,0,100,3.0,3,0.10270286396034958
4.605,0.016268788896435526,81.74595821329038,0,100,3.0,3,0.08407838046119562
4.61,0.011039026374860051,80.89818785860719,0,100,3.0,3,0.06729084868529084
4.615,0.007326255555493689,80.15882000019332,0,100,3.0,3,0.05264990099392705
4.62,0.0047556414315231815,79.53376315472676,0,100,3.0,3,0.04027253771736151
4.625,0.0030193390635632803,79.0208335971982,0,100,3.0,3,0.030115516776202084
4.63,0.001874953127946523,78.61181596542644,0,100,3.0,3,0.022016157731216724
4.635,0.0011387927410965778,78.29460995033456,0,100,3.0,3,0.01573485050167447
4.64,0.0006765107634274089,78.05519427235316,0,100,3.0,3,0.010993945987191335
4.645,0.00039307957404427924,77.87923275409153,0,100,3.0,3,0.0075095594869610365
4.65,0.00022338910511776318,77.75324249750975,0,100,3.0,3,0.005014702920985061
4.655,0.00012417073320013317,77.66532450110687,0,100,3.0,3,0.0032737524971656684
4.66,6.750753468904987e-05,77.60551342939246,0,100,3.0,3,0.002089374839454645
4.665,3.5897234866245036e-05,77.56583368141922,0,100,3.0,3,0.00130363725582616
4.67,1.8670050400879738e-05,77.54015673820624,0,100,3.0,3,0.0007951829347769372
4.675,9.497421874143672e-06,77.52394631009273,0,100,3.0,3,0.0004741843582717881
4.68,4.725434140340885e-06,77.5139601041975,0,100,3.0,3,0.0002764377068810725
4.685,2.299606063738814e-06,77.50795625332647,0,100,3.0,3,0.00015754957082117247
4.69,1.0945633976635486e-06,77.50443300713465,0,100,3.0,3,8.778231949803524e-05
4.695,5.095703414287532e-07,77.50241467198211,0,100,3.0,3,4.781528677443534e-05
4.7,2.3202944964797243e-07,77.5012858423949,0,100,3.0,3,2.5462225641721227e-05
4.705,1.0333746954038608e-07,77.50066940233542,0,100,3.0,3,1.3255491790466682e-05
4.71,0.001684486749771458,77.50034068780705,0,100,3.0,3,6.746293208981016e-06
4.715,0.00456624331333666,77.50016951020275,0,100,3.0,3,3.3566376782688384e-06
4.72,0.011079731271581421,77.50008245271884,0,100,3.0,3,1.6327271057974993e-06
4.725,0.024064571490409,77.50003920884086,0,100,3.0,3,7.764126903026354e-07
4.73,0.046784906529573234,77.5000182277436,0,100,3.0,3,3.609454177304803e-07
4.735,0.08141644351188804,77.50000828422152,0,100,3.0,3,1.6404399053670313e-07
4.74,0.12682276464025305,77.5000036807844,0,100,3.0,3,7.288681985355112e-08
4.745,0.1768320708657512,77.50000159881769,0,100,3.0,3,3.1659756233590215e-08
4.75,0.22070063230473494,77.50000067893373,0,100,3.0,3,1.3444232288495889e-08
4.755,0.24656126505113576,77.50000028185498,0,100,3.0,3,5.5812867375076025e-09
4.76,0.24656126505724016,77.50000011439155,0,100,3.0,3,2.265179287266196e-09
4.765,0.220700632329898,77.50000004538705,0,100,3.0,3,8.987535468327449e-10
4.77,0.17683207093748562,77.50000001760516,0,100,3.0,3,3.486170296335079e-10
4.775,0.12682276483597799,77.50000000667602,0,100,3.0,3,1.3219837545884638e-10
4.78,0.08141644409447898,77.50000000247495,0,100,3.0,3,4.900887616524487e-11
4.785,0.04678490952598309,77.50000000089697,0,100,3.0,3,1.77618799756205e-11
4.79,0.024064605020532023,77.50000000031781,0,100,3.0,3,6.293298115856982e-12
4.795,0.011080171739334697,77.50000000011008,0,100,3.0,3,2.1797481311674203e-12
4.8,0.004571212771509492,77.50000000003728,0,100,3.0,3,7.381202359995021e-13
4.805,0.0017299316936037438,77.50000000001234,0,100,3.0,3,2.4425785926327406e-13
4.81,0.0008899431850697582,77.500000000004,0,100,3.0,3,7.907426089052996e-14
4.815,0.002128806368910263,77.50000000000126,0,100,3.0,3,2.504487266639561e-14
4.82,0.009309664818487698,77.50000000000038,0,100,3.0,4,7.597882719018894e-15
4.825,0.03503263543368747,77.50000000000011,0,100,3.0,4,2.2512245093389313e-15
4.83,0.10606267793605692,77.50000000000003,0,100,3.0,4,5.628061273347328e-16
4.835,0.25734927343160535,77.50000000000001,0,100,3.0,4,2.814030636673664e-16
4.84,0.5003202479539708,77.5,0,100,3.0,4,0.0
4.845,0.7793067891790435,77.5,0,100,3.0,4,0.0
4.85,0.9720477407234077,77.50000297426018,1,100,3.0,4,5.889624126572052e-08
4.855,0.967267334488097,77.50000567823217,0,100,3.0,4,1.1244024100357486e-07
4.86,0.7505869905515209,77.50001149390847,0,100,3.0,4,2.276021479976389e-07
4.865,0.4028369574773956,77.50002552223552,0,100,3.0,4,5.053908023343172e-07
4.87,0.04553881263121314,77.50006306261808,0,100,3.0,4,1.2487647144989932e-06
4.875,-0.189138810908105,77.5001698874946,0,100,3.0,4,3.3641088038220374e-06
4.88,-0.22868072635956738,77.50047859341034,0,100,3.0,4,9.477097234362236e-06
4.885,-0.14104670682394166,77.50135524508104,0,100,3.0,4,2.6836536258290627e-05
4.89,-0.051158381651102834,77.50375492034152,0,100,3.0,4,7.435485824794117e-05
4.895,-0.008206426846427752,77.51002123916122,0,100,3.0,4,0.00019844037943007696
4.9,0.005350271385530505,77.5255453584863,0,100,3.0,4,0.0005058486828969839
4.905,0.01084668799215426,77.5619207241607,0,100,3.0,4,0.0012261529536772287
4.91,0.016256859896386415,77.64238621016548,0,100,3.0,4,0.0028195289141679874
4.915,0.02345021205790711,77.8102100292443,0,100,3.0,4,0.006142772856322825
4.92,0.0330621597308209,78.13987659239612,0,100,3.0,4,0.01267082361180437
4.925,0.04559141319943196,78.74916028808956,0,100,3.0,4,0.02473584728890209
4.93,0.06149084917446989,79.80740165759062,0,100,3.0,4,0.04569112193248747
4.935,0.08111733445924295,81.53230654845552,0,100,3.0,4,0.07984765442486184
4.94,0.1046628598272375,84.16614940220346,0,100,3.0,4,0.13200295845947443
4.945,0.1320831047748631,87.92480409158405,0,100,3.0,4,0.20643176418978318
4.95,0.16303381314489318,92.92132389923525,0,100,3.0,4,0.30537275047990586
4.955,0.19682662652900276,99.07906867815493,0,100,3.0,4,0.4273082906565332
4.96,0.23241585813229,106.06297302446497,0,100,3.0,4,0.5656034262270291
4.965,0.26842527782774417,113.26372517607233,0,100,3.0,4,0.7081925777440065
4.97,0.30321927900592993,119.86120910133064,0,100,3.0,4,0.8388358237887257
4.975,0.3350163137995362,124.96909105340002,0,100,3.0,4,0.9399820010574261
4.98,0.3620352400956416,127.82948178557024,0,100,3.0,4,0.9966234016944602
4.985,0.3826586036805073,128.0,0,100,3.0,4,1.0
4.99,0.39559233134833227,125.47008483330974,0,100,3.0,4,0.9499026699665295
4.995,0.4,120.66481219264665,0,100,3.0,4,0.8547487562900327
5.0,0.39559233134833227,114.3347951868165,0,100,3.0,4,0.7294018848874556
5.005,0.3826586036805073,107.37172732806118,0,100,3.0,4,0.5915193530309145
5.01,0.3620352400956416,100.61213146388492,0,100,3.0,4,0.4576659695818796
5.015,0.3350163137995362,94.68808896833318,0,100,3.0,4,0.34035819739273615
5.02,0.3032192790059296,89.95808553040531,0,100,3.0,4,0.24669476297832302
5.025,0.26842527782774417,86.51808198825748,0,100,3.0,4,0.17857588095559362
5.03,0.23241585813229,84.26758558980437,0,100,3.0,4,0.13401159583771027
5.035,0.19682662652900276,82.99601598482167,0,100,3.0,4,0.10883199969943896
5.04,0.16303381314489318,82.46008910161746,0,100,3.0,4,0.09821958617064269
5.045,0.13208310477486307,82.43631776475485,0,100,3.0,4,0.09774886662880884
5.05,0.10466285982723562,82.74620952675184,0,100,3.0,4,0.10388533716340279
5.055,0.08111733445917907,83.26041912278987,0,100,3.0,4,0.1140677054017796
5.06,0.06149084917398798,83.8909837535951,0,100,3.0,4,0.12655413373455632
5.065,0.04559141333598128,84.57950349558233,0,100,3.0,4,0.14018818803133326
5.07,0.03306217087257399,85.2861599745921,0,100,3.0,4,0.15418138563548703
5.075,0.02345067901074276,85.98163805601772,0,100,3.0,4,0.16795322883203395
5.08,0.016268788896435526,86.64215441522398,0,100,3.0,4,0.18103276069750465
5.085,0.011039026374860051,87.24693849353997,0,100,3.0,4,0.19300868304039548
5.09,0.007326255555493689,87.77732882594401,0,100,3.0,4,0.2035114618998814
5.095,0.0047556414315231815,88.21678411743441,0,100,3.0,4,0.21221354687988941
5.1,0.0030193390635632803,88.5513239266052,0,100,3.0,4,0.21883809755653874
5.105,0.001874953127946523,88.77009736679604,0,100,3.0,4,0.22317024488705023
5.11,0.0011387927410965778,88.8659030200672,0,100,3.0,4,0.22506738653598404
5.115,0.0006765107634274089,88.83555969828684,0,100,3.0,4,0.2244665286789474
5.12,0.00039307957404427924,88.68007425722836,0,100,3.0,4,0.22138760905402685
5.125,0.00022338910511776318,88.40458376283155,0,100,3.0,4,0.2159323517392386
5.13,0.00012417073320013317,88.01807297572829,0,100,3.0,4,0.20827867278669876
5.135,6.750753468904987e-05,87.5328876255651,0,100,3.0,4,0.19867104209039793
5.14,3.5897234866245036e-05,86.96407988350431,0,100,3.0,4,0.18740752244562991
5.145,1.8670050400879738e-05,86.32863430486985,0,100,3.0,4,0.1748244416805911
5.15,9.497421874143672e-06,85.64462963051776,0,100,3.0,4,0.16127979466371792
5.155,4.725434140340885e-06,84.93039382902155,0,100,3.0,4,0.14713651146577336
5.16,2.299606063738814e-06,84.20370673858773,0,100,3.0,4,0.13274666809084607
5.165,1.0945633976635486e-06,83.48109723485612,0,100,3.0,4,0.11843756900705192
5.17,5.095703414287532e-07,82.77727103304531,0,100,3.0,4,0.10450041649594673
5.175,2.3202944964797243e-07,82.10469232958998,0,100,3.0,4,0.09118202632851446
5.18,1.0333746954038608e-07,81.4733289031435,0,100,3.0,4,0.07867978026026726
5.185,4.501406988770349e-08,80.89055736587513,0,100,3.0,4,0.06713974981930941
5.19,0.0,80.36121411084514,0,100,3.0,4,0.05665770516525029
5.195,0.0,79.8877689525599,0,100,3.0,4,0.04728255351603753
5.2,0.0,79.47059295025286,0,100,3.0,4,0.039021642579264645
5.205,0.0,79.108289512118,0,100,3.0,4,0.03184731707164368
5.21,0.0,78.79805835279892,0,100,3.0,4,0.02570412579799838
5.215,0.0,78.53606471576967,0,100,3.0,4,0.020516132985537998
5.22,0.0,78.31779082219269,0,100,3.0,4,0.016193877667182006
5.225,0.0,78.13835205700114,0,100,3.0,4,0.012640634792101837
5.23,0.0,77.99276627075692,0,100,3.0,4,0.009757747935780534
5.235,0.0,77.87617018053467,0,100,3.0,4,0.0074489144660331045
5.24,0.0,77.78398175514256,0,100,3.0,4,0.005623401091931931
5.245,0.0,77.71201139014435,0,100,3.0,4,0.004198245349393159
5.25,0.0,77.65652749302741,0,100,3.0,4,0.0030995543173744835
5.255,0.0,77.61428381951266,0,100,3.0,4,0.0022630459309438476
5.26,0.0,77.58251664176932,0,100,3.0,4,0.0016339929063231057
5.265,0.0,77.55891976749406,0,100,3.0,4,0.0011667280691893206
5.27,0.0,77.54160477570755,0,100,3.0,4,0.0008238569447040516
5.275,0.0,77.52905280217514,0,100,3.0,4,0.0005753030133691914
5.28,0.0,77.52006298507172,0,100,3.0,4,0.0003972868331033223
5.285,0.0,77.51370142552075,0,100,3.0,4,0.0002713153568465421
5.29,0.0,77.50925334255247,0,100,3.0,4,0.0001832345059894898
5.295,0.0,77.5061800815573,0,100,3.0,4,0.0001223778526198743
5.3,0.0,77.50408180688879,0,100,3.0,4,8.082785918399132e-05
5.305,0.0,77.50266608126702,0,100,3.0,4,5.279368845589992e-05
5.31,0.0,77.50172209455528,0,100,3.0,4,3.4100882282702947e-05
5.315,0.0,77.50110002684835,0,100,3.0,4,2.1782709868287808e-05
5.32,0.0,77.50069488391328,0,100,3.0,4,1.376007749075656e-05
5.325,0.0,77.50043409412848,0,100,3.0,4,8.59592333622774e-06
5.33,0.0,77.50026817497371,0,100,3.0,4,5.310395519051898e-06
5.335,0.0,77.50016383823585,0,100,3.0,4,3.24432150196657e-06
5.34,0.0,77.50009898627022,0,100,3.0,4,1.9601241627125354e-06
5.345,0.0,77.50005914218141,0,100,3.0,4,1.1711323052190667e-06
5.35,0.0,77.5000349447871,0,100,3.0,4,6.919759822393293e-07
5.355,0.0,77.50002041879647,0,100,3.0,4,4.0433260330633623e-07
5.36,0.0,77.50001179887397,0,100,3.0,4,2.3364106871866008e-07
5.365,0.0,77.50000674238683,0,100,3.0,4,1.335126104986737e-07
5.37,0.0,77.50000381021472,0,100,3.0,4,7.544979646557087e-08
5.375,0.0,77.50000212935424,0,100,3.0,4,4.216543055746916e-08
5.38,0.0,77.50000117681735,0,100,3.0,4,2.3303313848445402e-08
5.385,0.001684486749771458,77.50000064318053,0,100,3.0,4,1.2736248069390652e-08
5.39,0.00456624331333666,77.50000034763173,0,100,3.0,4,6.883796555881093e-09
5.395,0.011079731271581421,77.5000001858098,0,100,3.0,4,3.6794019008696767e-09
5.4,0.024064571490409,77.5000000982156,0,100,3.0,4,1.944863245148779e-09
5.405,0.046784906529573234,77.5000000513399,0,100,3.0,4,1.0166316017846227e-09
5.41,0.08141644351188804,77.50000002653947,0,100,3.0,4,5.255340101489264e-10
5.415,0.12682276464025305,77.50000001356726,0,100,3.0,4,2.686586003169351e-10
5.42,0.1768320708657512,77.5000000068589,0,100,3.0,4,1.3581975148518172e-10
5.425,0.22070063230473494,77.5000000034291,0,100,3.0,4,6.790284066599919e-11
5.43,0.24656126505113576,77.50000000169538,0,100,3.0,4,3.357194830164415e-11
5.435,0.24656126505724016,77.50000000082893,0,100,3.0,4,1.641452210678115e-11
5.44,0.220700632329898,77.5000000004008,0,100,3.0,4,7.936692007674403e-12
5.445,0.17683207093748562,77.50000000019165,0,100,3.0,4,3.795001716618104e-12
5.45,0.12682276483597799,77.50000000009062,0,100,3.0,4,1.7945073370067957e-12
5.455,0.08141644409447898,77.50000000004238,0,100,3.0,4,8.391439358560866e-13
5.46,0.04678490952598309,77.5000000000196,0,100,3.0,4,3.880548247972983e-13
5.465,0.024064605020532023,77.50000000000897,0,100,3.0,4,1.775653331741082e-13
5.47,0.011080171739334697,77.50000000000405,0,100,3.0,4,8.019987314519942e-14
5.475,0.004571212771509492,77.50000000000182,0,100,3.0,4,3.60195921494229e-14
5.48,0.0017299316936037438,77.5000000000008,0,100,3.0,4,1.575857156537252e-14
5.485,0.0008899431850697582,77.50000000000036,0,100,3.0,4,7.03507659168416e-15
5.49,0.002128806368910263,77.50000000000016,0,100,3.0,4,3.0954337003410305e-15
5.495,0.009309664818487698,77.50000000000007,0,100,3.0,4,1.4070153183368321e-15
5.5,0.03503263543368747,77.50000000000003,0,100,3.0,4,5.628061273347328e-16
5.505,0.10606267793605692,77.50000000000001,0,100,3.0,4,2.814030636673664e-16
5.51,0.25734927343160535,77.5,0,100,3.0,4,0.0
5.515,0.5003202479539708,77.5,0,100,3.0,4,0.0
5.52,0.7793067891790435,77.5,0,100,3.0,4,0.0
5.525,0.9720477407234077,77.50000296417907,1,100,3.0,4,5.8696615339370215e-08
5.53,0.967267334488097,77.50000671426626,0,100,3.0,4,1.3295576758366115e-07
5.535,0.7505869905515209,77.50001690807775,0,100,3.0,4,3.3481342086923917e-07
5.54,0.4028369574773956,77.50004998152149,0,100,3.0,4,9.897330987161408e-07
5.545,0.04553881263121314,77.50017093493624,0,100,3.0,4,3.3848502224904368e-06
5.55,-0.189138810908105,77.50062682696246,0,100,3.0,4,1.2412415098215026e-05
5.555,-0.22868072635956738,77.50228951654114,0,100,3.0,4,4.533696121069003e-05
5.56,-0.14104670682394166,77.50797121731352,0,100,3.0,4,0.00015784588739653274
5.565,-0.051158381651102834,77.52589581734757,0,100,3.0,4,0.0005127884623282125
5.57,-0.008206426846427752,77.57774358530986,0,100,3.0,4,0.001539476936828929
5.575,0.005350271385530505,77.7147515715821,0,100,3.0,4,0.00425250636796235
5.58,0.01084668799215426,78.04471478880228,0,100,3.0,4,0.01078643146143131
5.585,0.016256859896386415,78.76748649806238,0,100,3.0,4,0.02509874253588876
5.59,0.02345021205790711,80.20427167320135,0,100,3.0,4,0.05354993412279896
5.595,0.0330621597308209,82.78911922275384,0,100,3.0,4,0.10473503411393742
5.6,0.04559141319943196,86.98172744251318,0,100,3.0,4,0.18775697905966685
5.605,0.06149084917446989,93.07887730032347,0,100,3.0,4,0.30849261980838555
5.61,0.08111733445924295,100.95962721250167,0,100,3.0,4,0.4645470735148846
5.615,0.1046628598272375,109.87793025058434,0,100,3.0,4,0.6411471336749375
5.62,0.1320831047748631,118.45853789884562,0,100,3.0,4,0.8110601564127845
5.625,0.16303381314489318,124.99616767138359,0,100,3.0,4,0.9405181717105661
5.63,0.19682662652900276,128.0,0,100,3.0,4,1.0
5.635,0.23241585813229,126.75356838385197,0,100,3.0,4,0.9753181858188509
5.64,0.26842527782774417,121.60504184108623,0,100,3.0,4,0.8733671651700244
5.645,0.30321927900592993,113.82915829348634,0,100,3.0,4,0.7193892731383434
5.65,0.3350163137995362,105.1368956240279,0,100,3.0,4,0.5472652598817406
5.655,0.3620352400956416,97.09121900543379,0,100,3.0,4,0.387944930800669
5.66,0.3826586036805073,90.69899581482312,0,100,3.0,4,0.2613662537588737
5.665,0.39559233134833227,86.30643547151764,0,100,3.0,4,0.1743848608221316
5.67,0.4,83.74771204094193,0,100,3.0,4,0.12371707011766206
5.675,0.39559233134833227,82.59820551494997,0,100,3.0,4,0.1009545646524746
5.68,0.3826586036805073,82.39507218456649,0,100,3.0,4,0.09693212246666312
5.685,0.3620352400956416,82.76100457002498,0,100,3.0,4,0.10417830831732633
5.69,0.3350163137995362,83.43701275683196,0,100,3.0,4,0.11756460904617747
5.695,0.3032192790059296,84.26274473002995,0,100,3.0,4,0.13391573722831585
5.7,0.26842527782774417,85.14136714527861,0,100,3.0,4,0.1513142008966061
5.705,0.23241585813229,86.00990517918865,0,100,3.0,4,0.1685129738453198
5.71,0.19682662652900276,86.82112236316677,0,100,3.0,4,0.1845766804587478
5.715,0.16303381314489318,87.53521333823748,0,100,3.0,4,0.19871709580668284
5.72,0.13208310477486307,88.11753774701205,0,100,3.0,4,0.21024827221806042
5.725,0.10466285982723562,88.53926927071664,0,100,3.0,4,0.2185993914993395
5.73,0.08111733445917907,88.77902403173812,0,100,3.0,4,0.22334701052946768
5.735,0.06149084917398798,88.82443075630417,0,100,3.0,4,0.22424615359018152
5.74,0.04559141333598128,88.67312595457363,0,100,3.0,4,0.22125001890244822
5.745,0.03306217087257399,88.33294216334119,0,100,3.0,4,0.21451370620477597
5.75,0.02345067901074276,87.8212325486588,0,100,3.0,4,0.20438084254769898
5.755,0.016268788896435526,87.16340340705206,0,100,3.0,4,0.19135452291192195
5.76,0.011039026374860051,86.39082504390485,0,100,3.0,4,0.17605594146346246
5.765,0.007326255555493689,85.53835951391795,0,100,3.0,4,0.15917543591916739
5.77,0.0047556414315231815,84.64177552213825,0,100,3.0,4,0.1414212974680841
5.775,0.0030193390635632803,83.73531462915751,0,100,3.0,4,0.12347157681500029
5.78,0.001874953127946523,82.8496326055666,0,100,3.0,4,0.10593331892211084
5.785,0.0011387927410965778,82.01027424192745,0,100,3.0,4,0.0893123612262861
5.79,0.0006765107634274089,81.23676123804874,0,100,3.0,4,0.07399527204056917
5.795,0.00039307957404427924,80.54229383076677,0,100,3.0,4,0.06024344219340132
5.8,0.00022338910511776318,79.93399886750076,0,100,3.0,4,0.04819799737625271
5.805,0.00012417073320013317,79.41360807300065,0,100,3.0,4,0.037893229168329615
5.81,6.750753468904987e-05,78.97842407043797,0,100,3.0,4,0.029275724167088454
5.815,3.5897234866245036e-05,78.62242792395355,0,100,3.0,4,0.022226295523832713
5.82,1.8670050400879738e-05,78.33739682142036,0,100,3.0,4,0.016582115275650608
5.825,9.497421874143672e-06,78.11392816965889,0,100,3.0,4,0.0121569934585919
5.83,4.725434140340885e-06,77.9423002876319,0,100,3.0,4,0.008758421537265242
5.835,2.299606063738814e-06,77.81313404636992,0,100,3.0,4,0.006200674185543062
5.84,1.0945633976635486e-06,77.7178495995346,0,100,3.0,4,0.004313853456130745
5.845,5.095703414287532e-07,77.64893495872354,0,100,3.0,4,0.002949207103436511
5.85,2.3202944964797243e-07,77.60005756748029,0,100,3.0,4,0.0019813379699067666
5.855,1.0333746954038608e-07,77.56605666430328,0,100,3.0,4,0.0013080527584806965
5.86,4.501406988770349e-08,77.54285453088583,0,100,3.0,4,0.0008486045719966978
5.865,0.0,77.5273206016611,0,100,3.0,4,0.0005410020130911431
5.87,0.0,77.51711579911962,0,100,3.0,4,0.0003389267152400488
5.875,0.0,77.5105370128528,0,100,3.0,4,0.00020865371985730172
5.88,0.0,77.50637457516568,0,100,3.0,4,0.00012622921120157684
5.885,0.0,77.50378964379554,0,100,3.0,4,7.504245139688068e-05
5.89,0.0,77.50221390480374,0,100,3.0,4,4.3839699083937465e-05
5.895,0.0,77.50127096298368,0,100,3.0,4,2.5167583835287354e-05
5.9,0.0,77.5007170018383,0,100,3.0,4,1.4198056203890746e-05
5.905,0.0,77.5003974852742,0,100,3.0,4,7.870995528834317e-06
5.91,0.0,77.50021653855089,0,100,3.0,4,4.287892096780893e-06
5.915,0.0,77.50011592118605,0,100,3.0,4,2.2954690307145002e-06
5.92,0.0,77.50006098230187,0,100,3.0,4,1.2075703341564587e-06
5.925,0.001684486749771458,77.50003152522672,0,100,3.0,4,6.2426191519053e-07
5.93,0.00456624331333666,77.50001601496638,0,100,3.0,4,3.1712804707015015e-07
5.935,0.011079731271581421,77.5000079947935,0,100,3.0,4,1.5831274269955187e-07
5.94,0.024064571490409,77.50000392194843,0,100,3.0,4,7.766234521924243e-08
5.945,0.046784906529573234,77.50000189064467,0,100,3.0,4,3.743850828472529e-08
5.95,0.08141644351188804,77.50000089563562,0,100,3.0,4,1.7735358862482105e-08
5.955,0.12682276464025305,77.50000041693293,0,100,3.0,4,8.256097710880856e-09
5.96,0.1768320708657512,77.500000190728,0,100,3.0,4,3.776792124368188e-09
5.965,0.22070063230473494,77.50000008573855,0,100,3.0,4,1.697793043667213e-09
5.97,0.24656126505113576,77.50000003787487,0,100,3.0,4,7.499974151077107e-10
5.975,0.24656126505724016,77.50000001644143,0,100,3.0,4,3.255729327497872e-10
5.98,0.220700632329898,77.50000000701361,0,100,3.0,4,1.3888338663932835e-10
5.985,0.17683207093748562,77.50000000294007,0,100,3.0,4,5.821919843907777e-11
5.99,0.12682276483597799,77.50000000121112,0,100,3.0,4,2.3982576101051303e-11
5.995,0.08141644409447898,77.50000000049026,0,100,3.0,4,9.708124293460474e-12
6.0,0.04678490952598309,77.50000000019502,0,100,3.0,4,3.8616942427072695e-12
6.005,0.024064605020532023,77.50000000007623,0,100,3.0,4,1.5094460335117535e-12
6.01,0.011080171739334697,77.50000000002929,0,100,3.0,4,5.799717142184422e-13
6.015,0.004571212771509492,77.50000000001106,0,100,3.0,4,2.1893158353321106e-13
6.02,0.0017299316936037438,77.50000000000409,0,100,3.0,4,8.104408233620152e-14
6.025,0.0008899431850697582,77.50000000000149,0,100,3.0,5,2.9547321685073474e-14
6.03,0.002128806368910263,77.50000000000054,0,100,3.0,5,1.0693316419359924e-14
6.035,0.009309664818487698,77.50000000000018,0,100,3.0,5,3.6582398276757634e-15
6.04,0.03503263543368747,77.50000000000007,0,100,3.0,5,1.4070153183368321e-15
6.045,0.10606267793605692,77.50000000000003,0,100,3.0,5,5.628061273347328e-16
6.05,0.25734927343160535,77.5,0,100,3.0,5,0.0
6.055,0.5003202479539708,77.5,0,100,3.0,5,0.0
6.06,0.7793067891790435,77.5,0,100,3.0,5,0.0
6.065,0.9720477407234077,77.50000295860458,1,100,3.0,5,5.8586229359585414e-08
6.07,0.967267334488097,77.50000607194025,0,100,3.0,5,1.2023644056189188e-07
6.075,0.7505869905515209,77.50001345273148,0,100,3.0,5,2.663907223742883e-07
6.08,0.4028369574773956,77.5000335974731,0,100,3.0,5,6.65296497145121e-07
6.085,0.04553881263121314,77.5000952391376,0,100,3.0,5,1.8859235166978084e-06
6.09,-0.189138810908105,77.50029396174413,0,100,3.0,5,5.821024636320949e-06
6.095,-0.22868072635956738,77.50093256649718,0,100,3.0,5,1.8466663310573943e-05
6.1,-0.14104670682394166,77.5029100232732,0,100,3.0,5,5.762422323172278e-05
6.105,-0.051158381651102834,77.50870714352278,0,100,3.0,5,0.00017241868361948757
6.11,-0.008206426846427752,77.5246562773498,0,100,3.0,5,0.00048824311583773423
6.115,0.005350271385530505,77.56565066778992,0,100,3.0,5,0.0013000132235628605
6.12,0.01084668799215426,77.66383990810884,0,100,3.0,5,0.0032443546160166505
6.125,0.016256859896386415,77.88262038992832,0,100,3.0,5,0.007576641384719209
6.13,0.02345021205790711,78.33545183145863,0,100,3.0,5,0.016543600622943112
6.135,0.0330621597308209,79.20484989603223,0,100,3.0,5,0.03375940388182632
6.14,0.04559141319943196,80.75054676642503,0,100,3.0,5,0.06436726270148578
6.145,0.06149084917446989,83.28992906835192,0,100,3.0,5,0.11465206075944404
6.15,0.08111733445924295,87.13394030962314,0,100,3.0,5,0.19077109524006222
6.155,0.1046628598272375,92.47378991953458,0,100,3.0,5,0.2965106914759323
6.16,0.1320831047748631,99.23955414039685,0,100,3.0,5,0.43048622060191777
6.165,0.16303381314489318,106.98246625036123,0,100,3.0,5,0.5838112128784402
6.17,0.19682662652900276,114.8494723141842,0,100,3.0,5,0.7395935111719643
6.175,0.23241585813229,121.70177762100317,0,100,3.0,5,0.8752827251683797
6.18,0.26842527782774417,126.37413972136399,0,100,3.0,5,0.9678047469577027
6.185,0.30321927900592993,128.0,0,100,3.0,5,1.0
6.19,0.3350163137995362,126.27952255457706,0,100,3.0,5,0.9659311396945952
6.195,0.3620352400956416,121.57753056726469,0,100,3.0,5,0.8728223874705879
6.2,0.3826586036805073,114.80819134861454,0,100,3.0,5,0.7387760663091989
6.205,0.39559233134833227,107.1570555269131,0,100,3.0,5,0.5872684262755069
6.21,0.4,99.75682326894582,0,100,3.0,5,0.44072917364249153
6.215,0.39559233134833227,93.437628290086,0,100,3.0,5,0.3155965998036831
6.22,0.3826586036805073,88.6210265304858,0,100,3.0,5,0.2202183471383328
6.225,0.3620352400956416,85.35521064557099,0,100,3.0,5,0.15554872565487113
6.23,0.3350163137995362,83.43676931776182,0,100,3.0,5,0.11755978847053099
6.235,0.3032192790059296,82.55078966163666,0,100,3.0,5,0.1000156368640922
6.24,0.26842527782774417,82.37990978446584,0,100,3.0,5,0.0966318769201156
6.245,0.23241585813229,82.66385053700031,0,100,3.0,5,0.10225446607921415
6.25,0.19682662652900276,83.21572546574443,0,100,3.0,5,0.11318268248998865
6.255,0.16303381314489318,83.91239791841033,0,100,3.0,5,0.12697817660218486
6.26,0.13208310477486307,84.67546318988141,0,100,3.0,5,0.14208837999765173
6.265,0.10466285982723562,85.45331282711224,0,100,3.0,5,0.1574913431111335
6.27,0.08111733445917907,86.20847512306442,0,100,3.0,5,0.17244505194186965
6.275,0.06149084917398798,86.91043201717129,0,100,3.0,5,0.1863451884588374
6.28,0.04559141333598128,87.53247338289246,0,100,3.0,5,0.19866283926519726
6.285,0.03306217087257399,88.0509704560115,0,100,3.0,5,0.20893010803983164
6.29,0.02345067901074276,88.44584531855038,0,100,3.0,5,0.21674941224852243
6.295,0.016268788896435526,88.70146811501344,0,100,3.0,5,0.22181124980224634
6.3,0.011039026374860051,88.80754517288817,0,100,3.0,5,0.2239117856017459
6.305,0.007326255555493689,88.75976200907462,0,100,3.0,5,0.22296558433811128
6.31,0.0047556414315231815,88.56006114259078,0,100,3.0,5,0.21901111173447094
6.315,0.0030193390635632803,88.21650740561338,0,100,3.0,5,0.2122080674378888
6.32,0.001874953127946523,87.74274663539316,0,100,3.0,5,0.20282666604738933
6.325,0.0011387927410965778,87.15710631316468,0,100,3.0,5,0.19122982798345892
6.33,0.0006765107634274089,86.48142019658886,0,100,3.0,5,0.17784990488294766
6.335,0.00039307957404427924,85.73968176817759,0,100,3.0,5,0.16316201521143742
6.34,0.00022338910511776318,84.95664182706211,0,100,3.0,5,0.14765627380321017
6.345,0.00012417073320013317,84.15646337911748,0,100,3.0,5,0.13181115602212837
6.35,6.750753468904987e-05,83.36153323734182,0,100,3.0,5,0.11606996509587757
6.355,3.5897234866245036e-05,82.59150690834363,0,100,3.0,5,0.10082191897710163
6.36,1.8670050400879738e-05,81.86263483969579,0,100,3.0,5,0.08638880870684726
6.365,9.497421874143672e-06,81.18738775969096,0,100,3.0,5,0.07301757939982106
6.37,4.725434140340885e-06,80.57437030471705,0,100,3.0,5,0.06087861989538713
6.375,2.299606063738814e-06,80.02848839135753,0,100,3.0,5,0.0500690770565847
6.38,1.0945633976635486e-06,79.55131885537037,0,100,3.0,5,0.040620175353868686
6.385,5.095703414287532e-07,79.14162062723075,0,100,3.0,5,0.03250733915308417
6.39,2.3202944964797243e-07,78.79592494440962,0,100,3.0,5,0.025661880087319212
6.395,1.0333746954038608e-07,78.50914673365939,0,100,3.0,5,0.019983103636819648
6.4,4.501406988770349e-08,78.2751686651716,0,100,3.0,5,0.015349874557853577
6.405,0.0,78.08736155817212,0,100,3.0,5,0.01163092194400237
6.41,0.0,77.93901792246764,0,100,3.0,5,0.008693424207280032
6.415,0.0,77.82368785280029,0,100,3.0,5,0.0064096604514908995
6.42,0.0,77.73541708275205,0,100,3.0,5,0.004661724410931694
6.425,0.0,77.66889506741865,0,100,3.0,5,0.0033444567805672436
6.43,0.0,77.61952627338034,0,100,3.0,5,0.0023668568986206853
6.435,0.0,77.583440560487,0,100,3.0,5,0.0016522883264753596
6.44,0.0,77.55745905335685,0,100,3.0,5,0.0011378030367693284
6.445,0.0,77.53903077198105,0,100,3.0,5,0.0007728865738821098
6.45,0.0,77.52615310372167,0,100,3.0,5,0.0005178832420132368
6.455,0.0,77.51728648731061,0,100,3.0,5,0.00034230667941809016
6.46,0.0,77.51127087641395,0,100,3.0,5,0.00022318567156327782
6.465,0.0,77.50724896569103,0,100,3.0,5,0.0001435438750699704
6.47,0.0,77.50459898318086,0,100,3.0,5,9.10689738783267e-05
6.475,0.0,77.50287816056776,0,100,3.0,5,5.699327856952082e-05
6.48,0.0,77.50177678810005,0,100,3.0,5,3.518392277317274e-05
6.485,0.0,77.50108199106754,0,100,3.0,5,2.1425565693793897e-05
6.49,0.0,77.5006499487824,0,100,3.0,5,1.2870272918730328e-05
6.495,0.0,77.50038512526845,0,100,3.0,5,7.626242939628661e-06
6.5,0.0,77.50022510871771,0,100,3.0,5,4.457598370580323e-06
6.505,0.0,77.5001297926306,0,100,3.0,5,2.5701511010358426e-06
6.51,0.0,77.50007382019291,0,100,3.0,5,1.4617859982094934e-06
6.515,0.0,77.50004141596045,0,100,3.0,5,8.201180287752583e-07
6.52,0.0,77.50002292069169,0,100,3.0,5,4.5387508299598373e-07
6.525,0.0,77.50001251281783,0,100,3.0,5,2.477785709414651e-07
6.53,0.0,77.50000673829383,0,100,3.0,5,1.334315610696793e-07
6.535,0.001684486749771458,77.50000357941612,0,100,3.0,5,7.087952705732466e-08
6.54,0.00456624331333666,77.50000187560704,0,100,3.0,5,3.714073347221682e-08
6.545,0.011079731271581421,77.50000096948018,0,100,3.0,5,1.919762739096696e-08
6.55,0.024064571490409,77.5000004943146,0,100,3.0,5,9.788408024718646e-09
6.555,0.046784906529573234,77.5000002486196,0,100,3.0,5,4.923160387610695e-09
6.56,0.08141644351188804,77.50000012334874,0,100,3.0,5,2.442549326714119e-09
6.565,0.12682276464025305,77.50000006036726,0,100,3.0,5,1.1953912095609352e-09
6.57,0.1768320708657512,77.5000000291431,0,100,3.0,5,5.770909910556793e-10
6.575,0.22070063230473494,77.50000001387833,0,100,3.0,5,2.748185133806137e-10
6.58,0.24656126505113576,77.50000000651939,0,100,3.0,5,1.290967508911047e-10
6.585,0.24656126505724016,77.50000000302094,0,100,3.0,5,5.982066327440875e-11
6.59,0.220700632329898,77.50000000138085,0,100,3.0,5,2.7343654293494327e-11
6.595,0.17683207093748562,77.5000000006226,0,100,3.0,5,1.2328831025394658e-11
6.6,0.12682276483597799,77.50000000027693,0,100,3.0,5,5.4837015016859696e-12
6.605,0.08141644409447898,77.50000000012149,0,100,3.0,5,2.4057147912923155e-12
6.61,0.04678490952598309,77.50000000005258,0,100,3.0,5,1.0411913355692557e-12
6.615,0.024064605020532023,77.50000000002245,0,100,3.0,5,4.446168405944389e-13
6.62,0.011080171739334697,77.50000000000945,0,100,3.0,5,1.8713303733879865e-13
6.625,0.004571212771509492,77.50000000000392,0,100,3.0,5,7.766724557219314e-14
6.63,0.0017299316936037438,77.5000000000016,0,100,3.0,5,3.179854619441241e-14
6.635,0.0008899431850697582,77.50000000000065,0,100,3.0,5,1.2944540928698855e-14
6.64,0.002128806368910263,77.50000000000026,0,100,3.0,5,5.065255146012595e-15
6.645,0.009309664818487698,77.5000000000001,0,100,3.0,5,1.969821445671565e-15
6.65,0.03503263543368747,77.50000000000004,0,100,3.0,5,8.442091910020992e-16
6.655,0.10606267793605692,77.50000000000001,0,100,3.0,5,2.814030636673664e-16
6.66,0.25734927343160535,77.5,0,100,3.0,5,0.0
6.665,0.5003202479539708,77.5,0,100,3.0,5,0.0
6.67,0.7793067891790435,77.5,0,100,3.0,5,0.0
6.675,0.9720477407234077,77.5000029632167,1,100,3.0,5,5.867755844249559e-08
6.68,0.967267334488097,77.50000611949993,0,100,3.0,5,1.2117821641611342e-07
6.685,0.7505869905515209,77.5000136661605,0,100,3.0,5,2.706170395714874e-07
6.69,0.4028369574773956,77.50003448761683,0,100,3.0,5,6.829231055424244e-07
6.695,0.04553881263121314,77.50009893563154,0,100,3.0,5,1.9591214166635243e-06
6.7,-0.189138810908105,77.50030887479707,0,100,3.0,5,6.1163326152625205e-06
6.705,-0.22868072635956738,77.50098936987865,0,100,3.0,5,1.9591482745598493e-05
6.71,-0.14104670682394166,77.50311109919818,0,100,3.0,5,6.160592471641763e-05
6.715,-0.051158381651102834,77.50936430658398,0,100,3.0,5,0.00018543181354407307
6.72,-0.008206426846427752,77.52663503308537,0,100,3.0,5,0.0005274263977300939
6.725,0.005350271385530505,77.57113795423459,0,100,3.0,5,0.0014086723610809244
6.73,0.01084668799215426,77.67785621339104,0,100,3.0,5,0.003521905215664127
6.735,0.016256859896386415,77.9156022259755,0,100,3.0,5,0.008229747049019897
6.74,0.02345021205790711,78.4069380257099,0,100,3.0,5,0.017959168825938725
6.745,0.0330621597308209,79.34748987799968,0,100,3.0,5,0.036583957980191636
6.75,0.04559141319943196,81.01228362930992,0,100,3.0,5,0.06955017087742416
6.755,0.06149084917446989,83.73079902637203,0,100,3.0,5,0.12338215893805991
6.76,0.08111733445924295,87.81367872264438,0,100,3.0,5,0.20423126183454224
6.765,0.1046628598272375,93.4288216152286,0,100,3.0,5,0.3154222102025465
6.77,0.1320831047748631,100.45351412056698,0,100,3.0,5,0.4545250320904352
6.775,0.16303381314489318,108.36134960751014,0,100,3.0,5,0.6111158338120819
6.78,0.19682662652900276,116.21652194472324,0,100,3.0,5,0.7666638008856087
6.785,0.23241585813229,122.82360122088085,0,100,3.0,5,0.8974970538788286
6.79,0.26842527782774417,127.01713839847308,0,100,3.0,5,0.9805373940291698
6.795,0.30321927900592993,128.0,0,100,3.0,5,1.0
6.8,0.3350163137995362,125.59701682575721,0,100,3.0,5,0.9524161747674694
6.805,0.3620352400956416,120.3140247604608,0,100,3.0,5,0.8478024705041742
6.81,0.3826586036805073,113.17578272521496,0,100,3.0,5,0.7064511430735635
6.815,0.39559233134833227,105.41460450461524,0,100,3.0,5,0.5527644456359454
6.82,0.4,98.1397912084383,0,100,3.0,5,0.40870873680075837
6.825,0.39559233134833227,92.10783014594557,0,100,3.0,5,0.2892639632860509
6.83,0.3826586036805073,87.64951021194136,0,100,3.0,5,0.2009804002364626
6.835,0.3620352400956416,84.73520644729147,0,100,3.0,5,0.143271414797851
6.84,0.3350163137995362,83.11302488416099,0,100,3.0,5,0.11114900760714837
6.845,0.3032192790059296,82.45012180045974,0,100,3.0,5,0.09802221387048991
6.85,0.26842527782774417,82.43311100444015,0,100,3.0,5,0.09768536642455743
6.855,0.23241585813229,82.8162323398421,0,100,3.0,5,0.10527192752162579
6.86,0.19682662652900276,83.42866618321837,0,100,3.0,5,0.11739933036075977
6.865,0.16303381314489318,84.1600622480566,0,100,3.0,5,0.13188242075359613
6.87,0.13208310477486307,84.940236624999,0,100,3.0,5,0.14733141831681193
6.875,0.10466285982723562,85.72195777553705,0,100,3.0,5,0.1628110450601396
6.88,0.08111733445917907,86.4696633299647,0,100,3.0,5,0.1776170956428654
6.885,0.06149084917398798,87.15353818842898,0,100,3.0,5,0.19115917204809865
6.89,0.04559141333598128,87.74725089071974,0,100,3.0,5,0.2029158592221731
6.895,0.03306217087257399,88.22774168238095,0,100,3.0,5,0.21243052836397924
6.9,0.02345067901074276,88.57593914149084,0,100,3.0,5,0.21932552755427395
6.905,0.016268788896435526,88.77773137510404,0,100,3.0,5,0.2233214133683968
6.91,0.011039026374860051,88.82481855964929,0,100,3.0,5,0.22425383286434233
6.915,0.007326255555493689,88.71524935893723,0,100,3.0,5,0.22208414572152926
6.92,0.0047556414315231815,88.45354650959632,0,100,3.0,5,0.21690191108111528
6.925,0.0030193390635632803,88.05039484238684,0,100,3.0,5,0.20891870975023438
6.93,0.001874953127946523,87.52191701266186,0,100,3.0,5,0.1984538022309279
6.935,0.0011387927410965778,86.88860404516025,0,100,3.0,5,0.18591295138931188
6.94,0.0006765107634274089,86.17399918548756,0,100,3.0,5,0.17176236010866455
6.945,0.00039307957404427924,85.40325259759987,0,100,3.0,5,0.15650005143762127
6.95,0.00022338910511776318,84.60166988532686,0,100,3.0,5,0.14062712644211597
6.955,0.00012417073320013317,83.79336949573046,0,100,3.0,5,0.12462117813327643
6.96,6.750753468904987e-05,83.00014467233905,0,100,3.0,5,0.10891375588790192
6.965,3.5897234866245036e-05,82.2405979846216,0,100,3.0,5,0.09387322741824954
6.97,1.8670050400879738e-05,81.52958456421845,0,100,3.0,5,0.07979375374690006
6.975,9.497421874143672e-06,80.8779681711764,0,100,3.0,5,0.06689045883517634
6.98,4.725434140340885e-06,80.29266578507671,0,100,3.0,5,0.05530031257577638
6.985,2.299606063738814e-06,79.77693434234938,0,100,3.0,5,0.045087808759393624
6.99,1.0945633976635486e-06,79.33083911757771,0,100,3.0,5,0.03625423995203387
6.995,5.095703414287532e-07,78.95183743607637,0,100,3.0,5,0.028749256159928207
7.0,2.3202944964797243e-07,78.63541317800785,0,100,3.0,5,0.022483429267482213
7.005,1.0333746954038608e-07,78.3757053491493,0,100,3.0,5,0.017340699983154448
7.01,4.501406988770349e-08,78.16608584846017,0,100,3.0,5,0.013189818781389513
7.015,0.0,77.99965535153865,0,100,3.0,5,0.00989416537700296
7.02,0.0,77.86964004284735,0,100,3.0,5,0.007319604808858435
7.025,0.0,77.7696842680522,0,100,3.0,5,0.005340282535687178
7.03,0.0,77.69404405685896,0,100,3.0,5,0.0038424565714644857
7.035,0.0,77.63769342762592,0,100,3.0,5,0.0027266025272459243
7.04,0.0,77.59635942692422,0,100,3.0,5,0.0019081074638460122
7.045,0.0,77.56650332172448,0,100,3.0,5,0.0013168974598907444
7.05,0.0,77.54526479938636,0,100,3.0,5,0.0008963326611160258
7.055,0.0,77.53038407321809,0,100,3.0,5,0.0006016648161997493
7.06,0.0,77.52011404975813,0,100,3.0,5,0.0003982980150125725
7.065,0.0,77.51313170683527,0,100,3.0,5,0.0002600337987181626
7.07,0.0,77.50845494854985,0,100,3.0,5,0.0001674247237594887
7.075,0.0,77.5053686969771,0,100,3.0,5,0.00010631083122971762
7.08,0.0,77.50336197861758,0,100,3.0,5,6.6573834011411e-05
7.085,0.0,77.50207629536354,0,100,3.0,5,4.1114759673998586e-05
7.09,0.0,77.5012645949802,0,100,3.0,5,2.5041484756421046e-05
7.095,0.0,77.50075959466382,0,100,3.0,5,1.5041478491465937e-05
7.1,0.0,77.50044996681824,0,100,3.0,5,8.910234024507182e-06
7.105,0.0,77.50026287374051,0,100,3.0,5,5.205420604165783e-06
7.11,0.0,77.50015145445519,0,100,3.0,5,2.9990981226213685e-06
7.115,0.0,77.5000860567684,0,100,3.0,5,1.7040944236790586e-06
7.12,0.0,77.50004822321333,0,100,3.0,5,9.549151153769704e-07
7.125,0.0,77.50002664988816,0,100,3.0,5,5.277205575409182e-07
7.13,0.0,77.50001452455274,0,100,3.0,5,2.87614905726802e-07
7.135,0.0,77.50000780689389,0,100,3.0,5,1.545919582269454e-07
7.14,0.001684486749771458,77.5000041382995,0,100,3.0,5,8.194652479579589e-08
7.145,0.00456624331333666,77.5000021633844,0,100,3.0,5,4.2839294936507795e-08
7.15,0.011079731271581421,77.50000111535623,0,100,3.0,5,2.2086261919461736e-08
7.155,0.024064571490409,77.50000056710259,0,100,3.0,5,1.1229754235419834e-08
7.16,0.046784906529573234,77.5000002843661,0,100,3.0,5,5.631011784469881e-09
7.165,0.08141644351188804,77.50000014062486,0,100,3.0,5,2.784650749811473e-09
7.17,0.12682276464025305,77.5000000685827,0,100,3.0,5,1.3580731346976763e-09
7.175,0.1768320708657512,77.5000000329864,0,100,3.0,5,6.53196168221455e-10
7.18,0.22070063230473494,77.50000001564673,0,100,3.0,5,3.0983631062338077e-10
7.185,0.24656126505113576,77.50000000731949,0,100,3.0,5,1.4494030618170475e-10
7.19,0.24656126505724016,77.5000000033768,0,100,3.0,5,6.686727739170327e-11
7.195,0.220700632329898,77.50000000153638,0,100,3.0,5,3.042332942226998e-11
7.2,0.17683207093748562,77.50000000068938,0,100,3.0,5,1.3651144021567612e-11
7.205,0.12682276483597799,77.50000000030506,0,100,3.0,5,6.0408795677473545e-12
7.21,0.08141644409447898,77.50000000013313,0,100,3.0,5,2.6361839004358887e-12
7.215,0.04678490952598309,77.5000000000573,0,100,3.0,5,1.1346171527068214e-12
7.22,0.024064605020532023,77.50000000002431,0,100,3.0,5,4.81480641934864e-13
7.225,0.011080171739334697,77.50000000001017,0,100,3.0,5,2.0148459358583435e-13
7.23,0.004571212771509492,77.5000000000042,0,100,3.0,6,8.329530684554046e-14
7.235,0.0017299316936037438,77.5000000000017,0,100,3.0,6,3.376836764008397e-14
7.24,0.0008899431850697582,77.50000000000068,0,100,3.0,6,1.3507347056033587e-14
7.245,0.002128806368910263,77.50000000000027,0,100,3.0,6,5.346658209679962e-15
7.25,0.009309664818487698,77.5000000000001,0,100,3.0,6,1.969821445671565e-15
7.255,0.03503263543368747,77.50000000000004,0,100,3.0,6,8.442091910020992e-16
7.26,0.10606267793605692,77.50000000000001,0,100,3.0,6,2.814030636673664e-16
7.265,0.25734927343160535,77.5,0,100,3.0,6,0.0
7.27,0.5003202479539708,77.5,0,100,3.0,6,0.0
7.275,0.7793067891790435,77.5,0,100,3.0,6,0.0
7.28,0.9720477407234077,77.50000297094563,1,100,3.0,6,5.8830606533747686e-08
7.285,0.967267334488097,77.50000585321456,0,100,3.0,6,1.1590523881480268e-07
7.29,0.7505869905515209,77.50001231859999,0,100,3.0,6,2.4393267297833374e-07
7.295,0.4028369574773956,77.5000287685175,0,100,3.0,6,5.696736137690438e-07
7.3,0.04553881263121314,77.50007544225073,0,100,3.0,6,1.493905955103941e-06
7.305,-0.189138810908105,77.50021580677046,0,100,3.0,6,4.2734013951609664e-06
7.31,-0.22868072635956738,77.50064122197105,0,100,3.0,6,1.2697464773291268e-05
7.315,-0.14104670682394166,77.50189764285709,0,100,3.0,6,3.7577086278971173e-05
7.32,-0.051158381651102834,77.50544678588247,0,100,3.0,6,0.00010785714618751257
7.325,-0.008206426846427752,77.51494354533021,0,100,3.0,6,0.00029591178871706545
7.33,0.005350271385530505,77.53889317447089,0,100,3.0,6,0.0007701618707106056
7.335,0.01084668799215426,77.59565760011441,0,100,3.0,6,0.0018942099032555873
7.34,0.016256859896386415,77.72188223512214,0,100,3.0,6,0.004393707626180944
7.345,0.02345021205790711,77.98486749911095,0,100,3.0,6,0.00960133661605837
7.35,0.0330621597308209,78.4976358334839,0,100,3.0,6,0.01975516501948312
7.355,0.04559141319943196,79.43210578788607,0,100,3.0,6,0.03825952055219946
7.36,0.06149084917446989,81.02144467284691,0,100,3.0,6,0.06973157768013685
7.365,0.08111733445924295,83.53943824352314,0,100,3.0,6,0.11959283650540864
7.37,0.1046628598272375,87.24612635035874,0,100,3.0,6,0.1929926009972027
7.375,0.1320831047748631,92.29836240213126,0,100,3.0,6,0.29303687925012395
7.38,0.16303381314489318,98.6415242177682,0,100,3.0,6,0.41864404391620186
7.385,0.19682662652900276,105.91856224009601,0,100,3.0,6,0.5627438067345745
7.39,0.23241585813229,113.44355699129795,0,100,3.0,6,0.7117536037880783
7.395,0.26842527782774417,120.27731578487735,0,100,3.0,6,0.8470755600965811
7.4,0.30321927900592993,125.40886924748625,0,100,3.0,6,0.9486904801482426
7.405,0.3350163137995362,128.0,0,100,3.0,6,1.0
7.41,0.3620352400956416,127.61297446918879,0,100,3.0,6,0.9923361281027482
7.415,0.3826586036805073,124.33696161207922,0,100,3.0,6,0.9274645863778064
7.42,0.39559233134833227,118.76344665656188,0,100,3.0,6,0.8170979535952848
7.425,0.4,111.82039289833824,0,100,3.0,6,0.6796117405611533
7.43,0.39559233134833227,104.52944873576625,0,100,3.0,6,0.5352366086290347
7.435,0.3826586036805073,97.77357003237384,0,100,3.0,6,0.40145683232423446
7.44,0.3620352400956416,92.14593155860807,0,100,3.0,6,0.2900184467051103
7.445,0.3350163137995362,87.90825613345055,0,100,3.0,6,0.20610408185050594
7.45,0.3032192790059296,85.04198682162858,0,100,3.0,6,0.1493462736956155
7.455,0.26842527782774417,83.34911037832367,0,100,3.0,6,0.11582396788759747
7.46,0.23241585813229,82.55716877843483,0,100,3.0,6,0.10014195600861046
7.465,0.19682662652900276,82.39818228678223,0,100,3.0,6,0.09699370864915308
7.47,0.16303381314489318,82.65144010719679,0,100,3.0,6,0.10200871499399586
7.475,0.13208310477486307,83.15544646601765,0,100,3.0,6,0.11198903893104259
7.48,0.10466285982723562,83.80098496712186,0,100,3.0,6,0.12477197954696759
7.485,0.08111733445917907,84.51679817502719,0,100,3.0,6,0.13894649851538993
7.49,0.06149084917398798,85.25545908263547,0,100,3.0,6,0.15357344718090035
7.495,0.04559141333598128,85.98282074337618,0,100,3.0,6,0.16797664838368673
7.5,0.03306217087257399,86.67155747492474,0,100,3.0,6,0.1816149995034602
7.505,0.02345067901074276,87.29795930335597,0,100,3.0,6,0.19401899610605874
7.51,0.016268788896435526,87.84083911807926,0,100,3.0,6,0.20476909144711405
7.515,0.011039026374860051,88.28160151207733,0,100,3.0,6,0.21349705964509563
7.52,0.007326255555493689,88.60482836895572,0,100,3.0,6,0.21989759146446974
7.525,0.0047556414315231815,88.79899114489746,0,100,3.0,6,0.22374239890886052
7.53,0.0030193390635632803,88.85706779854773,0,100,3.0,6,0.22489243165441053
7.535,0.001874953127946523,88.77694250763581,0,100,3.0,6,0.22330579223041205
7.54,0.0011387927410965778,88.56152685954629,0,100,3.0,6,0.21904013583259982
7.545,0.0006765107634274089,88.21858228046267,0,100,3.0,6,0.2122491540685677
7.55,0.00039307957404427924,87.76025532372388,0,100,3.0,6,0.20317337274700756
7.555,0.00022338910511776318,87.20236355807309,0,100,3.0,6,0.19212601105095226
7.56,0.00012417073320013317,86.5634902866797,0,100,3.0,6,0.17947505518177614
7.565,6.750753468904987e-05,85.86396018771272,0,100,3.0,6,0.16562297401411327
7.57,3.5897234866245036e-05,85.12477432033205,0,100,3.0,6,0.15098563010558516
7.575,1.8670050400879738e-05,84.36658158555097,0,100,3.0,6,0.13597191258516783
7.58,9.497421874143672e-06,83.60875530007408,0,100,3.0,6,0.12096545148661544
7.585,4.725434140340885e-06,82.86862941840498,0,100,3.0,6,0.10630949343376195
7.59,2.299606063738814e-06,82.1609310518812,0,100,3.0,6,0.09229566439368726
7.595,1.0945633976635486e-06,81.49742647014536,0,100,3.0,6,0.07915695980485854
7.6,5.095703414287532e-07,80.88677888145745,0,100,3.0,6,0.06706492834569198
7.605,2.3202944964797243e-07,80.33459982381898,0,100,3.0,6,0.05613068958057379
7.61,1.0333746954038608e-07,79.84366331563119,0,100,3.0,6,0.04640917456695426
7.615,4.501406988770349e-08,79.4142437702478,0,100,3.0,6,0.03790581723262958
7.62,0.0,79.04453522094083,0,100,3.0,6,0.030584855860214453
7.625,0.0,78.73111024024065,0,100,3.0,6,0.024378420598824817
7.63,0.0,78.46938127165673,0,100,3.0,6,0.01919566874567781
7.635,0.0,78.25403387991976,0,100,3.0,6,0.014931363958807127
7.64,0.0,78.07940954909407,0,100,3.0,6,0.011473456417704283
7.645,0.0,77.93982406759571,0,100,3.0,6,0.00870938747714274
7.65,0.0,77.8298153669202,0,100,3.0,6,0.006530997364756453
7.655,0.0,77.74432130323292,0,100,3.0,6,0.004838045608572724
7.66,0.0,77.67879292921928,0,100,3.0,6,0.0035404540439462227
7.665,0.0,77.62925218591911,0,100,3.0,6,0.00255944922612107
7.67,0.0,77.59230474085237,0,100,3.0,6,0.0018278166505419813
7.675,0.0,77.56511914230262,0,100,3.0,6,0.0012894879663885247
7.68,0.0,77.54538286297166,0,100,3.0,6,0.0008986705538943354
7.685,0.0,77.5312445059329,0,100,3.0,6,0.0006187030877802698
7.69,0.0,77.52124975792847,0,100,3.0,6,0.00042078728571233557
7.695,0.0,77.51427686543666,0,100,3.0,6,0.00028271020666646127
7.7,0.0,77.50947567810488,0,100,3.0,6,0.00018763719019558933
7.705,0.0,77.50621278444058,0,100,3.0,6,0.0001230254344668898
7.71,0.0,77.50402402644141,0,100,3.0,6,7.968369190918322e-05
7.715,0.0,77.50257474319895,0,100,3.0,6,5.098501384056795e-05
7.72,0.0,77.50162744217775,0,100,3.0,6,3.222657777721924e-05
7.725,0.0,77.50101619199279,0,100,3.0,6,2.0122613718605393e-05
7.73,0.0,77.50062682242242,0,100,3.0,6,1.2412325196408455e-05
7.735,0.0,77.50038195467684,0,100,3.0,6,7.56345894732215e-06
7.74,0.0,77.50022992049958,0,100,3.0,6,4.552881179760973e-06
7.745,0.0,77.50013672316726,0,100,3.0,6,2.7073894506708647e-06
7.75,0.0,77.50008031655649,0,100,3.0,6,1.5904268612230947e-06
7.755,0.0,77.50004660865855,0,100,3.0,6,9.22943733672078e-07
7.76,0.0,77.50002671939872,0,100,3.0,6,5.29097004325852e-07
7.765,0.0,77.500015131616,0,100,3.0,6,2.996359603119993e-07
7.77,0.0,77.50000846530277,0,100,3.0,6,1.67629757819362e-07
7.775,0.0,77.50000467840951,0,100,3.0,6,9.264177248438176e-08
7.78,0.0,77.50000255418604,0,100,3.0,6,5.057794137743744e-08
7.785,0.001684486749771458,77.50000137754365,0,100,3.0,6,2.7278092163511912e-08
7.79,0.00456624331333666,77.5000007339336,0,100,3.0,6,1.4533338686521915e-08
7.795,0.011079731271581421,77.500000386284,0,100,3.0,6,7.649188125586728e-09
7.8,0.024064571490409,77.50000020084232,0,100,3.0,6,3.9770756896782906e-09
7.805,0.046784906529573234,77.50000010315784,0,100,3.0,6,2.0427296026310154e-09
7.81,0.08141644351188804,77.5000000523417,0,100,3.0,6,1.0364693921609173e-09
7.815,0.12682276464025305,77.50000002623567,0,100,3.0,6,5.195181754538455e-10
7.82,0.1768320708657512,77.50000001299077,0,100,3.0,6,2.57242922233141e-10
7.825,0.22070063230473494,77.50000000635443,0,100,3.0,6,1.2583022412805389e-10
7.83,0.24656126505113576,77.50000000307055,0,100,3.0,6,6.080304136967153e-11
7.835,0.24656126505724016,77.50000000146574,0,100,3.0,6,2.9024474792779507e-11
7.84,0.220700632329898,77.50000000069117,0,100,3.0,6,1.36866008075897e-11
7.845,0.17683207093748562,77.50000000032198,0,100,3.0,6,6.3757492135115204e-12
7.85,0.12682276483597799,77.50000000014816,0,100,3.0,6,2.9339083417959623e-12
7.855,0.08141644409447898,77.50000000006736,0,100,3.0,6,1.3338505217833169e-12
7.86,0.04678490952598309,77.50000000003025,0,100,3.0,6,5.991071225478231e-13
7.865,0.024064605020532023,77.50000000001342,0,100,3.0,6,2.656444921019939e-13
7.87,0.011080171739334697,77.50000000000588,0,100,3.0,6,1.165008683582897e-13
7.875,0.004571212771509492,77.50000000000254,0,100,3.0,6,5.037114839645859e-14
7.88,0.0017299316936037438,77.5000000000011,0,100,3.0,6,2.1668035902387214e-14
7.885,0.0008899431850697582,77.50000000000045,0,100,3.0,6,9.004898037355725e-15
7.89,0.002128806368910263,77.50000000000018,0,100,3.0,6,3.6582398276757634e-15
7.895,0.009309664818487698,77.50000000000009,0,100,3.0,6,1.6884183820041984e-15
7.9,0.03503263543368747,77.50000000000003,0,100,3.0,6,5.628061273347328e-16
7.905,0.10606267793605692,77.50000000000001,0,100,3.0,6,2.814030636673664e-16
7.91,0.25734927343160535,77.5,0,100,3.0,6,0.0
7.915,0.5003202479539708,77.5,0,100,3.0,6,0.0
7.92,0.7793067891790435,77.5,0,100,3.0,6,0.0
7.925,0.9720477407234077,77.5000029632167,1,100,3.0,6,5.867755844249559e-08
7.93,0.967267334488097,77.5000059376048,0,100,3.0,6,1.1757633261719219e-07
7.935,0.7505869905515209,77.50001276355475,0,100,3.0,6,2.5274365841574077e-07
7.94,0.4028369574773956,77.50003064109448,0,100,3.0,6,6.067543461986224e-07
7.945,0.04553881263121314,77.50008298165619,0,100,3.0,6,1.6432011127090117e-06
7.95,-0.189138810908105,77.50024503836143,0,100,3.0,6,4.852244780740965e-06
7.955,-0.22868072635956738,77.50074848054169,0,100,3.0,6,1.4821396865108279e-05
7.96,-0.14104670682394166,77.50226551612232,0,100,3.0,6,4.4861705392500734e-05
7.965,-0.051158381651102834,77.50661940466038,0,100,3.0,6,0.00013107732000760438
7.97,-0.008206426846427752,77.51841054376423,0,100,3.0,6,0.00036456522305411903
7.975,0.005350271385530505,77.54839812828513,0,100,3.0,6,0.0009583787779233446
7.98,0.01084668799215426,77.61982582118479,0,100,3.0,6,0.0023727885383126738
7.985,0.016256859896386415,77.77889256217193,0,100,3.0,6,0.0055226249935036225
7.99,0.02345021205790711,78.10963732186457,0,100,3.0,6,0.012072026175536002
7.995,0.0330621597308209,78.75092151744123,0,100,3.0,6,0.02477072311764807
8.0,0.04559141319943196,79.9087326709927,0,100,3.0,6,0.0476976766533209
8.005,0.06149084917446989,81.85188343427765,0,100,3.0,6,0.0861759095896565
8.01,0.08111733445924295,84.87660047953338,0,100,3.0,6,0.14607129662442336
8.015,0.1046628598272375,89.23015235542505,0,100,3.0,6,0.23228024466188213
8.02,0.1320831047748631,94.99882501874558,0,100,3.0,6,0.3465113865098134
8.025,0.16303381314489318,101.98894029735766,0,100,3.0,6,0.4849295108387655
8.03,0.19682662652900276,109.65089174060849,0,100,3.0,6,0.6366513215962076
8.035,0.23241585813229,117.09986446314402,0,100,3.0,6,0.7841557319434459
8.04,0.26842527782774417,123.26166314833992,0,100,3.0,6,0.9061715474918796
8.045,0.30321927900592993,127.12152069509544,0,100,3.0,6,0.9826043701999098
8.05,0.3350163137995362,128.0,0,100,3.0,6,1.0
8.055,0.3620352400956416,125.753838019447,0,100,3.0,6,0.9555215449395446
8.06,0.3826586036805073,120.82076135998885,0,100,3.0,6,0.8578368586136406
8.065,0.39559233134833227,114.08960455830919,0,100,3.0,6,0.7245466249170137
8.07,0.4,106.64913868340399,0,100,3.0,6,0.5772106669980989
8.075,0.39559233134833227,99.5133886516984,0,100,3.0,6,0.43590868617224565
8.08,0.3826586036805073,93.41762112302557,0,100,3.0,6,0.31520041827773404
8.085,0.3620352400956416,88.73552998548763,0,100,3.0,6,0.22248574228688378
8.09,0.3350163137995362,85.51231074372309,0,100,3.0,6,0.15865961868758596
8.095,0.3032192790059296,83.56875812223683,0,100,3.0,6,0.12017342816310553
8.1,0.26842527782774417,82.62145439320233,0,100,3.0,6,0.10141493847925401
8.105,0.23241585813229,82.37856251014239,0,100,3.0,6,0.09660519822064134
8.11,0.19682662652900276,82.59484163283764,0,100,3.0,6,0.10088795312549786
8.115,0.16303381314489318,83.08955460734782,0,100,3.0,6,0.11068424965045191
8.12,0.13208310477486307,83.74068070754905,0,100,3.0,6,0.12357783579305041
8.125,0.10466285982723562,84.46928792877765,0,100,3.0,6,0.1380057015599534
8.13,0.08111733445917907,85.22350477295976,0,100,3.0,6,0.15294068857346052
8.135,0.06149084917398798,85.96643451289296,0,100,3.0,6,0.16765216857213783
8.14,0.04559141333598128,86.66877212581805,0,100,3.0,6,0.181559844075605
8.145,0.03306217087257399,87.30517905319509,0,100,3.0,6,0.19416196144940773
8.15,0.02345067901074276,87.85308057266846,0,100,3.0,6,0.20501149648848438
8.155,0.016268788896435526,88.29277433001748,0,100,3.0,6,0.21371830356470256
8.16,0.011039026374860051,88.60810467392501,0,100,3.0,6,0.2199624687905943
8.165,0.007326255555493689,88.78725860971063,0,100,3.0,6,0.22351007147941848
8.17,0.0047556414315231815,88.82343447722398,0,100,3.0,6,0.22422642529156403
8.175,0.0030193390635632803,88.71524935893723,0,100,3.0,6,0.22208414572152926
8.18,0.001874953127946523,88.46682050888896,0,100,3.0,6,0.21716476255225658
8.185,0.0011387927410965778,88.08750355955483,0,100,3.0,6,0.20965353583276897
8.19,0.0006765107634274089,87.59130736152696,0,100,3.0,6,0.19982786854508827
8.195,0.00039307957404427924,86.99603550232074,0,100,3.0,6,0.18804030697664825
8.2,0.00022338910511776318,86.32222756000658,0,100,3.0,6,0.17469757544567488
8.205,0.00012417073320013317,85.5919876730514,0,100,3.0,6,0.16023737966438428
8.21,6.750753468904987e-05,84.82779312309145,0,100,3.0,6,0.14510481431864264
8.215,3.5897234866245036e-05,84.05137136185039,0,100,3.0,6,0.12973012597723535
8.22,1.8670050400879738e-05,83.28272136314028,0,100,3.0,6,0.11450933392356996
8.225,9.497421874143672e-06,82.53933634560707,0,100,3.0,6,0.09978883852687265
8.23,4.725434140340885e-06,81.83566237670279,0,100,3.0,6,0.08585470052876804
8.235,2.299606063738814e-06,81.182803916743,0,100,3.0,6,0.07292681023253461
8.24,1.0945633976635486e-06,80.5884655936849,0,100,3.0,6,0.06115773452841389
8.245,5.095703414287532e-07,80.05710151400747,0,100,3.0,6,0.050635673544702386
8.25,2.3202944964797243e-07,79.59023060237372,0,100,3.0,6,0.04139070499749946
8.255,1.0333746954038608e-07,79.18686941841649,0,100,3.0,6,0.03340335482012856
8.26,4.501406988770349e-08,78.8440324631707,0,100,3.0,6,0.026614504221202092
8.265,0.0,78.55725338170798,0,100,3.0,6,0.020935710528870895
8.27,0.0,78.32108749492411,0,100,3.0,6,0.016259158315329
8.275,0.0,78.12956535899671,0,100,3.0,6,0.012466640772212169
8.28,0.0,77.97657717630197,0,100,3.0,6,0.009437171807959858
8.285,0.0,77.8561776684136,0,100,3.0,6,0.007053023136902843
8.29,0.0,77.76280956302601,0,100,3.0,6,0.005204149762891298
8.295,0.0,77.691450573779,0,100,3.0,6,0.0037911004708711636
8.3,0.0,77.63769342762592,0,100,3.0,6,0.0027266025272459243
8.305,0.0,77.59777116282646,0,100,3.0,6,0.00193606263022696
8.31,0.0,77.56854083334795,0,100,3.0,6,0.0013572442247119388
8.315,0.0,77.54743828840738,0,100,3.0,6,0.0009393720476708441
8.32,0.0,77.53241527216751,0,100,3.0,6,0.0006418865775744939
8.325,0.0,77.52186811576739,0,100,3.0,6,0.0004330319953938593
8.33,0.0,77.5145651206646,0,100,3.0,6,0.0002884182309821656
8.335,0.0,77.50957762524908,0,100,3.0,6,0.00018965594552632369
8.34,0.0,77.50621788411807,0,100,3.0,6,0.00012312641817965243
8.345,0.0,77.50398536808234,0,100,3.0,6,7.891817984831379e-05
8.35,0.0,77.50252194309775,0,100,3.0,6,4.993946728212328e-05
8.355,0.0,77.50157558979458,0,100,3.0,6,3.1199797912548924e-05
8.36,0.0,77.50097183394746,0,100,3.0,6,1.9244236583371374e-05
8.365,0.0,77.50059180959549,0,100,3.0,6,1.1719001890912862e-05
8.37,0.0,77.50035580575643,0,100,3.0,6,7.045658543122477e-06
8.375,0.0,77.50021119564977,0,100,3.0,6,4.182092074625142e-06
8.38,0.0,77.50012376504303,0,100,3.0,6,2.4507929312545853e-06
8.385,0.0,77.5000716064357,0,100,3.0,6,1.4179492217124898e-06
8.39,0.0,77.5000409022451,0,100,3.0,6,8.099454475996026e-07
8.395,0.0,77.50002306658317,0,100,3.0,6,4.5676402312820564e-07
8.4,0.0,77.50001284282068,0,100,3.0,6,2.5431328080599943e-07
8.405,0.0,77.50000705957572,0,100,3.0,6,1.3979357865789305e-07
8.41,0.0,77.50000383122638,0,100,3.0,6,7.586586890499915e-08
8.415,0.001684486749771458,77.50000205275943,0,100,3.0,6,4.064870153126664e-08
8.42,0.00456624331333666,77.50000108587373,0,100,3.0,6,2.1502450179036488e-08
8.425,0.011079731271581421,77.50000056710259,0,100,3.0,6,1.1229754235419834e-08
8.43,0.024064571490409,77.50000029240512,0,100,3.0,6,5.790200371974255e-09
8.435,0.046784906529573234,77.50000014885018,0,100,3.0,7,2.947528250077463e-09
8.44,0.08141644351188804,77.50000007480915,0,100,3.0,7,1.4813693242374057e-09
8.445,0.12682276464025305,77.50000003711942,0,100,3.0,7,7.350380282431535e-10
8.45,0.1768320708657512,77.50000001818397,0,100,3.0,7,3.600785764166797e-10
8.455,0.22070063230473494,77.50000000879461,0,100,3.0,7,1.7415078839956838e-10
8.46,0.24656126505113576,77.50000000419939,0,100,3.0,7,8.315629373208878e-11
8.465,0.24656126505724016,77.50000000197969,0,100,3.0,7,3.920169799337348e-11
8.47,0.220700632329898,77.5000000009214,0,100,3.0,7,1.8245611842064705e-11
8.475,0.17683207093748562,77.50000000042338,0,100,3.0,7,8.383841475841848e-12
8.48,0.12682276483597799,77.50000000019207,0,100,3.0,7,3.803443808528125e-12
8.485,0.08141644409447898,77.50000000008603,0,100,3.0,7,1.7036141474422362e-12
8.49,0.04678490952598309,77.50000000003804,0,100,3.0,7,7.533160014375399e-13
8.495,0.024064605020532023,77.50000000001661,0,100,3.0,7,3.2896018142715135e-13
8.5,0.011080171739334697,77.50000000000716,0,100,3.0,7,1.4182714408835267e-13
8.505,0.004571212771509492,77.50000000000304,0,100,3.0,7,6.022025562481641e-14
8.51,0.0017299316936037438,77.50000000000128,0,100,3.0,7,2.5326275730062977e-14
8.515,0.0008899431850697582,77.50000000000053,0,100,3.0,7,1.0411913355692557e-14
8.52,0.002128806368910263,77.50000000000021,0,100,3.0,7,4.221045955010496e-15
8.525,0.009309664818487698,77.50000000000009,0,100,3.0,7,1.6884183820041984e-15
8.53,0.03503263543368747,77.50000000000003,0,100,3.0,7,5.628061273347328e-16
8.535,0.10606267793605692,77.50000000000001,0,100,3.0,7,2.814030636673664e-16
8.54,0.25734927343160535,77.5,0,100,3.0,7,0.0
8.545,0.5003202479539708,77.5,0,100,3.0,7,0.0
8.55,0.7793067891790435,77.5,0,100,3.0,7,0.0
