Time,ECG,Pressure,R_Peaks,mean_hr,hrv_scale,Phase_Bin,Normalized_Pressure
0.0,0.001684486749771458,77.5,0,100,1.0,0,0.0
0.005,0.00456624331333666,77.5,0,100,1.0,0,0.0
0.01,0.011079731271581421,77.5,0,100,1.0,0,0.0
0.015,0.024064571490409,77.5,0,100,1.0,0,0.0
0.02,0.046784906529573234,77.5,0,100,1.0,0,0.0
0.025,0.08141644351188804,77.5,0,100,1.0,0,0.0
0.03,0.12682276464025305,77.5,0,100,1.0,0,0.0
0.035,0.1768320708657512,77.5,0,100,1.0,0,0.0
0.04,0.22070063230473494,77.5,0,100,1.0,0,0.0
0.045,0.24656126505113576,77.5,0,100,1.0,0,0.0
0.05,0.24656126505724016,77.5,0,100,1.0,0,0.0
0.055,0.220700632329898,77.5,0,100,1.0,0,0.0
0.06,0.17683207093748562,77.5,0,100,1.0,0,0.0
0.065,0.12682276483597799,77.5,0,100,1.0,0,0.0
0.07,0.08141644409447898,77.5,0,100,1.0,0,0.0
0.075,0.04678490952598309,77.5,0,100,1.0,0,0.0
0.08,0.024064605020532023,77.5,0,100,1.0,0,0.0
0.085,0.011080171739334697,77.5,0,100,1.0,0,0.0
0.09,0.004571212771509492,77.5,0,100,1.0,0,0.0
0.095,0.0017299316936037438,77.5,0,100,1.0,0,0.0
0.1,0.0008899431850697582,77.5,0,100,1.0,0,0.0
0.105,0.002128806368910263,77.5,0,100,1.0,0,0.0
0.11,0.009309664818487698,77.5,0,100,1.0,0,0.0
0.115,0.03503263543368747,77.5,0,100,1.0,0,0.0
0.12,0.10606267793605692,77.5,0,100,1.0,0,0.0
0.125,0.25734927343160535,77.5,0,100,1.0,0,0.0
0.13,0.5003202479539708,77.5,0,100,1.0,0,0.0
0.135,0.7793067891790435,77.5,0,100,1.0,0,0.0
0.14,0.9720477407234077,77.5,0,100,1.0,0,0.0
0.145,0.967267334488097,77.5,0,100,1.0,0,0.0
0.15,0.7505869905515209,77.5,0,100,1.0,0,0.0
0.155,0.4028369574773956,77.5,0,100,1.0,0,0.0
0.16,0.04553881263121314,77.5,0,100,1.0,0,0.0
0.165,-0.189138810908105,77.5,0,100,1.0,0,0.0
0.17,-0.22868072635956738,77.5,0,100,1.0,0,0.0
0.175,-0.14104670682394166,77.5,0,100,1.0,0,0.0
0.18,-0.051158381651102834,77.5,0,100,1.0,0,0.0
0.185,-0.008206426846427752,77.5,0,100,1.0,0,0.0
0.19,0.005350271385530505,77.5,0,100,1.0,0,0.0
0.195,0.01084668799215426,77.5,0,100,1.0,0,0.0
0.2,0.016256859896386415,77.5,0,100,1.0,0,0.0
0.205,0.02345021205790711,77.5,0,100,1.0,0,0.0
0.21,0.0330621597308209,77.5,0,100,1.0,0,0.0
0.215,0.04559141319943196,77.5,0,100,1.0,0,0.0
0.22,0.06149084917446989,77.5,0,100,1.0,0,0.0
0.225,0.08111733445924295,77.5,0,100,1.0,0,0.0
0.23,0.1046628598272375,77.5,0,100,1.0,0,0.0
0.235,0.1320831047748631,77.5,0,100,1.0,0,0.0
0.24,0.16303381314489318,77.5,0,100,1.0,0,0.0
0.245,0.19682662652900276,77.5,0,100,1.0,0,0.0
0.25,0.23241585813229,77.5,0,100,1.0,0,0.0
0.255,0.26842527782774417,77.5,0,100,1.0,0,0.0
0.26,0.30321927900592993,77.5,0,100,1.0,0,0.0
0.265,0.3350163137995362,77.5,0,100,1.0,0,0.0
0.27,0.3620352400956416,77.5,0,100,1.0,0,0.0
0.275,0.3826586036805073,77.5,0,100,1.0,0,0.0
0.28,0.39559233134833227,77.5,0,100,1.0,0,0.0
0.285,0.4,77.5,0,100,1.0,0,0.0
0.29,0.39559233134833227,77.5,0,100,1.0,0,0.0
0.295,0.3826586036805073,77.5,0,100,1.0,0,0.0
0.3,0.3620352400956416,77.5,0,100,1.0,0,0.0
0.305,0.3350163137995362,77.5,0,100,1.0,0,0.0
0.31,0.3032192790059296,77.5,0,100,1.0,0,0.0
0.315,0.26842527782774417,77.5,0,100,1.0,0,0.0
0.32,0.23241585813229,77.5,0,100,1.0,0,0.0
0.325,0.19682662652900276,77.5,0,100,1.0,0,0.0
0.33,0.16303381314489318,77.5,0,100,1.0,0,0.0
0.335,0.13208310477486307,77.5,0,100,1.0,0,0.0
0.34,0.10466285982723562,77.5,0,100,1.0,0,0.0
0.345,0.08111733445917907,77.5,0,100,1.0,0,0.0
0.35,0.06149084917398798,77.5,0,100,1.0,0,0.0
0.355,0.04559141333598128,77.5,0,100,1.0,0,0.0
0.36,0.03306217087257399,77.5,0,100,1.0,0,0.0
0.365,0.02345067901074276,77.5,0,100,1.0,0,0.0
0.37,0.016268788896435526,77.5,0,100,1.0,0,0.0
0.375,0.011039026374860051,77.5,0,100,1.0,0,0.0
0.38,0.007326255555493689,77.5,0,100,1.0,0,0.0
0.385,0.0047556414315231815,77.5,0,100,1.0,0,0.0
0.39,0.0030193390635632803,77.5,0,100,1.0,0,0.0
0.395,0.001874953127946523,77.5,0,100,1.0,0,0.0
0.4,0.0011387927410965778,77.5,0,100,1.0,0,0.0
0.405,0.0006765107634274089,77.5,0,100,1.0,0,0.0
0.41,0.00039307957404427924,77.5,0,100,1.0,0,0.0
0.415,0.00022338910511776318,77.5,0,100,1.0,0,0.0
0.42,0.00012417073320013317,77.5,0,100,1.0,0,0.0
0.425,6.750753468904987e-05,77.5,0,100,1.0,0,0.0
0.43,3.5897234866245036e-05,77.5,0,100,1.0,0,0.0
0.435,1.8670050400879738e-05,77.5,0,100,1.0,0,0.0
0.44,9.497421874143672e-06,77.5,0,100,1.0,0,0.0
0.445,4.725434140340885e-06,77.5,0,100,1.0,0,0.0
0.45,2.299606063738814e-06,77.5,0,100,1.0,0,0.0
0.455,1.0945633976635486e-06,77.5,0,100,1.0,0,0.0
0.46,5.095703414287532e-07,77.5,0,100,1.0,0,0.0
0.465,2.3202944964797243e-07,77.5,0,100,1.0,0,0.0
0.47,1.0333746954038608e-07,77.5,0,100,1.0,0,0.0
0.475,4.501406988770349e-08,77.5,0,100,1.0,0,0.0
0.48,0.0,77.5,0,100,1.0,0,0.0
0.485,0.0,77.5,0,100,1.0,0,0.0
0.49,0.0,77.5,0,100,1.0,0,0.0
0.495,0.0,77.5,0,100,1.0,0,0.0
0.5,0.0,77.5,0,100,1.0,0,0.0
0.505,0.0,77.5,0,100,1.0,0,0.0
0.51,0.0,77.5,0,100,1.0,0,0.0
0.515,0.0,77.5,0,100,1.0,0,0.0
0.52,0.0,77.5,0,100,1.0,0,0.0
0.525,0.0,77.5,0,100,1.0,0,0.0
0.53,0.0,77.5,0,100,1.0,0,0.0
0.535,0.0,77.5,0,100,1.0,0,0.0
0.54,0.0,77.5,0,100,1.0,0,0.0
0.545,0.0,77.5,0,100,1.0,0,0.0
0.55,0.0,77.5,0,100,1.0,0,0.0
0.555,0.0,77.5,0,100,1.0,0,0.0
0.56,0.0,77.5,0,100,1.0,0,0.0
0.565,0.0,77.5,0,100,1.0,0,0.0
0.57,0.0,77.5,0,100,1.0,0,0.0
0.575,0.0,77.5,0,100,1.0,0,0.0
0.58,0.0,77.5,0,100,1.0,0,0.0
0.585,0.001684486749771458,77.5,0,100,1.0,0,0.0
0.59,0.00456624331333666,77.5,0,100,1.0,0,0.0
0.595,0.011079731271581421,77.5,0,100,1.0,0,0.0
0.6,0.024064571490409,77.5,0,100,1.0,0,0.0
0.605,0.046784906529573234,77.5,0,100,1.0,0,0.0
0.61,0.08141644351188804,77.5,0,100,1.0,0,0.0
0.615,0.12682276464025305,77.5,0,100,1.0,0,0.0
0.62,0.1768320708657512,77.5,0,100,1.0,0,0.0
0.625,0.22070063230473494,77.5,0,100,1.0,0,0.0
0.63,0.24656126505113576,77.5,0,100,1.0,0,0.0
0.635,0.24656126505724016,77.5,0,100,1.0,0,0.0
0.64,0.220700632329898,77.5,0,100,1.0,0,0.0
0.645,0.17683207093748562,77.5,0,100,1.0,0,0.0
0.65,0.12682276483597799,77.5,0,100,1.0,0,0.0
0.655,0.08141644409447898,77.5,0,100,1.0,0,0.0
0.66,0.04678490952598309,77.5,0,100,1.0,0,0.0
0.665,0.024064605020532023,77.5,0,100,1.0,0,0.0
0.67,0.011080171739334697,77.5,0,100,1.0,0,0.0
0.675,0.004571212771509492,77.5,0,100,1.0,0,0.0
0.68,0.0017299316936037438,77.5,0,100,1.0,0,0.0
0.685,0.0008899431850697582,77.5,0,100,1.0,0,0.0
0.69,0.002128806368910263,77.5,0,100,1.0,0,0.0
0.695,0.009309664818487698,77.5,0,100,1.0,0,0.0
0.7,0.03503263543368747,77.5,0,100,1.0,0,0.0
0.705,0.10606267793605692,77.5,0,100,1.0,0,0.0
0.71,0.25734927343160535,77.5,0,100,1.0,0,0.0
0.715,0.5003202479539708,77.5,0,100,1.0,0,0.0
0.72,0.7793067891790435,77.5,0,100,1.0,0,0.0
0.725,0.9720477407234077,77.50000295860458,1,100,1.0,0,5.8586229359585414e-08
0.73,0.967267334488097,77.50000607194025,0,100,1.0,0,1.2023644056189188e-07
0.735,0.7505869905515209,77.50001345273148,0,100,1.0,0,2.663907223742883e-07
0.74,0.4028369574773956,77.5000335974731,0,100,1.0,0,6.65296497145121e-07
0.745,0.04553881263121314,77.5000952391376,0,100,1.0,0,1.8859235166978084e-06
0.75,-0.189138810908105,77.50029396174413,0,100,1.0,0,5.821024636320949e-06
0.755,-0.22868072635956738,77.50093256649718,0,100,1.0,0,1.8466663310573943e-05
0.76,-0.14104670682394166,77.5029100232732,0,100,1.0,0,5.762422323172278e-05
0.765,-0.051158381651102834,77.50870714352278,0,100,1.0,0,0.00017241868361948757
0.77,-0.008206426846427752,77.5246562773498,0,100,1.0,0,0.00048824311583773423
0.775,0.005350271385530505,77.56565066778992,0,100,1.0,0,0.0013000132235628605
0.78,0.01084668799215426,77.66383990810884,0,100,1.0,0,0.0032443546160166505
0.785,0.016256859896386415,77.88262038992832,0,100,1.0,0,0.007576641384719209
0.79,0.02345021205790711,78.33545183145863,0,100,1.0,0,0.016543600622943112
0.795,0.0330621597308209,79.20484989603223,0,100,1.0,0,0.03375940388182632
0.8,0.04559141319943196,80.75054676642503,0,100,1.0,0,0.06436726270148578
0.805,0.06149084917446989,83.28992906835192,0,100,1.0,0,0.11465206075944404
0.81,0.08111733445924295,87.13394030962314,0,100,1.0,0,0.19077109524006222
0.815,0.1046628598272375,92.47378991953458,0,100,1.0,0,0.2965106914759323
0.82,0.1320831047748631,99.23955414039685,0,100,1.0,0,0.43048622060191777
0.825,0.16303381314489318,106.98246625036123,0,100,1.0,0,0.5838112128784402
0.83,0.19682662652900276,114.8494723141842,0,100,1.0,0,0.7395935111719643
0.835,0.23241585813229,121.70177762100317,0,100,1.0,0,0.8752827251683797
0.84,0.26842527782774417,126.37413972136399,0,100,1.0,0,0.9678047469577027
0.845,0.30321927900592993,128.0,0,100,1.0,0,1.0
0.85,0.3350163137995362,126.27952255457706,0,100,1.0,0,0.9659311396945952
0.855,0.3620352400956416,121.57753056726469,0,100,1.0,0,0.8728223874705879
0.86,0.3826586036805073,114.80819134861454,0,100,1.0,0,0.7387760663091989
0.865,0.39559233134833227,107.1570555269131,0,100,1.0,0,0.5872684262755069
0.87,0.4,99.75682326894582,0,100,1.0,0,0.44072917364249153
0.875,0.39559233134833227,93.437628290086,0,100,1.0,0,0.3155965998036831
0.88,0.3826586036805073,88.6210265304858,0,100,1.0,0,0.2202183471383328
0.885,0.3620352400956416,85.35521064557099,0,100,1.0,0,0.15554872565487113
0.89,0.3350163137995362,83.43676931776182,0,100,1.0,0,0.11755978847053099
0.895,0.3032192790059296,82.55078966163666,0,100,1.0,0,0.1000156368640922
0.9,0.26842527782774417,82.37990978446584,0,100,1.0,0,0.0966318769201156
0.905,0.23241585813229,82.66385053700031,0,100,1.0,0,0.10225446607921415
0.91,0.19682662652900276,83.21572546574443,0,100,1.0,0,0.11318268248998865
0.915,0.16303381314489318,83.91239791841033,0,100,1.0,0,0.12697817660218486
0.92,0.13208310477486307,84.67546318988141,0,100,1.0,0,0.14208837999765173
0.925,0.10466285982723562,85.45331282711224,0,100,1.0,0,0.1574913431111335
0.93,0.08111733445917907,86.20847512306442,0,100,1.0,0,0.17244505194186965
0.935,0.06149084917398798,86.91043201717129,0,100,1.0,0,0.1863451884588374
0.94,0.04559141333598128,87.53247338289246,0,100,1.0,0,0.19866283926519726
0.945,0.03306217087257399,88.0509704560115,0,100,1.0,0,0.20893010803983164
0.95,0.02345067901074276,88.44584531855038,0,100,1.0,0,0.21674941224852243
0.955,0.016268788896435526,88.70146811501344,0,100,1.0,0,0.22181124980224634
0.96,0.011039026374860051,88.80754517288817,0,100,1.0,0,0.2239117856017459
0.965,0.007326255555493689,88.75976200907462,0,100,1.0,0,0.22296558433811128
0.97,0.0047556414315231815,88.56006114259078,0,100,1.0,0,0.21901111173447094
0.975,0.0030193390635632803,88.21650740561338,0,100,1.0,0,0.2122080674378888
0.98,0.001874953127946523,87.74274663539316,0,100,1.0,0,0.20282666604738933
0.985,0.0011387927410965778,87.15710631316468,0,100,1.0,0,0.19122982798345892
0.99,0.0006765107634274089,86.48142019658886,0,100,1.0,0,0.17784990488294766
0.995,0.00039307957404427924,85.73968176817759,0,100,1.0,0,0.16316201521143742
1.0,0.00022338910511776318,84.95664182706211,0,100,1.0,0,0.14765627380321017
1.005,0.00012417073320013317,84.15646337911748,0,100,1.0,0,0.13181115602212837
1.01,6.750753468904987e-05,83.36153323734182,0,100,1.0,0,0.11606996509587757
1.015,3.5897234866245036e-05,82.59150690834363,0,100,1.0,0,0.10082191897710163
1.02,1.8670050400879738e-05,81.86263483969579,0,100,1.0,0,0.08638880870684726
1.025,9.497421874143672e-06,81.18738775969096,0,100,1.0,0,0.07301757939982106
1.03,4.725434140340885e-06,80.57437030471705,0,100,1.0,0,0.06087861989538713
1.035,2.299606063738814e-06,80.02848839135753,0,100,1.0,0,0.0500690770565847
1.04,1.0945633976635486e-06,79.55131885537037,0,100,1.0,0,0.040620175353868686
1.045,5.095703414287532e-07,79.14162062723075,0,100,1.0,0,0.03250733915308417
1.05,2.3202944964797243e-07,78.79592494440962,0,100,1.0,0,0.025661880087319212
1.055,1.0333746954038608e-07,78.50914673365939,0,100,1.0,0,0.019983103636819648
1.06,4.501406988770349e-08,78.2751686651716,0,100,1.0,0,0.015349874557853577
1.065,0.0,78.08736155817212,0,100,1.0,0,0.01163092194400237
1.07,0.0,77.93901792246764,0,100,1.0,0,0.008693424207280032
1.075,0.0,77.82368785280029,0,100,1.0,0,0.0064096604514908995
1.08,0.0,77.73541708275205,0,100,1.0,0,0.004661724410931694
1.085,0.0,77.66889506741865,0,100,1.0,0,0.0033444567805672436
1.09,0.0,77.61952627338034,0,100,1.0,0,0.0023668568986206853
1.095,0.0,77.583440560487,0,100,1.0,0,0.0016522883264753596
1.1,0.0,77.55745905335685,0,100,1.0,0,0.0011378030367693284
1.105,0.0,77.53903077198105,0,100,1.0,0,0.0007728865738821098
1.11,0.0,77.52615310372167,0,100,1.0,0,0.0005178832420132368
1.115,0.0,77.51728648731061,0,100,1.0,0,0.00034230667941809016
1.12,0.0,77.51127087641395,0,100,1.0,0,0.00022318567156327782
1.125,0.0,77.50724896569103,0,100,1.0,0,0.0001435438750699704
1.13,0.0,77.50459898318086,0,100,1.0,0,9.10689738783267e-05
1.135,0.0,77.50287816056776,0,100,1.0,0,5.699327856952082e-05
1.14,0.0,77.50177678810005,0,100,1.0,0,3.518392277317274e-05
1.145,0.0,77.50108199106754,0,100,1.0,0,2.1425565693793897e-05
1.15,0.0,77.5006499487824,0,100,1.0,0,1.2870272918730328e-05
1.155,0.0,77.50038512526845,0,100,1.0,0,7.626242939628661e-06
1.16,0.0,77.50022510871771,0,100,1.0,0,4.457598370580323e-06
1.165,0.0,77.5001297926306,0,100,1.0,0,2.5701511010358426e-06
1.17,0.0,77.50007382019291,0,100,1.0,0,1.4617859982094934e-06
1.175,0.0,77.50004141596045,0,100,1.0,0,8.201180287752583e-07
1.18,0.0,77.50002292069169,0,100,1.0,0,4.5387508299598373e-07
1.185,0.0,77.50001251281783,0,100,1.0,0,2.477785709414651e-07
1.19,0.0,77.50000673829383,0,100,1.0,0,1.334315610696793e-07
1.195,0.001684486749771458,77.50000357941612,0,100,1.0,0,7.087952705732466e-08
1.2,0.00456624331333666,77.50000187560704,0,100,1.0,0,3.714073347221682e-08
1.205,0.011079731271581421,77.50000096948018,0,100,1.0,1,1.919762739096696e-08
1.21,0.024064571490409,77.5000004943146,0,100,1.0,1,9.788408024718646e-09
1.215,0.046784906529573234,77.5000002486196,0,100,1.0,1,4.923160387610695e-09
1.22,0.08141644351188804,77.50000012334874,0,100,1.0,1,2.442549326714119e-09
1.225,0.12682276464025305,77.50000006036726,0,100,1.0,1,1.1953912095609352e-09
1.23,0.1768320708657512,77.5000000291431,0,100,1.0,1,5.770909910556793e-10
1.235,0.22070063230473494,77.50000001387833,0,100,1.0,1,2.748185133806137e-10
1.24,0.24656126505113576,77.50000000651939,0,100,1.0,1,1.290967508911047e-10
1.245,0.24656126505724016,77.50000000302094,0,100,1.0,1,5.982066327440875e-11
1.25,0.220700632329898,77.50000000138085,0,100,1.0,1,2.7343654293494327e-11
1.255,0.17683207093748562,77.5000000006226,0,100,1.0,1,1.2328831025394658e-11
1.26,0.12682276483597799,77.50000000027693,0,100,1.0,1,5.4837015016859696e-12
1.265,0.08141644409447898,77.50000000012149,0,100,1.0,1,2.4057147912923155e-12
1.27,0.04678490952598309,77.50000000005258,0,100,1.0,1,1.0411913355692557e-12
1.275,0.024064605020532023,77.50000000002245,0,100,1.0,1,4.446168405944389e-13
1.28,0.011080171739334697,77.50000000000945,0,100,1.0,1,1.8713303733879865e-13
1.285,0.004571212771509492,77.50000000000392,0,100,1.0,1,7.766724557219314e-14
1.29,0.0017299316936037438,77.5000000000016,0,100,1.0,1,3.179854619441241e-14
1.295,0.0008899431850697582,77.50000000000065,0,100,1.0,1,1.2944540928698855e-14
1.3,0.002128806368910263,77.50000000000026,0,100,1.0,1,5.065255146012595e-15
1.305,0.009309664818487698,77.5000000000001,0,100,1.0,1,1.969821445671565e-15
1.31,0.03503263543368747,77.50000000000004,0,100,1.0,1,8.442091910020992e-16
1.315,0.10606267793605692,77.50000000000001,0,100,1.0,1,2.814030636673664e-16
1.32,0.25734927343160535,77.5,0,100,1.0,1,0.0
1.325,0.5003202479539708,77.5,0,100,1.0,1,0.0
1.33,0.7793067891790435,77.5,0,100,1.0,1,0.0
1.335,0.9720477407234077,77.50000297456887,1,100,1.0,1,5.890235390306951e-08
1.34,0.967267334488097,77.5000062222234,0,100,1.0,1,1.2321234465270038e-07
1.345,0.7505869905515209,77.50001412492644,0,100,1.0,1,2.797015136113962e-07
1.35,0.4028369574773956,77.50003641983405,0,100,1.0,1,7.211848326008267e-07
1.355,0.04553881263121314,77.50010706994215,0,100,1.0,1,2.1201968741812684e-06
1.36,-0.189138810908105,77.50034212581059,0,100,1.0,1,6.774768526539258e-06
1.365,-0.22868072635956738,77.5011174452075,0,100,1.0,1,2.212762787125219e-05
1.37,-0.14104670682394166,77.50356855475515,0,100,1.0,1,7.066445059699122e-05
1.375,-0.051158381651102834,77.51086963859841,0,100,1.0,1,0.00021524036828529712
1.38,-0.008206426846427752,77.53118939740251,0,100,1.0,1,0.0006176118297527509
1.385,0.005350271385530505,77.5838025515997,0,100,1.0,1,0.001659456467320855
1.39,0.01084668799215426,77.71022945889035,0,100,1.0,1,0.004162959581987194
1.395,0.016256859896386415,77.99167912939262,0,100,1.0,1,0.009736220384012324
1.4,0.02345021205790711,78.5712635147241,0,100,1.0,1,0.021213138905427614
1.405,0.0330621597308209,79.67352667251653,0,100,1.0,1,0.043040132129040204
1.41,0.04559141319943196,81.60576661164305,0,100,1.0,1,0.0813023091414465
1.415,0.06149084917446989,84.71992636449431,0,100,1.0,1,0.1429688389008775
1.42,0.08111733445924295,89.3182428616724,0,100,1.0,1,0.23402461112222578
1.425,0.1046628598272375,95.50702080839233,0,100,1.0,1,0.3565746694731154
1.43,0.1320831047748631,103.03863252038366,0,100,1.0,1,0.5057154954531418
1.435,0.16303381314489318,111.21541053963608,0,100,1.0,1,0.6676318918739819
1.44,0.19682662652900276,118.93384620768896,0,100,1.0,1,0.8204722021324546
1.445,0.23241585813229,124.90436853284245,0,100,1.0,1,0.9387003669869793
1.45,0.26842527782774417,128.0,0,100,1.0,1,1.0
1.455,0.30321927900592993,127.60820170828875,0,100,1.0,1,0.9922416179859158
1.46,0.3350163137995362,123.83638395652297,0,100,1.0,1,0.9175521575549102
1.465,0.3620352400956416,117.47746650268306,0,100,1.0,1,0.7916330000531299
1.47,0.3826586036805073,109.75136675254107,0,100,1.0,1,0.6386409257928926
1.475,0.39559233134833227,101.93854206075709,0,100,1.0,1,0.48393152595558586
1.48,0.4,95.05631336589965,0,100,1.0,1,0.34764976962177535
1.485,0.39559233134833227,89.68561676959516,0,100,1.0,1,0.24129934197218134
1.49,0.3826586036805073,85.97066202095813,0,100,1.0,1,0.1677358816031313
1.495,0.3620352400956416,83.73963639863871,0,100,1.0,1,0.1235571564086873
1.5,0.3350163137995362,82.66506980421391,0,100,1.0,1,0.10227860998443394
1.505,0.3032192790059296,82.39769679500384,0,100,1.0,1,0.09698409495057106
1.51,0.26842527782774417,82.64426327774376,0,100,1.0,1,0.1018665995592824
1.515,0.23241585813229,83.1925217979524,0,100,1.0,1,0.1127232039198494
1.52,0.19682662652900276,83.90296821666257,0,100,1.0,1,0.12679144983490243
1.525,0.16303381314489318,84.68768921939152,0,100,1.0,1,0.1423304795919112
1.53,0.13208310477486307,85.48964936969762,0,100,1.0,1,0.15821087860787358
1.535,0.10466285982723562,86.2679527426403,0,100,1.0,1,0.1736228265869367
1.54,0.08111733445917907,86.9895179409416,0,100,1.0,1,0.18791124635527912
1.545,0.06149084917398798,87.62548740634166,0,100,1.0,1,0.20050470111567648
1.55,0.04559141333598128,88.15044219056064,0,100,1.0,1,0.21089984535763642
1.555,0.03306217087257399,88.54297359153537,0,100,1.0,1,0.21867274438683904
1.56,0.02345067901074276,88.78671463080131,0,100,1.0,1,0.22349929961982798
1.565,0.016268788896435526,88.87133001885871,0,100,1.0,1,0.2251748518585884
1.57,0.011039026374860051,88.79319881643394,0,100,1.0,1,0.2236276993353256
1.575,0.007326255555493689,88.55565877970061,0,100,1.0,1,0.2189239362316952
1.58,0.0047556414315231815,88.168766505288,0,100,1.0,1,0.21126270307501
1.585,0.0030193390635632803,87.64859039083257,0,100,1.0,1,0.20096218595708054
1.59,0.001874953127946523,87.01610373171393,0,100,1.0,1,0.18843769765770152
1.595,0.0011387927410965778,86.29578368219154,0,100,1.0,1,0.1741739343008226
1.6,0.0006765107634274089,85.51404620349248,0,100,1.0,1,0.15869398422757394
1.605,0.00039307957404427924,84.69765577968232,0,100,1.0,1,0.1425278372214321
1.61,0.00022338910511776318,83.87224160225274,0,100,1.0,1,0.12618300202480678
1.615,0.00012417073320013317,83.06103109428663,0,100,1.0,1,0.1101194276096363
1.62,6.750753468904987e-05,82.28388071988795,0,100,1.0,1,0.09473031128490983
1.625,3.5897234866245036e-05,81.5566476806962,0,100,1.0,1,0.08032965704348914
1.63,1.8670050400879738e-05,80.89090926252491,0,100,1.0,1,0.06714671806980028
1.635,9.497421874143672e-06,80.29400369189199,0,100,1.0,1,0.05532680578003935
1.64,4.725434140340885e-06,79.76934075119777,0,100,1.0,1,0.0449374406177777
1.645,2.299606063738814e-06,79.316914026084,0,100,1.0,1,0.03597849556601993
1.65,1.0945633976635486e-06,78.93393997639421,0,100,1.0,1,0.02839485101770721
1.655,5.095703414287532e-07,78.615551171725,0,100,1.0,1,0.02209012221237628
1.66,2.3202944964797243e-07,78.35548017624241,0,100,1.0,1,0.016940201509750674
1.665,1.0333746954038608e-07,78.14668432330618,0,100,1.0,1,0.012805630164478717
1.67,4.501406988770349e-08,77.98187749628777,0,100,1.0,1,0.009542128639361692
1.675,0.0,77.85395079052064,0,100,1.0,1,0.007008926544963209
1.68,0.0,77.7562778414269,0,100,1.0,1,0.005074808741126601
1.685,0.0,77.68291156154915,0,100,1.0,1,0.003622011119785098
1.69,0.0,77.62868655855223,0,100,1.0,1,0.002548248684202616
1.695,0.0,77.58924566817144,0,100,1.0,1,0.001767240953889971
1.7,0.0,77.56101028213665,0,100,1.0,1,0.0012081243987455367
1.705,0.0,77.5411131592637,0,100,1.0,1,0.0008141219656178606
1.71,0.0,77.52730993064118,0,100,1.0,1,0.0005407907057659567
1.715,0.0,77.51788225456453,0,100,1.0,1,0.0003541040507826946
1.72,0.0,77.51154212778609,0,100,1.0,1,0.00022855698586309104
1.725,0.0,77.50734364057384,0,100,1.0,1,0.00014541862522448112
1.73,0.0,77.5046057342584,0,100,1.0,1,9.120265858227597e-05
1.735,0.0,77.50284739861534,0,100,1.0,1,5.638413099691746e-05
1.74,0.0,77.5017352401662,0,100,1.0,1,3.436119140986301e-05
1.745,0.0,77.50104239625774,0,100,1.0,1,2.0641510054353e-05
1.75,0.0,77.50061725984372,0,100,1.0,1,1.2222967202410697e-05
1.755,0.0,77.50036030072403,0,100,1.0,1,7.134667802491473e-06
1.76,0.0,77.50020731187256,0,100,1.0,1,4.1051855952004966e-06
1.765,0.0,77.50011758316428,0,100,1.0,1,2.3283794907438456e-06
1.77,0.0,77.50006573974899,0,100,1.0,1,1.3017772077280752e-06
1.775,0.0,77.50003623037833,0,100,1.0,1,7.174332342113456e-07
1.78,0.0,77.50001968247125,0,100,1.0,1,3.8975190589121443e-07
1.785,0.0,77.5000105401869,0,100,1.0,1,2.0871657240361558e-07
1.79,0.001684486749771458,77.50000556389502,0,100,1.0,1,1.1017613892723638e-07
1.795,0.00456624331333666,77.50000289515268,0,100,1.0,1,5.732975595681565e-08
1.8,0.011079731271581421,77.50000148499826,0,100,1.0,1,2.9405906233667265e-08
1.805,0.024064571490409,77.50000075083126,0,100,1.0,1,1.486794578322768e-08
1.81,0.046784906529573234,77.50000037421457,0,100,1.0,1,7.410189408180333e-09
1.815,0.08141644351188804,77.50000018384885,0,100,1.0,1,3.6405713735172804e-09
1.82,0.12682276464025305,77.50000008903548,0,100,1.0,1,1.7630788358411057e-09
1.825,0.1768320708657512,77.50000004250376,0,100,1.0,1,8.416585536330182e-10
1.83,0.22070063230473494,77.50000002000107,0,100,1.0,1,3.9606074195863487e-10
1.835,0.24656126505113576,77.50000000927771,0,100,1.0,1,1.837170855489405e-10
1.84,0.24656126505724016,77.5000000042422,0,100,1.0,1,8.400387975985489e-11
1.845,0.220700632329898,77.50000000191207,0,100,1.0,1,3.786278221644415e-11
1.85,0.17683207093748562,77.50000000084952,0,100,1.0,1,1.6822275146035165e-11
1.855,0.12682276483597799,77.50000000037205,0,100,1.0,1,7.36741360987532e-12
1.86,0.08141644409447898,77.50000000016063,0,100,1.0,1,3.1806988286322427e-12
1.865,0.04678490952598309,77.50000000006835,0,100,1.0,1,1.3535487362400324e-12
1.87,0.024064605020532023,77.50000000002868,0,100,1.0,1,5.678713824807455e-13
1.875,0.011080171739334697,77.50000000001185,0,100,1.0,1,2.346901550985836e-13
1.88,0.004571212771509492,77.50000000000483,0,100,1.0,1,9.567704164690458e-14
1.885,0.0017299316936037438,77.50000000000195,0,100,1.0,1,3.85522197224292e-14
1.89,0.0008899431850697582,77.50000000000077,0,100,1.0,1,1.5195765438037787e-14
1.895,0.002128806368910263,77.5000000000003,0,100,1.0,1,5.909464337014694e-15
1.9,0.009309664818487698,77.50000000000011,0,100,1.0,1,2.2512245093389313e-15
1.905,0.03503263543368747,77.50000000000004,0,100,1.0,1,8.442091910020992e-16
1.91,0.10606267793605692,77.50000000000001,0,100,1.0,1,2.814030636673664e-16
1.915,0.25734927343160535,77.5,0,100,1.0,1,0.0
1.92,0.5003202479539708,77.5,0,100,1.0,1,0.0
1.925,0.7793067891790435,77.5,0,100,1.0,1,0.0
1.93,0.9720477407234077,77.500002961856,1,100,1.0,1,5.865061381774638e-08
1.935,0.967267334488097,77.500006041423,0,100,1.0,1,1.1963213873878877e-07
1.94,0.7505869905515209,77.50001328138595,0,100,1.0,1,2.629977415165173e-07
1.945,0.4028369574773956,77.50003283321637,0,100,1.0,1,6.501627003199426e-07
1.95,0.04553881263121314,77.50009198824264,0,100,1.0,1,1.8215493592959877e-06
1.955,-0.189138810908105,77.50028074560149,0,100,1.0,1,5.559318841314602e-06
1.96,-0.22868072635956738,77.50088215537116,0,100,1.0,1,1.7468423191256096e-05
1.965,-0.14104670682394166,77.5027317136506,0,100,1.0,1,5.409333961592487e-05
1.97,-0.051158381651102834,77.50812515206187,0,100,1.0,1,0.00016089410023495125
1.975,-0.008206426846427752,77.52290585167412,0,100,1.0,1,0.0004535812212697967
1.98,0.005350271385530505,77.5607994860294,0,100,1.0,1,0.0012039502184038745
1.985,0.01084668799215426,77.65144697964095,0,100,1.0,1,0.0029989500919000286
1.99,0.016256859896386415,77.85343089561607,0,100,1.0,1,0.00699863159635785
1.995,0.02345021205790711,78.27206809920676,0,100,1.0,1,0.015288477212015105
2.0,0.0330621597308209,79.07802187804528,0,100,1.0,1,0.031247957981094594
2.005,0.04559141319943196,80.51693895137673,0,100,1.0,1,0.05974136537379663
2.01,0.06149084917446989,82.89454088046219,0,100,1.0,1,0.10682259169232054
2.015,0.08111733445924295,86.52074732919208,0,100,1.0,1,0.17862865998400151
2.02,0.1046628598272375,91.60628022891433,0,100,1.0,1,0.2793322817606798
2.025,0.1320831047748631,98.12800786254579,0,100,1.0,1,0.40847540321872844
2.03,0.16303381314489318,105.70840989696592,0,100,1.0,1,0.5585823741973449
2.035,0.19682662652900276,113.57344353324595,0,100,1.0,1,0.7143256145197218
2.04,0.23241585813229,120.64276888442222,0,100,1.0,1,0.8543122551370738
2.045,0.26842527782774417,125.75956336367835,0,100,1.0,1,0.9556349180926407
2.05,0.30321927900592993,128.0,0,100,1.0,1,1.0
2.055,0.3350163137995362,126.95061745029365,0,100,1.0,1,0.9792201475305673
2.06,0.3620352400956416,122.84001560912182,0,100,1.0,1,0.897822091269739
2.065,0.3826586036805073,116.46801010317881,0,100,1.0,1,0.7716437644193824
2.07,0.39559233134833227,108.96296573740314,0,100,1.0,1,0.6230290245030324
2.075,0.4,101.46881286087532,0,100,1.0,1,0.4746299576410954
2.08,0.39559233134833227,94.88053871179497,0,100,1.0,1,0.34416908340188057
2.085,0.3826586036805073,89.70779311233117,0,100,1.0,1,0.24173847747190444
2.09,0.3620352400956416,86.07956026661839,0,100,1.0,1,0.1698922825072948
2.095,0.3350163137995362,83.84687409322002,0,100,1.0,1,0.1256806751132678
2.1,0.3032192790059296,82.7187027867249,0,100,1.0,1,0.10334064924207731
2.105,0.26842527782774417,82.37771688222631,0,100,1.0,1,0.09658845311339226
2.11,0.23241585813229,82.55072048744152,0,100,1.0,1,0.10001426707804997
2.115,0.19682662652900276,83.03453037589074,0,100,1.0,1,0.1095946609087275
2.12,0.16303381314489318,83.69208055632127,0,100,1.0,1,0.12261545656081728
2.125,0.13208310477486307,84.43544696634281,0,100,1.0,1,0.1373355834919368
2.13,0.10466285982723562,85.20760297898806,0,100,1.0,1,0.15262580156412006
2.135,0.08111733445917907,85.96850260217812,0,100,1.0,1,0.1676931208352103
2.14,0.06149084917398798,86.6865931944108,0,100,1.0,1,0.18191273652298623
2.145,0.04559141333598128,87.33469336179016,0,100,1.0,1,0.19474640320376552
2.15,0.03306217087257399,87.88866412777621,0,100,1.0,1,0.20571612134210315
2.155,0.02345067901074276,88.32756689971691,0,100,1.0,1,0.21440726534092897
2.16,0.016268788896435526,88.63444229094094,0,100,1.0,1,0.22048400576120672
2.165,0.011039026374860051,88.7972016808272,0,100,1.0,1,0.22370696397677625
2.17,0.007326255555493689,88.80935150413694,0,100,1.0,1,0.22394755453736517
2.175,0.0047556414315231815,88.67040269484706,0,100,1.0,1,0.22119609296726842
2.18,0.0030193390635632803,88.38589749796584,0,100,1.0,1,0.21556232669239292
2.185,0.001874953127946523,87.96704111602165,0,100,1.0,1,0.20726814091131976
2.19,0.0011387927410965778,87.42996910265714,0,100,1.0,1,0.19663305153776514
2.195,0.0006765107634274089,86.79471636674512,0,100,1.0,1,0.18405378944049744
2.2,0.00039307957404427924,86.08397933237504,0,100,1.0,1,0.16997978875990172
2.205,0.00022338910511776318,85.32177758289465,0,100,1.0,1,0.15488668480979514
2.21,0.00012417073320013317,84.53212429988861,0,100,1.0,1,0.13924998613640807
2.215,6.750753468904987e-05,83.7378064113005,0,100,1.0,1,0.1235209190356534
2.22,3.5897234866245036e-05,82.95935736032456,0,100,1.0,1,0.1081060863430606
2.225,1.8670050400879738e-05,82.21428063285789,0,100,1.0,1,0.09335209173976025
2.23,9.497421874143672e-06,81.51655406697313,0,100,1.0,1,0.0795357240984778
2.235,4.725434140340885e-06,80.8764170164331,0,100,1.0,1,0.06685974289966524
2.24,2.299606063738814e-06,80.30041774319758,0,100,1.0,1,0.05545381669698188
2.245,1.0945633976635486e-06,79.7916792805792,0,100,1.0,1,0.04537978773424164
2.25,5.095703414287532e-07,79.35032975682887,0,100,1.0,1,0.03664019320453208
2.255,2.3202944964797243e-07,78.97403808767992,0,100,1.0,1,0.029188873023364655
2.26,1.0333746954038608e-07,78.65859741440458,0,100,1.0,1,0.022942523057516477
2.265,4.501406988770349e-08,78.39850537991533,0,100,1.0,1,0.01779218574089772
2.27,0.0,78.1875006071592,0,100,1.0,1,0.01361387340909295
2.275,0.0,78.01902678123402,0,100,1.0,1,0.010277758044237983
2.28,0.0,77.8866079019436,0,100,1.0,1,0.007655602018685262
2.285,0.0,77.78412926151917,0,100,1.0,1,0.0056263220102805754
2.29,0.0,77.70602763440992,0,100,1.0,1,0.004079755136830114
2.295,0.0,77.64740060525696,0,100,1.0,1,0.002918823866474497
2.3,0.0,77.604048862077,0,100,1.0,1,0.0020603735064751187
2.305,0.0,77.57246689949535,0,100,1.0,1,0.0014349881088188759
2.31,0.0,77.54979735814472,0,100,1.0,1,0.000986086299895357
2.315,0.0,77.53376270259416,0,100,1.0,1,0.0006685683682011887
2.32,0.0,77.52258563891289,0,100,1.0,1,0.000447240374512603
2.325,0.0,77.51490705436474,0,100,1.0,1,0.0002951891953414091
2.33,0.0,77.50970768257822,0,100,1.0,1,0.00019223133818265054
2.335,0.0,77.50623739972342,0,100,1.0,1,0.000123512865810248
2.34,0.0,77.50395417479393,0,100,1.0,1,7.830049096895945e-05
2.345,0.0,77.50247327511215,0,100,1.0,1,4.8975744795087046e-05
2.35,0.0,77.50152634696913,0,100,1.0,1,3.0224692458002417e-05
2.355,0.0,77.50092939083888,0,100,1.0,1,1.840377898766332e-05
2.36,0.0,77.50055835162344,0,100,1.0,1,1.1056467790881876e-05
2.365,0.0,77.50033096453323,0,100,1.0,1,6.553753133339972e-06
2.37,0.0,77.50019356169078,0,100,1.0,1,3.832904767894361e-06
2.375,0.0,77.50011169188872,0,100,1.0,1,2.2117205686966075e-06
2.38,0.0,77.50006358989972,0,100,1.0,1,1.2592059351395573e-06
2.385,0.0,77.5000357206146,0,100,1.0,1,7.07338903067007e-07
2.39,0.0,77.50001979766552,0,100,1.0,1,3.920329805119349e-07
2.395,0.0,77.50001082613204,0,100,1.0,1,2.1437885228950486e-07
2.4,0.0,77.50000584113084,0,100,1.0,1,1.156659572873173e-07
2.405,0.001684486749771458,77.50000310945893,0,100,1.0,1,6.157344416513495e-08
2.41,0.00456624331333666,77.50000163319106,0,100,1.0,2,3.234041705942254e-08
2.415,0.011079731271581421,77.50000084635671,0,100,1.0,2,1.6759538865618098e-08
2.42,0.024064571490409,77.5000004327471,0,100,1.0,2,8.569249512400364e-09
2.425,0.046784906529573234,77.50000021831278,0,100,1.0,2,4.323025299671295e-09
2.43,0.08141644351188804,77.5000001086647,0,100,1.0,2,2.151776103832757e-09
2.435,0.12682276464025305,77.50000005336567,0,100,1.0,2,1.0567458899134695e-09
2.44,0.1768320708657512,77.50000002585828,0,100,1.0,2,5.120452356950949e-10
2.445,0.22070063230473494,77.50000001236238,0,100,1.0,2,2.447995601608337e-10
2.45,0.24656126505113576,77.50000000583134,0,100,1.0,2,1.154720587575218e-10
2.455,0.24656126505724016,77.50000000271393,0,100,1.0,2,5.374123148693897e-11
2.46,0.220700632329898,77.50000000124622,0,100,1.0,2,2.4677641668309697e-11
2.465,0.17683207093748562,77.50000000056461,0,100,1.0,2,1.1180425122568135e-11
2.47,0.12682276483597799,77.50000000025238,0,100,1.0,2,4.997718410732428e-12
2.475,0.08141644409447898,77.50000000011131,0,100,1.0,2,2.204230197706481e-12
2.48,0.04678490952598309,77.50000000004844,0,100,1.0,2,9.59303044042052e-13
2.485,0.024064605020532023,77.5000000000208,0,100,1.0,2,4.1197408520902444e-13
2.49,0.011080171739334697,77.50000000000881,0,100,1.0,2,1.7446989947376718e-13
2.495,0.004571212771509492,77.50000000000368,0,100,1.0,2,7.28833934898479e-14
2.5,0.0017299316936037438,77.50000000000152,0,100,1.0,2,3.011012781240821e-14
2.505,0.0008899431850697582,77.50000000000061,0,100,1.0,2,1.2100331737696755e-14
2.51,0.002128806368910263,77.50000000000024,0,100,1.0,2,4.783852082345229e-15
2.515,0.009309664818487698,77.5000000000001,0,100,1.0,2,1.969821445671565e-15
2.52,0.03503263543368747,77.50000000000004,0,100,1.0,2,8.442091910020992e-16
2.525,0.10606267793605692,77.50000000000001,0,100,1.0,2,2.814030636673664e-16
2.53,0.25734927343160535,77.5,0,100,1.0,2,0.0
2.535,0.5003202479539708,77.5,0,100,1.0,2,0.0
2.54,0.7793067891790435,77.5,0,100,1.0,2,0.0
2.545,0.9720477407234077,77.5000029632167,1,100,1.0,2,5.867755844249559e-08
2.55,0.967267334488097,77.5000057751259,0,100,1.0,2,1.1435892869854743e-07
2.555,0.7505869905515209,77.50001199175011,0,100,1.0,2,2.3746039829293835e-07
2.56,0.4028369574773956,77.50002751992237,0,100,1.0,2,5.449489578094841e-07
2.565,0.04553881263121314,77.50007070106201,0,100,1.0,2,1.4000210299936142e-06
2.57,-0.189138810908105,77.50019813608883,0,100,1.0,2,3.9234869074568835e-06
2.575,-0.22868072635956738,77.50057818202339,0,100,1.0,2,1.144914897800431e-05
2.58,-0.14104670682394166,77.50168586741358,0,100,1.0,2,3.3383513140290576e-05
2.585,-0.051158381651102834,77.5047820690373,0,100,1.0,2,9.469443638226498e-05
2.59,-0.008206426846427752,77.51300007149011,0,100,1.0,2,0.00025742715822002987
2.595,0.005350271385530505,77.53360476810788,0,100,1.0,2,0.0006654409526312507
2.6,0.01084668799215426,77.58226524038565,0,100,1.0,2,0.0016290146611020258
2.605,0.016256859896386415,77.69031446440876,0,100,1.0,2,0.0037686032556189615
2.61,0.02345021205790711,77.9156022259755,0,100,1.0,2,0.008229747049019897
2.615,0.0330621597308209,78.35618586329275,0,100,1.0,2,0.016954175510747547
2.62,0.04559141319943196,79.16338774532016,0,100,1.0,2,0.03293837119445871
2.625,0.06149084917446989,80.54697677121837,0,100,1.0,2,0.06033617368749244
2.63,0.08111733445924295,82.76193692058763,0,100,1.0,2,0.10419677070470554
2.635,0.1046628598272375,86.06632239589023,0,100,1.0,2,0.1696301464532718
2.64,0.1320831047748631,90.64618514458124,0,100,1.0,2,0.2603204979124998
2.645,0.16303381314489318,96.51755276989908,0,100,1.0,2,0.37658520336433826
2.65,0.19682662652900276,103.43337691048391,0,100,1.0,2,0.5135322160491864
2.655,0.23241585813229,110.83650493935875,0,100,1.0,2,0.6601288106803712
2.66,0.26842527782774417,117.89739331976155,0,100,1.0,2,0.7999483825695356
2.665,0.30321927900592993,123.65167505875493,0,100,1.0,2,0.9138945556189095
2.67,0.3350163137995362,127.21320863734229,0,100,1.0,2,0.984419973016679
2.675,0.3620352400956416,128.0,0,100,1.0,2,1.0
2.68,0.3826586036805073,125.89439684457138,0,100,1.0,2,0.9583048880113143
2.685,0.39559233134833227,121.27734577653152,0,100,1.0,2,0.8668781341887429
2.69,0.4,114.92344206600626,0,100,1.0,2,0.7410582587327972
2.695,0.39559233134833227,107.79691013430045,0,100,1.0,2,0.5999388145406029
2.7,0.3826586036805073,100.82266697370292,0,100,1.0,2,0.4618349895782757
2.705,0.3620352400956416,94.70661957252793,0,100,1.0,2,0.34072514005005794
2.71,0.3350163137995362,89.84941816370699,0,100,1.0,2,0.2445429339347918
2.715,0.3032192790059296,86.35636014773148,0,100,1.0,2,0.17537346827191047
2.72,0.26842527782774417,84.11343960508452,0,100,1.0,2,0.13095920010068363
2.725,0.23241585813229,82.88714208485197,0,100,1.0,2,0.10667608088815789
2.73,0.19682662652900276,82.41251134980615,0,100,1.0,2,0.09727745247140895
2.735,0.16303381314489318,82.45099200146763,0,100,1.0,2,0.09803944557361635
2.74,0.13208310477486307,82.8162323398421,0,100,1.0,2,0.10527192752162579
2.745,0.10466285982723562,83.37622289337803,0,100,1.0,2,0.11636084937382234
2.75,0.08111733445917907,84.04294535759365,0,100,1.0,2,0.12956327440779508
2.755,0.06149084917398798,84.75858818303747,0,100,1.0,2,0.14373441946608861
2.76,0.04559141333598128,85.4835482932493,0,100,1.0,2,0.1580900652128574
2.765,0.03306217087257399,86.18809782060332,0,100,1.0,2,0.17204154100204588
2.77,0.02345067901074276,86.84758514710228,0,100,1.0,2,0.18510069598222334
2.775,0.016268788896435526,87.44024089333156,0,100,1.0,2,0.19683645333329827
2.78,0.011039026374860051,87.94659384418057,0,100,1.0,2,0.2068632444392192
2.785,0.007326255555493689,88.34973107038635,0,100,1.0,2,0.2148461598096308
2.79,0.0047556414315231815,88.6359020647416,0,100,1.0,2,0.22051291217310098
2.795,0.0030193390635632803,88.79516897178708,0,100,1.0,2,0.2236667123126154
2.8,0.001874953127946523,88.8219336995392,0,100,1.0,2,0.22419670692156835
2.805,0.0011387927410965778,88.71524935893723,0,100,1.0,2,0.22208414572152926
2.81,0.0006765107634274089,88.47887116054635,0,100,1.0,2,0.21740338931774947
2.815,0.00039307957404427924,88.12103561282021,0,100,1.0,2,0.21031753688752888
2.82,0.00022338910511776318,87.65398370746026,0,100,1.0,2,0.20106898430614367
2.825,0.00012417073320013317,87.09326584850498,0,100,1.0,2,0.18996566036643533
2.83,6.750753468904987e-05,86.45688333992547,0,100,1.0,2,0.1773640265331776
2.835,3.5897234866245036e-05,85.76433238765725,0,100,1.0,2,0.16365014629024255
2.84,1.8670050400879738e-05,85.03562111892845,0,100,1.0,2,0.14922022017680092
2.845,9.497421874143672e-06,84.29032800874867,0,100,1.0,2,0.13446194076730048
2.85,4.725434140340885e-06,83.54676196678626,0,100,1.0,2,0.11973786072844086
2.855,2.299606063738814e-06,82.82127143199685,0,100,1.0,2,0.10537171152469006
2.86,1.0945633976635486e-06,82.12773383300559,0,100,1.0,2,0.09163829372288303
2.865,5.095703414287532e-07,81.47723957849853,0,100,1.0,2,0.07875721937620844
2.87,2.3202944964797243e-07,80.8779681711764,0,100,1.0,2,0.06689045883517634
2.875,1.0333746954038608e-07,80.33523965205595,0,100,1.0,2,0.056143359446652406
2.88,4.501406988770349e-08,79.85171351657259,0,100,1.0,2,0.04656858448658589
2.885,0.0,79.4277001310269,0,100,1.0,2,0.03817227982231477
2.89,0.0,79.06154663501417,0,100,1.0,2,0.030921715544834995
2.895,0.0,78.75006000694432,0,100,1.0,2,0.024753663503847993
2.9,0.0,78.48893371593002,0,100,1.0,2,0.019582845860000333
2.905,0.0,78.27315029611424,0,100,1.0,2,0.015309906853747291
2.91,0.0,78.09733930154225,0,100,1.0,2,0.01182850102063859
2.915,0.0,77.95607752728124,0,100,1.0,2,0.009031238163984908
2.92,0.0,77.84412535886558,0,100,1.0,2,0.006814363541892725
2.925,0.0,77.75659908390251,0,100,1.0,2,0.005081169978267619
2.93,0.0,77.68908363648295,0,100,1.0,2,0.0037442304254049156
2.935,0.0,77.63769342762592,0,100,1.0,2,0.0027266025272459243
2.94,0.0,77.59909069997673,0,100,1.0,2,0.001962192078747081
2.945,0.0,77.57047141662967,0,100,1.0,2,0.001395473596627178
2.95,0.0,77.54952831210755,0,100,1.0,2,0.0009807586555951383
2.955,0.0,77.53439968565549,0,100,1.0,2,0.0006811818941680531
2.96,0.0,77.52361107934098,0,100,1.0,2,0.0004675461255639747
2.965,0.0,77.51601539400482,0,100,1.0,2,0.0003171365149470229
2.97,0.0,77.5107354396466,0,100,1.0,2,0.00021258296329891224
2.975,0.0,77.5071115204345,0,100,1.0,2,0.00014082218682190587
2.98,0.0,77.50465549120143,0,100,1.0,2,9.218794458283044e-05
2.985,0.0,77.50301181976099,0,100,1.0,2,5.963999526703348e-05
2.99,0.0,77.50192554142846,0,100,1.0,2,3.812953323688924e-05
2.995,0.0,77.50121657020485,0,100,1.0,2,2.409049910586801e-05
3.0,0.0,77.50075959466382,0,100,1.0,2,1.5041478491465937e-05
3.005,0.0,77.5004686914755,0,100,1.0,2,9.281019316912903e-06
3.01,0.0,77.50028579368261,0,100,1.0,2,5.659280843712965e-06
3.015,0.0,77.50017221802912,0,100,1.0,2,3.410258002396845e-06
3.02,0.0,77.50010255693317,0,100,1.0,2,2.0308303598341972e-06
3.025,0.0,77.50006035480573,0,100,1.0,2,1.1951446678344072e-06
3.03,0.0,77.50003510096914,0,100,1.0,2,6.950686958976569e-07
3.035,0.0,77.50002017375671,0,100,1.0,2,3.9948033088309094e-07
3.04,0.0,77.5000114581597,0,100,1.0,2,2.2689425157628954e-07
3.045,0.0,77.50000643136833,0,100,1.0,2,1.2735382839390794e-07
3.05,0.0,77.50000356740416,0,100,1.0,2,7.06416666153108e-08
3.055,0.0,77.50000195551733,0,100,1.0,2,3.8723115521591324e-08
3.06,0.001684486749771458,77.50000105933042,0,100,1.0,2,2.097683990865731e-08
3.065,0.00456624331333666,77.50000056710259,0,100,1.0,2,1.1229754235419834e-08
3.07,0.011079731271581421,77.50000030002141,0,100,1.0,2,5.941018062543717e-09
3.075,0.024064571490409,77.50000015685677,0,100,1.0,2,3.106074675790548e-09
3.08,0.046784906529573234,77.50000008104286,0,100,1.0,2,1.6048090293396052e-09
3.085,0.08141644351188804,77.50000004137964,0,100,1.0,2,8.193987270877385e-10
3.09,0.12682276464025305,77.50000002087944,0,100,1.0,2,4.1345426532391476e-10
3.095,0.1768320708657512,77.50000001041145,0,100,1.0,2,2.0616742196832298e-10
3.1,0.22070063230473494,77.50000000513056,0,100,1.0,2,1.0159522947889297e-10
3.105,0.24656126505113576,77.5000000024985,0,100,1.0,2,4.947516104174169e-11
3.11,0.24656126505724016,77.50000000120241,0,100,1.0,2,2.3810076023023207e-11
3.115,0.220700632329898,77.50000000057186,0,100,1.0,2,1.1323940685038491e-11
3.12,0.17683207093748562,77.50000000026877,0,100,1.0,2,5.322176143140901e-12
3.125,0.12682276483597799,77.50000000012483,0,100,1.0,2,2.4718445112541467e-12
3.13,0.08141644409447898,77.5000000000573,0,100,1.0,2,1.1346171527068214e-12
3.135,0.04678490952598309,77.50000000002599,0,100,1.0,2,5.146862034476132e-13
3.14,0.024064605020532023,77.50000000001165,0,100,1.0,2,2.3075051220724046e-13
3.145,0.011080171739334697,77.50000000000516,0,100,1.0,2,1.0214931211125401e-13
3.15,0.004571212771509492,77.50000000000226,0,100,1.0,2,4.474308712311126e-14
3.155,0.0017299316936037438,77.50000000000098,0,100,1.0,2,1.9416811393048284e-14
3.16,0.0008899431850697582,77.50000000000041,0,100,1.0,2,8.160688846353625e-15
3.165,0.002128806368910263,77.50000000000017,0,100,1.0,2,3.3768367640083968e-15
3.17,0.009309664818487698,77.50000000000007,0,100,1.0,2,1.4070153183368321e-15
3.175,0.03503263543368747,77.50000000000003,0,100,1.0,2,5.628061273347328e-16
3.18,0.10606267793605692,77.50000000000001,0,100,1.0,2,2.814030636673664e-16
3.185,0.25734927343160535,77.5,0,100,1.0,2,0.0
3.19,0.5003202479539708,77.5,0,100,1.0,2,0.0
3.195,0.7793067891790435,77.5,0,100,1.0,2,0.0
3.2,0.9720477407234077,77.50000297262514,1,100,1.0,2,5.8863864154827213e-08
3.205,0.967267334488097,77.50000602692357,0,100,1.0,2,1.193450212231075e-07
3.21,0.7505869905515209,77.50001314884915,0,100,1.0,2,2.603732504761829e-07
3.215,0.4028369574773956,77.50003218277465,0,100,1.0,2,6.372826662597374e-07
3.22,0.04553881263121314,77.5000891336331,0,100,1.0,2,1.7650224375563202e-06
3.225,-0.189138810908105,77.5002690214767,0,100,1.0,2,5.32715795439925e-06
3.23,-0.22868072635956738,77.50083732265789,0,100,1.0,2,1.6580646690828313e-05
3.235,-0.14104670682394166,77.50257317183726,0,100,1.0,2,5.09538977674351e-05
3.24,-0.051158381651102834,77.5076082097914,0,100,1.0,2,0.00015065761963167613
3.245,-0.008206426846427752,77.52135258747315,0,100,1.0,2,0.0004228235143197217
3.25,0.005350271385530505,77.55649700924465,0,100,1.0,2,0.0011187526583099309
3.255,0.01084668799215426,77.64045440057028,0,100,1.0,2,0.0027812752588173757
3.26,0.016256859896386415,77.82751617390053,0,100,1.0,2,0.006485468790109587
3.265,0.02345021205790711,78.21569569973141,0,100,1.0,2,0.014172192073889358
3.27,0.0330621597308209,78.96491975294279,0,100,1.0,2,0.029008311939461205
3.275,0.04559141319943196,80.30785299502509,0,100,1.0,2,0.05560104940643736
3.28,0.06149084917446989,82.53901529227541,0,100,1.0,2,0.0997824810351566
3.285,0.08111733445924295,85.96626012174221,0,100,1.0,2,0.16764871528202394
3.29,0.1046628598272375,90.81658192531896,0,100,1.0,2,0.2636946915904744
3.295,0.1320831047748631,97.10833980159956,0,100,1.0,2,0.38828395646731795
3.3,0.16303381314489318,104.52938760793602,0,100,1.0,2,0.5352353981769508
3.305,0.19682662652900276,112.38094101245923,0,100,1.0,2,0.6907117032170145
3.31,0.23241585813229,119.64223165483207,0,100,1.0,2,0.834499636729348
3.315,0.26842527782774417,125.1719099748606,0,100,1.0,2,0.9439982173239723
3.32,0.30321927900592993,128.0,0,100,1.0,2,1.0
3.325,0.3350163137995362,127.6101393237791,0,100,1.0,2,0.992279986609487
3.33,0.3620352400956416,124.10010403781507,0,100,1.0,2,0.9227743373824767
3.335,0.3826586036805073,118.15277378027952,0,100,1.0,2,0.8050054213916736
3.34,0.39559233134833227,110.8299379581053,0,100,1.0,2,0.6599987714476298
3.345,0.4,103.27489006078626,0,100,1.0,2,0.510393862589827
3.35,0.39559233134833227,96.43814350154825,0,100,1.0,2,0.3750127426049159
3.355,0.3826586036805073,90.9137835998359,0,100,1.0,2,0.26561947722447316
3.36,0.3620352400956416,86.9136909261355,0,100,1.0,2,0.1864097213096139
3.365,0.3350163137995362,84.34894125219122,0,100,1.0,2,0.13562259905329158
3.37,0.3032192790059296,82.95851223358169,0,100,1.0,2,0.10808935116003339
3.375,0.26842527782774417,82.42961246934831,0,100,1.0,2,0.09761608850194681
3.38,0.23241585813229,82.47825904809713,0,100,1.0,2,0.09857938709103227
3.385,0.19682662652900276,82.88510695734854,0,100,1.0,2,0.10663578133363447
3.39,0.16303381314489318,83.49817142324218,0,100,1.0,2,0.11877567174736997
3.395,0.13208310477486307,84.218703403949,0,100,1.0,2,0.1330436317613662
3.4,0.10466285982723562,84.98313005843968,0,100,1.0,2,0.14818079323642938
3.405,0.08111733445917907,85.74806308660983,0,100,1.0,2,0.163327981913066
3.41,0.06149084917398798,86.48049615879853,0,100,1.0,2,0.17783160710492138
3.415,0.04559141333598128,87.1526196872008,0,100,1.0,2,0.19114098390496628
3.42,0.03306217087257399,87.73979816955085,0,100,1.0,2,0.20276828058516538
3.425,0.02345067901074276,88.22034613356011,0,100,1.0,2,0.2122840818526755
3.43,0.016268788896435526,88.57613991279077,0,100,1.0,2,0.2193295032235795
3.435,0.011039026374860051,88.79347868239333,0,100,1.0,2,0.22363324123551145
3.44,0.007326255555493689,88.86386439984123,0,100,1.0,2,0.2250270178186383
3.445,0.0047556414315231815,88.78452238775425,0,100,1.0,2,0.22345588886642082
3.45,0.0030193390635632803,88.55857365850133,0,100,1.0,2,0.21898165660398675
3.455,0.001874953127946523,88.19482866332193,0,100,1.0,2,0.2117787854123154
3.46,0.0011387927410965778,87.70721657209255,0,100,1.0,2,0.2021231004374762
3.465,0.0006765107634274089,87.11390019357708,0,100,1.0,2,0.1903742612589521
3.47,0.00039307957404427924,86.43615452975533,0,100,1.0,2,0.17695355504465995
3.475,0.00022338910511776318,85.6971052748557,0,100,1.0,2,0.16231891633377626
3.48,0.00012417073320013317,84.92043109401514,0,100,1.0,2,0.14693922958445826
3.485,6.750753468904987e-05,84.12913009206147,0,100,1.0,2,0.13126990281309847
3.49,3.5897234866245036e-05,83.3444376315581,0,100,1.0,2,0.11573143824867513
3.495,1.8670050400879738e-05,82.58496182074326,0,100,1.0,2,0.10069231328204475
3.5,9.497421874143672e-06,81.86607755524824,0,100,1.0,2,0.08645698129204434
3.505,4.725434140340885e-06,81.1995932352933,0,100,1.0,2,0.07325927198600607
3.51,2.299606063738814e-06,80.59367928154045,0,100,1.0,2,0.061260975872088036
3.515,1.0945633976635486e-06,80.05302685084085,0,100,1.0,2,0.05055498714536339
3.52,5.095703414287532e-07,79.5791903812813,0,100,1.0,2,0.041172086758045415
3.525,2.3202944964797243e-07,79.17105949996414,0,100,1.0,2,0.03309028712800286
3.53,1.0333746954038608e-07,78.82540422739977,0,100,1.0,2,0.026245628265342033
3.535,4.501406988770349e-08,78.53744138964515,0,100,1.0,2,0.02054339385435946
3.54,0.0,78.30137828670698,0,100,1.0,2,0.01586887696449461
3.545,0.0,78.11090032048983,0,100,1.0,2,0.012097036049303622
3.55,0.0,77.95958084176635,0,100,1.0,2,0.009100610728046602
3.555,0.0,77.84120254425764,0,100,1.0,2,0.006756486024903777
3.56,0.0,77.74998928072644,0,100,1.0,2,0.004950282786662154
3.565,0.0,77.68075457337353,0,100,1.0,2,0.0035792984826442343
3.57,0.0,77.62897810246339,0,100,1.0,2,0.0025540218309582667
3.575,0.0,77.59082417329567,0,100,1.0,2,0.0017984984811024256
3.58,0.0,77.56311690651798,0,100,1.0,2,0.0012498397330292315
3.585,0.0,77.54328612787634,0,100,1.0,2,0.0008571510470562883
3.59,0.0,77.52929615012752,0,100,1.0,2,0.0005801217847033963
3.595,0.0,77.51956731102686,0,100,1.0,2,0.00038747150548240573
3.6,0.0,77.51289764815891,0,100,1.0,2,0.00025539897344380267
3.605,0.0,77.5083897435128,0,100,1.0,2,0.00016613353490680706
3.61,0.0,77.5053857429786,0,100,1.0,2,0.00010664837581393074
3.615,0.0,77.50341193968492,0,100,1.0,3,6.756316207769271e-05
3.62,0.0,77.50213312275217,0,100,1.0,3,4.224005449841435e-05
3.625,0.0,77.50131610073626,0,100,1.0,3,2.606140071804367e-05
3.63,0.0,77.5008013480742,0,100,1.0,3,1.586827869713002e-05
3.635,0.0,77.50048151746557,0,100,1.0,3,9.53499931828185e-06
3.64,0.0,77.5002855365269,0,100,1.0,3,5.654188651540086e-06
3.645,0.0,77.50016709755003,0,100,1.0,3,3.3088623768948633e-06
3.65,0.0,77.50009650221315,0,100,1.0,3,1.910934913937153e-06
3.655,0.0,77.50005500007046,0,100,1.0,3,1.0891103061517737e-06
3.66,0.0,77.50003093484894,0,100,1.0,3,6.125712660728949e-07
3.665,0.0,77.50001717083974,0,100,1.0,3,3.400166285205565e-07
3.67,0.0,77.5000094057591,0,100,1.0,3,1.862526554723805e-07
3.675,0.0,77.50000508457842,0,100,1.0,3,1.0068472116328471e-07
3.68,0.001684486749771458,77.50000271253174,0,100,1.0,3,5.371349977782068e-08
3.685,0.00456624331333666,77.50000142808314,0,100,1.0,3,2.8278874019138535e-08
3.69,0.011079731271581421,77.50000074197783,0,100,1.0,3,1.4692630267547591e-08
3.695,0.024064571490409,77.50000038044087,0,100,1.0,3,7.533482502286362e-09
3.7,0.046784906529573234,77.50000019250507,0,100,1.0,3,3.811981577479792e-09
3.705,0.08141644351188804,77.50000009612934,0,100,1.0,3,1.9035513055809637e-09
3.71,0.12682276464025305,77.50000004737274,0,100,1.0,3,9.38073996918986e-10
3.715,0.1768320708657512,77.5000000230388,0,100,1.0,3,4.562137422512348e-10
3.72,0.22070063230473494,77.50000001105732,0,100,1.0,3,2.1895690980894113e-10
3.725,0.24656126505113576,77.5000000052372,0,100,1.0,3,1.0370687806865288e-10
3.73,0.24656126505724016,77.50000000244798,0,100,1.0,3,4.8474773150404206e-11
3.735,0.220700632329898,77.50000000112921,0,100,1.0,3,2.2360568842072603e-11
3.74,0.17683207093748562,77.50000000051404,0,100,1.0,3,1.0178911618975978e-11
3.745,0.12682276483597799,77.50000000023093,0,100,1.0,3,4.5727997845947045e-12
3.75,0.08141644409447898,77.50000000010237,0,100,1.0,3,2.0272276706597077e-12
3.755,0.04678490952598309,77.50000000004479,0,100,1.0,3,8.869824566795389e-13
3.76,0.024064605020532023,77.50000000001934,0,100,1.0,3,3.829895696512857e-13
3.765,0.011080171739334697,77.50000000000824,0,100,1.0,3,1.632137769270725e-13
3.77,0.004571212771509492,77.50000000000347,0,100,1.0,3,6.86623475348374e-14
3.775,0.0017299316936037438,77.50000000000144,0,100,1.0,3,2.842170943040401e-14
3.78,0.0008899431850697582,77.50000000000058,0,100,1.0,3,1.1537525610362024e-14
3.785,0.002128806368910263,77.50000000000024,0,100,1.0,3,4.783852082345229e-15
3.79,0.009309664818487698,77.5000000000001,0,100,1.0,3,1.969821445671565e-15
3.795,0.03503263543368747,77.50000000000004,0,100,1.0,3,8.442091910020992e-16
3.8,0.10606267793605692,77.50000000000001,0,100,1.0,3,2.814030636673664e-16
3.805,0.25734927343160535,77.5,0,100,1.0,3,0.0
3.81,0.5003202479539708,77.5,0,100,1.0,3,0.0
3.815,0.7793067891790435,77.5,0,100,1.0,3,0.0
3.82,0.9720477407234077,77.50000295860458,1,100,1.0,3,5.8586229359585414e-08
3.825,0.967267334488097,77.50000607194025,0,100,1.0,3,1.2023644056189188e-07
3.83,0.7505869905515209,77.50001345273148,0,100,1.0,3,2.663907223742883e-07
3.835,0.4028369574773956,77.5000335974731,0,100,1.0,3,6.65296497145121e-07
3.84,0.04553881263121314,77.5000952391376,0,100,1.0,3,1.8859235166978084e-06
3.845,-0.189138810908105,77.50029396174413,0,100,1.0,3,5.821024636320949e-06
3.85,-0.22868072635956738,77.50093256649718,0,100,1.0,3,1.8466663310573943e-05
3.855,-0.14104670682394166,77.5029100232732,0,100,1.0,3,5.762422323172278e-05
3.86,-0.051158381651102834,77.50870714352278,0,100,1.0,3,0.00017241868361948757
3.865,-0.008206426846427752,77.5246562773498,0,100,1.0,3,0.00048824311583773423
3.87,0.005350271385530505,77.56565066778992,0,100,1.0,3,0.0013000132235628605
3.875,0.01084668799215426,77.66383990810884,0,100,1.0,3,0.0032443546160166505
3.88,0.016256859896386415,77.88262038992832,0,100,1.0,3,0.007576641384719209
3.885,0.02345021205790711,78.33545183145863,0,100,1.0,3,0.016543600622943112
3.89,0.0330621597308209,79.20484989603223,0,100,1.0,3,0.03375940388182632
3.895,0.04559141319943196,80.75054676642503,0,100,1.0,3,0.06436726270148578
3.9,0.06149084917446989,83.28992906835192,0,100,1.0,3,0.11465206075944404
3.905,0.08111733445924295,87.13394030962314,0,100,1.0,3,0.19077109524006222
3.91,0.1046628598272375,92.47378991953458,0,100,1.0,3,0.2965106914759323
3.915,0.1320831047748631,99.23955414039685,0,100,1.0,3,0.43048622060191777
3.92,0.16303381314489318,106.98246625036123,0,100,1.0,3,0.5838112128784402
3.925,0.19682662652900276,114.8494723141842,0,100,1.0,3,0.7395935111719643
3.93,0.23241585813229,121.70177762100317,0,100,1.0,3,0.8752827251683797
3.935,0.26842527782774417,126.37413972136399,0,100,1.0,3,0.9678047469577027
3.94,0.30321927900592993,128.0,0,100,1.0,3,1.0
3.945,0.3350163137995362,126.27952255457706,0,100,1.0,3,0.9659311396945952
3.95,0.3620352400956416,121.57753056726469,0,100,1.0,3,0.8728223874705879
3.955,0.3826586036805073,114.80819134861454,0,100,1.0,3,0.7387760663091989
3.96,0.39559233134833227,107.1570555269131,0,100,1.0,3,0.5872684262755069
3.965,0.4,99.75682326894582,0,100,1.0,3,0.44072917364249153
3.97,0.39559233134833227,93.437628290086,0,100,1.0,3,0.3155965998036831
3.975,0.3826586036805073,88.6210265304858,0,100,1.0,3,0.2202183471383328
3.98,0.3620352400956416,85.35521064557099,0,100,1.0,3,0.15554872565487113
3.985,0.3350163137995362,83.43676931776182,0,100,1.0,3,0.11755978847053099
3.99,0.3032192790059296,82.55078966163666,0,100,1.0,3,0.1000156368640922
3.995,0.26842527782774417,82.37990978446584,0,100,1.0,3,0.0966318769201156
4.0,0.23241585813229,82.66385053700031,0,100,1.0,3,0.10225446607921415
4.005,0.19682662652900276,83.21572546574443,0,100,1.0,3,0.11318268248998865
4.01,0.16303381314489318,83.91239791841033,0,100,1.0,3,0.12697817660218486
4.015,0.13208310477486307,84.67546318988141,0,100,1.0,3,0.14208837999765173
4.02,0.10466285982723562,85.45331282711224,0,100,1.0,3,0.1574913431111335
4.025,0.08111733445917907,86.20847512306442,0,100,1.0,3,0.17244505194186965
4.03,0.06149084917398798,86.91043201717129,0,100,1.0,3,0.1863451884588374
4.035,0.04559141333598128,87.53247338289246,0,100,1.0,3,0.19866283926519726
4.04,0.03306217087257399,88.0509704560115,0,100,1.0,3,0.20893010803983164
4.045,0.02345067901074276,88.44584531855038,0,100,1.0,3,0.21674941224852243
4.05,0.016268788896435526,88.70146811501344,0,100,1.0,3,0.22181124980224634
4.055,0.011039026374860051,88.80754517288817,0,100,1.0,3,0.2239117856017459
4.06,0.007326255555493689,88.75976200907462,0,100,1.0,3,0.22296558433811128
4.065,0.0047556414315231815,88.56006114259078,0,100,1.0,3,0.21901111173447094
4.07,0.0030193390635632803,88.21650740561338,0,100,1.0,3,0.2122080674378888
4.075,0.001874953127946523,87.74274663539316,0,100,1.0,3,0.20282666604738933
4.08,0.0011387927410965778,87.15710631316468,0,100,1.0,3,0.19122982798345892
4.085,0.0006765107634274089,86.48142019658886,0,100,1.0,3,0.17784990488294766
4.09,0.00039307957404427924,85.73968176817759,0,100,1.0,3,0.16316201521143742
4.095,0.00022338910511776318,84.95664182706211,0,100,1.0,3,0.14765627380321017
4.1,0.00012417073320013317,84.15646337911748,0,100,1.0,3,0.13181115602212837
4.105,6.750753468904987e-05,83.36153323734182,0,100,1.0,3,0.11606996509587757
4.11,3.5897234866245036e-05,82.59150690834363,0,100,1.0,3,0.10082191897710163
4.115,1.8670050400879738e-05,81.86263483969579,0,100,1.0,3,0.08638880870684726
4.12,9.497421874143672e-06,81.18738775969096,0,100,1.0,3,0.07301757939982106
4.125,4.725434140340885e-06,80.57437030471705,0,100,1.0,3,0.06087861989538713
4.13,2.299606063738814e-06,80.02848839135753,0,100,1.0,3,0.0500690770565847
4.135,1.0945633976635486e-06,79.55131885537037,0,100,1.0,3,0.040620175353868686
4.14,5.095703414287532e-07,79.14162062723075,0,100,1.0,3,0.03250733915308417
4.145,2.3202944964797243e-07,78.79592494440962,0,100,1.0,3,0.025661880087319212
4.15,1.0333746954038608e-07,78.50914673365939,0,100,1.0,3,0.019983103636819648
4.155,4.501406988770349e-08,78.2751686651716,0,100,1.0,3,0.015349874557853577
4.16,0.0,78.08736155817212,0,100,1.0,3,0.01163092194400237
4.165,0.0,77.93901792246764,0,100,1.0,3,0.008693424207280032
4.17,0.0,77.82368785280029,0,100,1.0,3,0.0064096604514908995
4.175,0.0,77.73541708275205,0,100,1.0,3,0.004661724410931694
4.18,0.0,77.66889506741865,0,100,1.0,3,0.0033444567805672436
4.185,0.0,77.61952627338034,0,100,1.0,3,0.0023668568986206853
4.19,0.0,77.583440560487,0,100,1.0,3,0.0016522883264753596
4.195,0.0,77.55745905335685,0,100,1.0,3,0.0011378030367693284
4.2,0.0,77.53903077198105,0,100,1.0,3,0.0007728865738821098
4.205,0.0,77.52615310372167,0,100,1.0,3,0.0005178832420132368
4.21,0.0,77.51728648731061,0,100,1.0,3,0.00034230667941809016
4.215,0.0,77.51127087641395,0,100,1.0,3,0.00022318567156327782
4.22,0.0,77.50724896569103,0,100,1.0,3,0.0001435438750699704
4.225,0.0,77.50459898318086,0,100,1.0,3,9.10689738783267e-05
4.23,0.0,77.50287816056776,0,100,1.0,3,5.699327856952082e-05
4.235,0.0,77.50177678810005,0,100,1.0,3,3.518392277317274e-05
4.24,0.0,77.50108199106754,0,100,1.0,3,2.1425565693793897e-05
4.245,0.0,77.5006499487824,0,100,1.0,3,1.2870272918730328e-05
4.25,0.0,77.50038512526845,0,100,1.0,3,7.626242939628661e-06
4.255,0.0,77.50022510871771,0,100,1.0,3,4.457598370580323e-06
4.26,0.0,77.5001297926306,0,100,1.0,3,2.5701511010358426e-06
4.265,0.0,77.50007382019291,0,100,1.0,3,1.4617859982094934e-06
4.27,0.0,77.50004141596045,0,100,1.0,3,8.201180287752583e-07
4.275,0.0,77.50002292069169,0,100,1.0,3,4.5387508299598373e-07
4.28,0.0,77.50001251281783,0,100,1.0,3,2.477785709414651e-07
4.285,0.0,77.50000673829383,0,100,1.0,3,1.334315610696793e-07
4.29,0.001684486749771458,77.50000357941612,0,100,1.0,3,7.087952705732466e-08
4.295,0.00456624331333666,77.50000187560704,0,100,1.0,3,3.714073347221682e-08
4.3,0.011079731271581421,77.50000096948018,0,100,1.0,3,1.919762739096696e-08
4.305,0.024064571490409,77.5000004943146,0,100,1.0,3,9.788408024718646e-09
4.31,0.046784906529573234,77.5000002486196,0,100,1.0,3,4.923160387610695e-09
4.315,0.08141644351188804,77.50000012334874,0,100,1.0,3,2.442549326714119e-09
4.32,0.12682276464025305,77.50000006036726,0,100,1.0,3,1.1953912095609352e-09
4.325,0.1768320708657512,77.5000000291431,0,100,1.0,3,5.770909910556793e-10
4.33,0.22070063230473494,77.50000001387833,0,100,1.0,3,2.748185133806137e-10
4.335,0.24656126505113576,77.50000000651939,0,100,1.0,3,1.290967508911047e-10
4.34,0.24656126505724016,77.50000000302094,0,100,1.0,3,5.982066327440875e-11
4.345,0.220700632329898,77.50000000138085,0,100,1.0,3,2.7343654293494327e-11
4.35,0.17683207093748562,77.5000000006226,0,100,1.0,3,1.2328831025394658e-11
4.355,0.12682276483597799,77.50000000027693,0,100,1.0,3,5.4837015016859696e-12
4.36,0.08141644409447898,77.50000000012149,0,100,1.0,3,2.4057147912923155e-12
4.365,0.04678490952598309,77.50000000005258,0,100,1.0,3,1.0411913355692557e-12
4.37,0.024064605020532023,77.50000000002245,0,100,1.0,3,4.446168405944389e-13
4.375,0.011080171739334697,77.50000000000945,0,100,1.0,3,1.8713303733879865e-13
4.38,0.004571212771509492,77.50000000000392,0,100,1.0,3,7.766724557219314e-14
4.385,0.0017299316936037438,77.5000000000016,0,100,1.0,3,3.179854619441241e-14
4.39,0.0008899431850697582,77.50000000000065,0,100,1.0,3,1.2944540928698855e-14
4.395,0.002128806368910263,77.50000000000026,0,100,1.0,3,5.065255146012595e-15
4.4,0.009309664818487698,77.5000000000001,0,100,1.0,3,1.969821445671565e-15
4.405,0.03503263543368747,77.50000000000004,0,100,1.0,3,8.442091910020992e-16
4.41,0.10606267793605692,77.50000000000001,0,100,1.0,3,2.814030636673664e-16
4.415,0.25734927343160535,77.5,0,100,1.0,3,0.0
4.42,0.5003202479539708,77.5,0,100,1.0,3,0.0
4.425,0.7793067891790435,77.5,0,100,1.0,3,0.0
4.43,0.9720477407234077,77.5000029761183,1,100,1.0,3,5.8933035560504224e-08
4.435,0.967267334488097,77.50000618532628,0,100,1.0,3,1.2248170861258217e-07
4.44,0.7505869905515209,77.50001392552794,0,100,1.0,3,2.7575302847298647e-07
4.445,0.4028369574773956,77.50003551779191,0,100,1.0,3,7.033226121719882e-07
4.45,0.04553881263121314,77.50010313559092,0,100,1.0,3,2.0422889290915523e-06
4.455,-0.189138810908105,77.50032572609189,0,100,1.0,3,6.450021621528529e-06
4.46,-0.22868072635956738,77.50105352781613,0,100,1.0,3,2.0861936952983477e-05
4.465,-0.14104670682394166,77.50333849843346,0,100,1.0,3,6.610887987058545e-05
4.47,-0.051158381651102834,77.51010867794061,0,100,1.0,3,0.00020017184040806803
4.475,-0.008206426846427752,77.52887923627338,0,100,1.0,3,0.0005718660648194646
4.48,0.005350271385530505,77.57736547743413,0,100,1.0,3,0.0015319896521609532
4.485,0.01084668799215426,77.6937614840257,0,100,1.0,3,0.003836861069815838
4.49,0.016256859896386415,77.95299178483792,0,100,1.0,3,0.008970134353226137
4.495,0.02345021205790711,78.48782060961162,0,100,1.0,3,0.019560804150725097
4.5,0.0330621597308209,79.50840637712494,0,100,1.0,3,0.03977042330940479
4.505,0.04559141319943196,81.30639038119868,0,100,1.0,3,0.07537406695442934
4.51,0.06149084917446989,84.22371682098306,0,100,1.0,3,0.13314290734619916
4.515,0.08111733445924295,88.56905596488694,0,100,1.0,3,0.2191892270274642
4.52,0.1046628598272375,94.48254071967199,0,100,1.0,3,0.3362879350430097
4.525,0.1320831047748631,101.78187771882364,0,100,1.0,3,0.4808292617588839
4.53,0.16303381314489318,109.85607098931862,0,100,1.0,3,0.6407142770162104
4.535,0.19682662652900276,117.68289868067583,0,100,1.0,3,0.7957009639737789
4.54,0.23241585813229,124.01296766753546,0,100,1.0,3,0.9210488647036725
4.545,0.26842527782774417,127.69015041412591,0,100,1.0,3,0.9938643646361566
4.55,0.30321927900592993,128.0,0,100,1.0,3,1.0
4.555,0.3350163137995362,124.90331438199323,0,100,1.0,3,0.9386794927127372
4.56,0.3620352400956416,119.0509908262225,0,100,1.0,3,0.8227918975489604
4.565,0.3826586036805073,111.57334395352093,0,100,1.0,3,0.6747196822479392
4.57,0.39559233134833227,103.73799888891169,0,100,1.0,3,0.5195643344338948
4.575,0.4,96.61848240541384,0,100,1.0,3,0.3785838100081949
4.58,0.39559233134833227,90.88948241854119,0,100,1.0,3,0.265138265713687
4.585,0.3826586036805073,86.7893676493135,0,100,1.0,3,0.18394787424383177
4.59,0.3620352400956416,84.21448228450262,0,100,1.0,3,0.13296004523767568
4.595,0.3350163137995362,82.8706742557033,0,100,1.0,3,0.10634998526145162
4.6,0.3032192790059296,82.41285373443978,0,100,1.0,3,0.09728423236514412
4.605,0.26842527782774417,82.53508919471457,0,100,1.0,3,0.09970473652900144
4.61,0.23241585813229,83.00723630449004,0,100,1.0,3,0.10905418424732743
4.615,0.19682662652900276,83.67399525905368,0,100,1.0,3,0.12225733186244916
4.62,0.16303381314489318,84.43655035035052,0,100,1.0,3,0.13735743268020822
4.625,0.13208310477486307,85.23167363197578,0,100,1.0,3,0.15310244815793625
4.63,0.10466285982723562,86.01556443973125,0,100,1.0,3,0.1686250384105198
4.635,0.08111733445917907,86.75400535564901,0,100,1.0,3,0.18324763080493095
4.64,0.06149084917398798,87.41763420030695,0,100,1.0,3,0.19638879604568216
4.645,0.04559141333598128,87.98046505761806,0,100,1.0,3,0.20753396153699133
4.65,0.03306217087257399,88.42010861624007,0,100,1.0,3,0.2162397745790113
4.655,0.02345067901074276,88.71867720825321,0,100,1.0,3,0.22215202392580616
4.66,0.016268788896435526,88.86378878992376,0,100,1.0,3,0.2250255205925497
4.665,0.011039026374860051,88.84935272165478,0,100,1.0,3,0.22473965785455013
4.67,0.007326255555493689,88.67597412457343,0,100,1.0,3,0.22130641830838474
4.675,0.0047556414315231815,88.3509063891692,0,100,1.0,3,0.21486943344889498
4.68,0.0030193390635632803,87.88754641372572,0,100,1.0,3,0.20569398839060823
4.685,0.001874953127946523,87.30451845386142,0,100,1.0,3,0.19414888027448354
4.69,0.0011387927410965778,86.62443306399382,0,100,1.0,3,0.18068184285136277
4.695,0.0006765107634274089,85.87243609243906,0,100,1.0,3,0.16579081371166454
4.7,0.00039307957404427924,85.07467708397961,0,100,1.0,3,0.1499936056233586
4.705,0.00022338910511776318,84.25682600304509,0,100,1.0,3,0.13379853471376418
4.71,0.00012417073320013317,83.4427529734118,0,100,1.0,3,0.11767827670122376
4.715,6.750753468904987e-05,82.65346049137668,0,100,1.0,3,0.10204872260151836
4.72,3.5897234866245036e-05,81.90632528007868,0,100,1.0,3,0.087253965942152
4.725,1.8670050400879738e-05,81.21467213191562,0,100,1.0,3,0.07355786399832911
4.73,9.497421874143672e-06,80.58766909939999,0,100,1.0,3,0.06114196236435621
4.735,4.725434140340885e-06,80.03050585017243,0,100,1.0,3,0.05010902673608776
4.74,2.299606063738814e-06,79.54479733357823,0,100,1.0,3,0.04049103630847982
4.745,1.0945633976635486e-06,79.12914419384192,0,100,1.0,3,0.03226028106617671
4.75,5.095703414287532e-07,78.77977938473101,0,100,1.0,3,0.025342166034277518
4.755,2.3202944964797243e-07,78.49123590647207,0,100,1.0,3,0.019628433791526147
4.76,1.0333746954038608e-07,78.25698150946495,0,100,1.0,3,0.014989732860692077
4.765,4.501406988770349e-08,78.06998030229119,0,100,1.0,3,0.01128673865923139
4.77,0.0,77.9231562441036,0,100,1.0,3,0.008379331566407817
4.775,0.0,77.80974762879951,0,100,1.0,3,0.006133616411871556
4.78,0.0,77.72355354312545,0,100,1.0,3,0.004426802834167279
4.785,0.0,77.65908215107021,0,100,1.0,3,0.0031501416053506637
4.79,0.0,77.61161631556492,0,100,1.0,3,0.002210224070592399
4.795,0.0,77.5772147447986,0,100,1.0,3,0.0015290048474969466
4.8,0.0,77.55266706642777,0,100,1.0,3,0.001042912206490556
4.805,0.0,77.53541965668042,0,100,1.0,3,0.0007013793402062909
4.81,0.0,77.52348636988228,0,100,1.0,3,0.0004650766313322339
4.815,0.0,77.51535513982303,0,100,1.0,3,0.00030406217471344875
4.82,0.0,77.50989824011825,0,100,1.0,4,0.0001960047548167684
4.825,0.0,77.50629112804937,0,100,1.0,4,0.00012457679305681935
4.83,0.0,77.50394244274653,0,100,1.0,4,7.80681731987105e-05
4.835,0.0,77.50243595126653,0,100,1.0,4,4.8236658743251e-05
4.84,0.0,77.50148401443865,0,100,1.0,4,2.9386424527632303e-05
4.845,0.0,77.50089140278692,0,100,1.0,4,1.7651540335041004e-05
4.85,0.0,77.50052792980212,0,100,1.0,4,1.045405548748337e-05
4.855,0.0,77.50030827953894,0,100,1.0,4,6.104545325579148e-06
4.86,0.0,77.50017749231459,0,100,1.0,4,3.5146992988441947e-06
4.865,0.0,77.5001007582777,0,100,1.0,4,1.995213419730693e-06
4.87,0.0,77.50005639599301,0,100,1.0,4,1.1167523368975266e-06
4.875,0.0,77.50003112304574,0,100,1.0,4,6.162979355277718e-07
4.88,0.0,77.5000169348855,0,100,1.0,4,3.35344267206424e-07
4.885,0.0,77.50000908549865,0,100,1.0,4,1.7991086429217397e-07
4.89,0.001684486749771458,77.50000480597605,0,100,1.0,4,9.516784252179542e-08
4.895,0.00456624331333666,77.50000250657536,0,100,1.0,4,4.963515556762041e-08
4.9,0.011079731271581421,77.50000128898024,0,100,1.0,4,2.5524361256042774e-08
4.905,0.024064571490409,77.5000006535489,0,100,1.0,4,1.2941562277269936e-08
4.91,0.046784906529573234,77.5000003267204,0,100,1.0,4,6.469710822082309e-09
4.915,0.08141644351188804,77.50000016104258,0,100,1.0,4,3.1889619481937712e-09
4.92,0.12682276464025305,77.50000007826571,0,100,1.0,4,1.5498161170254738e-09
4.925,0.1768320708657512,77.50000003750323,0,100,1.0,4,7.426381621866816e-10
4.93,0.22070063230473494,77.50000001771872,0,100,1.0,4,3.508657215152738e-10
4.935,0.24656126505113576,77.50000000825395,0,100,1.0,4,1.6344452743927976e-10
4.94,0.24656126505724016,77.50000000379104,0,100,1.0,4,7.5070176697607e-11
4.945,0.220700632329898,77.5000000017168,0,100,1.0,4,3.399602271859087e-11
4.95,0.17683207093748562,77.50000000076656,0,100,1.0,4,1.517944406034508e-11
4.955,0.12682276483597799,77.50000000033748,0,100,1.0,4,6.682759955972617e-12
4.96,0.08141644409447898,77.50000000014649,0,100,1.0,4,2.900702780283213e-12
4.965,0.04678490952598309,77.5000000000627,0,100,1.0,4,1.2415503169004206e-12
4.97,0.024064605020532023,77.50000000002646,0,100,1.0,4,5.239725045486363e-13
4.975,0.011080171739334697,77.50000000001101,0,100,1.0,4,2.1808737434220896e-13
4.98,0.004571212771509492,77.50000000000452,0,100,1.0,4,8.948617424622252e-14
4.985,0.0017299316936037438,77.50000000000182,0,100,1.0,4,3.60195921494229e-14
4.99,0.0008899431850697582,77.50000000000072,0,100,1.0,4,1.4351556247035687e-14
4.995,0.002128806368910263,77.50000000000028,0,100,1.0,4,5.6280612733473285e-15
5.0,0.009309664818487698,77.50000000000011,0,100,1.0,4,2.2512245093389313e-15
5.005,0.03503263543368747,77.50000000000004,0,100,1.0,4,8.442091910020992e-16
5.01,0.10606267793605692,77.50000000000001,0,100,1.0,4,2.814030636673664e-16
5.015,0.25734927343160535,77.5,0,100,1.0,4,0.0
5.02,0.5003202479539708,77.5,0,100,1.0,4,0.0
5.025,0.7793067891790435,77.5,0,100,1.0,4,0.0
5.03,0.9720477407234077,77.50000296249844,1,100,1.0,4,5.866333548744865e-08
5.035,0.967267334488097,77.50000623791465,0,100,1.0,4,1.2352306231771917e-07
5.04,0.7505869905515209,77.50001428061503,0,100,1.0,4,2.827844561111441e-07
5.045,0.4028369574773956,77.50003723221408,0,100,1.0,4,7.372715660071348e-07
5.05,0.04553881263121314,77.5001108437001,0,100,1.0,4,2.194924754443455e-06
5.055,-0.189138810908105,77.5003583964972,0,100,1.0,4,7.096960340696019e-06
5.06,-0.22868072635956738,77.501182171344,0,100,1.0,4,2.340933354452597e-05
5.065,-0.14104670682394166,77.50380467824786,0,100,1.0,4,7.534016332396512e-05
5.07,-0.051158381651102834,77.51165782593294,0,100,1.0,4,0.00023084803827609813
5.075,-0.008206426846427752,77.5335966224769,0,100,1.0,4,0.0006652796530080524
5.08,0.005350271385530505,77.59053331272185,0,100,1.0,4,0.0017927388657791189
5.085,0.01084668799215426,77.72746904695667,0,100,1.0,4,0.00450433756349843
5.09,0.016256859896386415,78.03213843050357,0,100,1.0,4,0.01053739466343693
5.095,0.02345021205790711,78.65824858789371,0,100,1.0,4,0.022935615601855627
5.1,0.0330621597308209,79.8447054890364,0,100,1.0,4,0.04642981166408713
5.105,0.04559141319943196,81.91361678160214,0,100,1.0,4,0.08739835211093355
5.11,0.06149084917446989,85.22452481350312,0,100,1.0,4,0.15296088739610145
5.115,0.08111733445924295,90.06880030306164,0,100,1.0,4,0.2488871347140918
5.12,0.1046628598272375,96.51294300837715,0,100,1.0,4,0.37649392095796336
5.125,0.1320831047748631,104.23854785834601,0,100,1.0,4,0.5294761952147725
5.13,0.16303381314489318,112.45984400219734,0,100,1.0,4,0.6922741386573731
5.135,0.19682662652900276,119.9980053094794,0,100,1.0,4,0.8415446595936514
5.14,0.23241585813229,125.53757473601254,0,100,1.0,4,0.9512391036834167
5.145,0.26842527782774417,128.0,0,100,1.0,4,1.0
5.15,0.30321927900592993,126.89180836635488,0,100,1.0,4,0.9780556112149481
5.155,0.3350163137995362,122.4744115695857,0,100,1.0,4,0.8905824073185287
5.16,0.3620352400956416,115.6764248123543,0,100,1.0,4,0.7559688081654317
5.165,0.3826586036805073,107.78956631187174,0,100,1.0,4,0.5997933923142919
5.17,0.39559233134833227,100.08516728784107,0,100,1.0,4,0.4472310354027935
5.175,0.4,93.50661991231735,0,100,1.0,4,0.3169627705409376
5.18,0.39559233134833227,88.53287890241118,0,100,1.0,4,0.21847284955269672
5.185,0.3826586036805073,85.21553134284277,0,100,1.0,4,0.15278279886817359
5.19,0.3620352400956416,83.32232502267858,0,100,1.0,4,0.1152935648055165
5.195,0.3350163137995362,82.50166604103804,0,100,1.0,4,0.09904289190174327
5.2,0.3032192790059296,82.40734321991523,0,100,1.0,4,0.09717511326564819
5.205,0.26842527782774417,82.76277175392498,0,100,1.0,4,0.1042133020579204
5.21,0.23241585813229,83.37479852576797,0,100,1.0,4,0.1163326440746133
5.215,0.19682662652900276,84.11928489680142,0,100,1.0,4,0.1310749484515132
5.22,0.16303381314489318,84.91824422362451,0,100,1.0,4,0.14689592522028738
5.225,0.13208310477486307,85.71996481329595,0,100,1.0,4,0.16277158046130585
5.23,0.10466285982723562,86.48593626724252,0,100,1.0,4,0.1779393320246044
5.235,0.08111733445917907,87.18404127410177,0,100,1.0,4,0.19176319354656976
5.24,0.06149084917398798,87.78600746918313,0,100,1.0,4,0.20368331622144817
5.245,0.04559141333598128,88.26721388243585,0,100,1.0,4,0.2132121560878387
5.25,0.03306217087257399,88.60753321720543,0,100,1.0,4,0.2199511528159491
5.255,0.02345067901074276,88.79243107822423,0,100,1.0,4,0.22361249659849952
5.26,0.016268788896435526,88.81389846101516,0,100,1.0,4,0.22403759328742884
5.265,0.011039026374860051,88.67099812814219,0,100,1.0,4,0.22120788372558786
5.27,0.007326255555493689,88.36992451308627,0,100,1.0,4,0.21524602996210446
5.275,0.0047556414315231815,87.92355634630057,0,100,1.0,4,0.20640705636238757
5.28,0.0030193390635632803,87.35054249369495,0,100,1.0,4,0.1950602473998999
5.285,0.001874953127946523,86.67401021165833,0,100,1.0,4,0.18166356854768964
5.29,0.0011387927410965778,85.92002012496754,0,100,1.0,4,0.16673307178153537
5.295,0.0006765107634274089,85.11591134258094,0,100,1.0,4,0.15081012559566226
5.3,0.00039307957404427924,84.28868206654177,0,100,1.0,4,0.13442934785231223
5.305,0.00022338910511776318,83.46353675053035,0,100,1.0,4,0.11808983664416539
5.31,0.00012417073320013317,82.66270333596,0,100,1.0,4,0.10223174922693076
5.315,6.750753468904987e-05,81.90458788413636,0,100,1.0,4,0.08721956206210617
5.32,3.5897234866245036e-05,81.20329432496659,0,100,1.0,4,0.07333256089042757
5.325,1.8670050400879738e-05,80.5684992351286,0,100,1.0,4,0.06076236109165541
5.33,9.497421874143672e-06,80.00563985868109,0,100,1.0,4,0.04961663086497214
5.335,4.725434140340885e-06,79.51635092389155,0,100,1.0,4,0.03992774106715943
5.34,2.299606063738814e-06,79.0990735069262,0,100,1.0,4,0.03166482191933075
5.345,1.0945633976635486e-06,78.74975699852942,0,100,1.0,4,0.024747663337216248
5.35,5.095703414287532e-07,78.46258162434901,0,100,1.0,4,0.0190610222643369
5.355,2.3202944964797243e-07,78.23064160050076,0,100,1.0,4,0.014468150504965555
5.36,1.0333746954038608e-07,78.0465451756297,0,100,1.0,4,0.01082267674514263
5.365,4.501406988770349e-08,77.9029049232077,0,100,1.0,4,0.007978315311043564
5.37,0.0,77.792707549016,0,100,1.0,4,0.005796189089425757
5.375,0.0,77.70956565642611,0,100,1.0,4,0.004149814978734806
5.38,0.0,77.64786355410972,0,100,1.0,4,0.0029279911704894867
5.385,0.0,77.60281512541162,0,100,1.0,4,0.0020359430774578983
5.39,0.0,77.57045433470391,0,100,1.0,4,0.0013951353406714971
5.395,0.0,77.54757877616558,0,100,1.0,4,0.0009421539834768215
5.4,0.0,77.5316645744132,0,100,1.0,4,0.0006270212755088895
5.405,0.0,77.5207677230544,0,100,1.0,4,0.00041124204068128704
5.41,0.0,77.51342328935382,0,100,1.0,4,0.00026580770997671236
5.415,0.0,77.50855034936433,0,100,1.0,4,0.00016931384879856045
5.42,0.0,77.50536739563128,0,100,1.0,4,0.00010628506200558573
5.425,0.0,77.50332045956841,0,100,1.0,4,6.575167462205902e-05
5.43,0.0,77.50202435942687,0,100,1.0,4,4.008632528453826e-05
5.435,0.0,77.50121627531419,0,100,1.0,4,2.4084659686974587e-05
5.44,0.0,77.50072016332395,0,100,1.0,4,1.4260659880149135e-05
5.445,0.0,77.50042022796278,0,100,1.0,4,8.321345797576844e-06
5.45,0.0,77.50024165385936,0,100,1.0,4,4.785224937864264e-06
5.455,0.0,77.50013694852625,0,100,1.0,4,2.7118520048958036e-06
5.46,0.0,77.50007648492242,0,100,1.0,4,1.5145529191456019e-06
5.465,0.0,77.50004209680522,0,100,1.0,4,8.336001033035471e-07
5.47,0.0,77.50002283375228,0,100,1.0,4,4.5215351054922745e-07
5.475,0.0,77.50001220563202,0,100,1.0,4,2.416956835243735e-07
5.48,0.001684486749771458,77.5000064298094,0,100,1.0,4,1.2732295847782363e-07
5.485,0.00456624331333666,77.50000333803408,0,100,1.0,4,6.609968468723364e-08
5.49,0.011079731271581421,77.50000170780497,0,100,1.0,4,3.381792018696822e-08
5.495,0.024064571490409,77.50000086107428,0,100,1.0,4,1.7050975918326652e-08
5.5,0.046784906529573234,77.50000042785618,0,100,1.0,4,8.472399582784095e-09
5.505,0.08141644351188804,77.50000020951245,0,100,1.0,4,4.148761387240132e-09
5.51,0.12682276464025305,77.50000010110594,0,100,1.0,4,2.0020978142680844e-09
5.515,0.1768320708657512,77.50000004808376,0,100,1.0,4,9.52153717806519e-10
5.52,0.22070063230473494,77.5000000225359,0,100,1.0,4,4.46255450634174e-10
5.525,0.24656126505113576,77.50000001040894,0,100,1.0,4,2.0611761362605386e-10
5.53,0.24656126505724016,77.50000000473797,0,100,1.0,4,9.38211884420183e-11
5.535,0.220700632329898,77.50000000212536,0,100,1.0,4,4.2086360799027655e-11
5.54,0.17683207093748562,77.50000000093956,0,100,1.0,4,1.8605244957431598e-11
5.545,0.12682276483597799,77.50000000040933,0,100,1.0,4,8.105533845874822e-12
5.55,0.08141644409447898,77.50000000017575,0,100,1.0,4,3.4801116883743206e-12
5.555,0.04678490952598309,77.50000000007437,0,100,1.0,4,1.4725822321713284e-12
5.56,0.024064605020532023,77.50000000003101,0,100,1.0,4,6.140214849221935e-13
5.565,0.011080171739334697,77.50000000001275,0,100,1.0,4,2.5241854810962767e-13
5.57,0.004571212771509492,77.50000000000516,0,100,1.0,4,1.0214931211125401e-13
5.575,0.0017299316936037438,77.50000000000206,0,100,1.0,4,4.080344423176813e-14
5.58,0.0008899431850697582,77.50000000000081,0,100,1.0,4,1.6039974629039884e-14
5.585,0.002128806368910263,77.50000000000031,0,100,1.0,4,6.190867400682061e-15
5.59,0.009309664818487698,77.50000000000011,0,100,1.0,4,2.2512245093389313e-15
5.595,0.03503263543368747,77.50000000000004,0,100,1.0,4,8.442091910020992e-16
5.6,0.10606267793605692,77.50000000000001,0,100,1.0,4,2.814030636673664e-16
5.605,0.25734927343160535,77.5,0,100,1.0,4,0.0
5.61,0.5003202479539708,77.5,0,100,1.0,4,0.0
5.615,0.7793067891790435,77.5,0,100,1.0,4,0.0
5.62,0.9720477407234077,77.500002961856,1,100,1.0,4,5.865061381774638e-08
5.625,0.967267334488097,77.500006041423,0,100,1.0,4,1.1963213873878877e-07
5.63,0.7505869905515209,77.50001328138595,0,100,1.0,4,2.629977415165173e-07
5.635,0.4028369574773956,77.50003283321637,0,100,1.0,4,6.501627003199426e-07
5.64,0.04553881263121314,77.50009198824264,0,100,1.0,4,1.8215493592959877e-06
5.645,-0.189138810908105,77.50028074560149,0,100,1.0,4,5.559318841314602e-06
5.65,-0.22868072635956738,77.50088215537116,0,100,1.0,4,1.7468423191256096e-05
5.655,-0.14104670682394166,77.5027317136506,0,100,1.0,4,5.409333961592487e-05
5.66,-0.051158381651102834,77.50812515206187,0,100,1.0,4,0.00016089410023495125
5.665,-0.008206426846427752,77.52290585167412,0,100,1.0,4,0.0004535812212697967
5.67,0.005350271385530505,77.5607994860294,0,100,1.0,4,0.0012039502184038745
5.675,0.01084668799215426,77.65144697964095,0,100,1.0,4,0.0029989500919000286
5.68,0.016256859896386415,77.85343089561607,0,100,1.0,4,0.00699863159635785
5.685,0.02345021205790711,78.27206809920676,0,100,1.0,4,0.015288477212015105
5.69,0.0330621597308209,79.07802187804528,0,100,1.0,4,0.031247957981094594
5.695,0.04559141319943196,80.51693895137673,0,100,1.0,4,0.05974136537379663
5.7,0.06149084917446989,82.89454088046219,0,100,1.0,4,0.10682259169232054
5.705,0.08111733445924295,86.52074732919208,0,100,1.0,4,0.17862865998400151
5.71,0.1046628598272375,91.60628022891433,0,100,1.0,4,0.2793322817606798
5.715,0.1320831047748631,98.12800786254579,0,100,1.0,4,0.40847540321872844
5.72,0.16303381314489318,105.70840989696592,0,100,1.0,4,0.5585823741973449
5.725,0.19682662652900276,113.57344353324595,0,100,1.0,4,0.7143256145197218
5.73,0.23241585813229,120.64276888442222,0,100,1.0,4,0.8543122551370738
5.735,0.26842527782774417,125.75956336367835,0,100,1.0,4,0.9556349180926407
5.74,0.30321927900592993,128.0,0,100,1.0,4,1.0
5.745,0.3350163137995362,126.95061745029365,0,100,1.0,4,0.9792201475305673
5.75,0.3620352400956416,122.84001560912182,0,100,1.0,4,0.897822091269739
5.755,0.3826586036805073,116.46801010317881,0,100,1.0,4,0.7716437644193824
5.76,0.39559233134833227,108.96296573740314,0,100,1.0,4,0.6230290245030324
5.765,0.4,101.46881286087532,0,100,1.0,4,0.4746299576410954
5.77,0.39559233134833227,94.88053871179497,0,100,1.0,4,0.34416908340188057
5.775,0.3826586036805073,89.70779311233117,0,100,1.0,4,0.24173847747190444
5.78,0.3620352400956416,86.07956026661839,0,100,1.0,4,0.1698922825072948
5.785,0.3350163137995362,83.84687409322002,0,100,1.0,4,0.1256806751132678
5.79,0.3032192790059296,82.7187027867249,0,100,1.0,4,0.10334064924207731
5.795,0.26842527782774417,82.37771688222631,0,100,1.0,4,0.09658845311339226
5.8,0.23241585813229,82.55072048744152,0,100,1.0,4,0.10001426707804997
5.805,0.19682662652900276,83.03453037589074,0,100,1.0,4,0.1095946609087275
5.81,0.16303381314489318,83.69208055632127,0,100,1.0,4,0.12261545656081728
5.815,0.13208310477486307,84.43544696634281,0,100,1.0,4,0.1373355834919368
5.82,0.10466285982723562,85.20760297898806,0,100,1.0,4,0.15262580156412006
5.825,0.08111733445917907,85.96850260217812,0,100,1.0,4,0.1676931208352103
5.83,0.06149084917398798,86.6865931944108,0,100,1.0,4,0.18191273652298623
5.835,0.04559141333598128,87.33469336179016,0,100,1.0,4,0.19474640320376552
5.84,0.03306217087257399,87.88866412777621,0,100,1.0,4,0.20571612134210315
5.845,0.02345067901074276,88.32756689971691,0,100,1.0,4,0.21440726534092897
5.85,0.016268788896435526,88.63444229094094,0,100,1.0,4,0.22048400576120672
5.855,0.011039026374860051,88.7972016808272,0,100,1.0,4,0.22370696397677625
5.86,0.007326255555493689,88.80935150413694,0,100,1.0,4,0.22394755453736517
5.865,0.0047556414315231815,88.67040269484706,0,100,1.0,4,0.22119609296726842
5.87,0.0030193390635632803,88.38589749796584,0,100,1.0,4,0.21556232669239292
5.875,0.001874953127946523,87.96704111602165,0,100,1.0,4,0.20726814091131976
5.88,0.0011387927410965778,87.42996910265714,0,100,1.0,4,0.19663305153776514
5.885,0.0006765107634274089,86.79471636674512,0,100,1.0,4,0.18405378944049744
5.89,0.00039307957404427924,86.08397933237504,0,100,1.0,4,0.16997978875990172
5.895,0.00022338910511776318,85.32177758289465,0,100,1.0,4,0.15488668480979514
5.9,0.00012417073320013317,84.53212429988861,0,100,1.0,4,0.13924998613640807
5.905,6.750753468904987e-05,83.7378064113005,0,100,1.0,4,0.1235209190356534
5.91,3.5897234866245036e-05,82.95935736032456,0,100,1.0,4,0.1081060863430606
5.915,1.8670050400879738e-05,82.21428063285789,0,100,1.0,4,0.09335209173976025
5.92,9.497421874143672e-06,81.51655406697313,0,100,1.0,4,0.0795357240984778
5.925,4.725434140340885e-06,80.8764170164331,0,100,1.0,4,0.06685974289966524
5.93,2.299606063738814e-06,80.30041774319758,0,100,1.0,4,0.05545381669698188
5.935,1.0945633976635486e-06,79.7916792805792,0,100,1.0,4,0.04537978773424164
5.94,5.095703414287532e-07,79.35032975682887,0,100,1.0,4,0.03664019320453208
5.945,2.3202944964797243e-07,78.97403808767992,0,100,1.0,4,0.029188873023364655
5.95,1.0333746954038608e-07,78.65859741440458,0,100,1.0,4,0.022942523057516477
5.955,4.501406988770349e-08,78.39850537991533,0,100,1.0,4,0.01779218574089772
5.96,0.0,78.1875006071592,0,100,1.0,4,0.01361387340909295
5.965,0.0,78.01902678123402,0,100,1.0,4,0.010277758044237983
5.97,0.0,77.8866079019436,0,100,1.0,4,0.007655602018685262
5.975,0.0,77.78412926151917,0,100,1.0,4,0.0056263220102805754
5.98,0.0,77.70602763440992,0,100,1.0,4,0.004079755136830114
5.985,0.0,77.64740060525696,0,100,1.0,4,0.002918823866474497
5.99,0.0,77.604048862077,0,100,1.0,4,0.0020603735064751187
5.995,0.0,77.57246689949535,0,100,1.0,4,0.0014349881088188759
6.0,0.0,77.54979735814472,0,100,1.0,4,0.000986086299895357
6.005,0.0,77.53376270259416,0,100,1.0,4,0.0006685683682011887
6.01,0.0,77.52258563891289,0,100,1.0,4,0.000447240374512603
6.015,0.0,77.51490705436474,0,100,1.0,4,0.0002951891953414091
6.02,0.0,77.50970768257822,0,100,1.0,4,0.00019223133818265054
6.025,0.0,77.50623739972342,0,100,1.0,5,0.000123512865810248
6.03,0.0,77.50395417479393,0,100,1.0,5,7.830049096895945e-05
6.035,0.0,77.50247327511215,0,100,1.0,5,4.8975744795087046e-05
6.04,0.0,77.50152634696913,0,100,1.0,5,3.0224692458002417e-05
6.045,0.0,77.50092939083888,0,100,1.0,5,1.840377898766332e-05
6.05,0.0,77.50055835162344,0,100,1.0,5,1.1056467790881876e-05
6.055,0.0,77.50033096453323,0,100,1.0,5,6.553753133339972e-06
6.06,0.0,77.50019356169078,0,100,1.0,5,3.832904767894361e-06
6.065,0.0,77.50011169188872,0,100,1.0,5,2.2117205686966075e-06
6.07,0.0,77.50006358989972,0,100,1.0,5,1.2592059351395573e-06
6.075,0.0,77.5000357206146,0,100,1.0,5,7.07338903067007e-07
6.08,0.0,77.50001979766552,0,100,1.0,5,3.920329805119349e-07
6.085,0.0,77.50001082613204,0,100,1.0,5,2.1437885228950486e-07
6.09,0.0,77.50000584113084,0,100,1.0,5,1.156659572873173e-07
6.095,0.001684486749771458,77.50000310945893,0,100,1.0,5,6.157344416513495e-08
6.1,0.00456624331333666,77.50000163319106,0,100,1.0,5,3.234041705942254e-08
6.105,0.011079731271581421,77.50000084635671,0,100,1.0,5,1.6759538865618098e-08
6.11,0.024064571490409,77.5000004327471,0,100,1.0,5,8.569249512400364e-09
6.115,0.046784906529573234,77.50000021831278,0,100,1.0,5,4.323025299671295e-09
6.12,0.08141644351188804,77.5000001086647,0,100,1.0,5,2.151776103832757e-09
6.125,0.12682276464025305,77.50000005336567,0,100,1.0,5,1.0567458899134695e-09
6.13,0.1768320708657512,77.50000002585828,0,100,1.0,5,5.120452356950949e-10
6.135,0.22070063230473494,77.50000001236238,0,100,1.0,5,2.447995601608337e-10
6.14,0.24656126505113576,77.50000000583134,0,100,1.0,5,1.154720587575218e-10
6.145,0.24656126505724016,77.50000000271393,0,100,1.0,5,5.374123148693897e-11
6.15,0.220700632329898,77.50000000124622,0,100,1.0,5,2.4677641668309697e-11
6.155,0.17683207093748562,77.50000000056461,0,100,1.0,5,1.1180425122568135e-11
6.16,0.12682276483597799,77.50000000025238,0,100,1.0,5,4.997718410732428e-12
6.165,0.08141644409447898,77.50000000011131,0,100,1.0,5,2.204230197706481e-12
6.17,0.04678490952598309,77.50000000004844,0,100,1.0,5,9.59303044042052e-13
6.175,0.024064605020532023,77.5000000000208,0,100,1.0,5,4.1197408520902444e-13
6.18,0.011080171739334697,77.50000000000881,0,100,1.0,5,1.7446989947376718e-13
6.185,0.004571212771509492,77.50000000000368,0,100,1.0,5,7.28833934898479e-14
6.19,0.0017299316936037438,77.50000000000152,0,100,1.0,5,3.011012781240821e-14
6.195,0.0008899431850697582,77.50000000000061,0,100,1.0,5,1.2100331737696755e-14
6.2,0.002128806368910263,77.50000000000024,0,100,1.0,5,4.783852082345229e-15
6.205,0.009309664818487698,77.5000000000001,0,100,1.0,5,1.969821445671565e-15
6.21,0.03503263543368747,77.50000000000004,0,100,1.0,5,8.442091910020992e-16
6.215,0.10606267793605692,77.50000000000001,0,100,1.0,5,2.814030636673664e-16
6.22,0.25734927343160535,77.5,0,100,1.0,5,0.0
6.225,0.5003202479539708,77.5,0,100,1.0,5,0.0
6.23,0.7793067891790435,77.5,0,100,1.0,5,0.0
6.235,0.9720477407234077,77.5000029761183,1,100,1.0,5,5.8933035560504224e-08
6.24,0.967267334488097,77.50000618532628,0,100,1.0,5,1.2248170861258217e-07
6.245,0.7505869905515209,77.50001392552794,0,100,1.0,5,2.7575302847298647e-07
6.25,0.4028369574773956,77.50003551779191,0,100,1.0,5,7.033226121719882e-07
6.255,0.04553881263121314,77.50010313559092,0,100,1.0,5,2.0422889290915523e-06
6.26,-0.189138810908105,77.50032572609189,0,100,1.0,5,6.450021621528529e-06
6.265,-0.22868072635956738,77.50105352781613,0,100,1.0,5,2.0861936952983477e-05
6.27,-0.14104670682394166,77.50333849843346,0,100,1.0,5,6.610887987058545e-05
6.275,-0.051158381651102834,77.51010867794061,0,100,1.0,5,0.00020017184040806803
6.28,-0.008206426846427752,77.52887923627338,0,100,1.0,5,0.0005718660648194646
6.285,0.005350271385530505,77.57736547743413,0,100,1.0,5,0.0015319896521609532
6.29,0.01084668799215426,77.6937614840257,0,100,1.0,5,0.003836861069815838
6.295,0.016256859896386415,77.95299178483792,0,100,1.0,5,0.008970134353226137
6.3,0.02345021205790711,78.48782060961162,0,100,1.0,5,0.019560804150725097
6.305,0.0330621597308209,79.50840637712494,0,100,1.0,5,0.03977042330940479
6.31,0.04559141319943196,81.30639038119868,0,100,1.0,5,0.07537406695442934
6.315,0.06149084917446989,84.22371682098306,0,100,1.0,5,0.13314290734619916
6.32,0.08111733445924295,88.56905596488694,0,100,1.0,5,0.2191892270274642
6.325,0.1046628598272375,94.48254071967199,0,100,1.0,5,0.3362879350430097
6.33,0.1320831047748631,101.78187771882364,0,100,1.0,5,0.4808292617588839
6.335,0.16303381314489318,109.85607098931862,0,100,1.0,5,0.6407142770162104
6.34,0.19682662652900276,117.68289868067583,0,100,1.0,5,0.7957009639737789
6.345,0.23241585813229,124.01296766753546,0,100,1.0,5,0.9210488647036725
6.35,0.26842527782774417,127.69015041412591,0,100,1.0,5,0.9938643646361566
6.355,0.30321927900592993,128.0,0,100,1.0,5,1.0
6.36,0.3350163137995362,124.90331438199323,0,100,1.0,5,0.9386794927127372
6.365,0.3620352400956416,119.0509908262225,0,100,1.0,5,0.8227918975489604
6.37,0.3826586036805073,111.57334395352093,0,100,1.0,5,0.6747196822479392
6.375,0.39559233134833227,103.73799888891169,0,100,1.0,5,0.5195643344338948
6.38,0.4,96.61848240541384,0,100,1.0,5,0.3785838100081949
6.385,0.39559233134833227,90.88948241854119,0,100,1.0,5,0.265138265713687
6.39,0.3826586036805073,86.7893676493135,0,100,1.0,5,0.18394787424383177
6.395,0.3620352400956416,84.21448228450262,0,100,1.0,5,0.13296004523767568
6.4,0.3350163137995362,82.8706742557033,0,100,1.0,5,0.10634998526145162
6.405,0.3032192790059296,82.41285373443978,0,100,1.0,5,0.09728423236514412
6.41,0.26842527782774417,82.53508919471457,0,100,1.0,5,0.09970473652900144
6.415,0.23241585813229,83.00723630449004,0,100,1.0,5,0.10905418424732743
6.42,0.19682662652900276,83.67399525905368,0,100,1.0,5,0.12225733186244916
6.425,0.16303381314489318,84.43655035035052,0,100,1.0,5,0.13735743268020822
6.43,0.13208310477486307,85.23167363197578,0,100,1.0,5,0.15310244815793625
6.435,0.10466285982723562,86.01556443973125,0,100,1.0,5,0.1686250384105198
6.44,0.08111733445917907,86.75400535564901,0,100,1.0,5,0.18324763080493095
6.445,0.06149084917398798,87.41763420030695,0,100,1.0,5,0.19638879604568216
6.45,0.04559141333598128,87.98046505761806,0,100,1.0,5,0.20753396153699133
6.455,0.03306217087257399,88.42010861624007,0,100,1.0,5,0.2162397745790113
6.46,0.02345067901074276,88.71867720825321,0,100,1.0,5,0.22215202392580616
6.465,0.016268788896435526,88.86378878992376,0,100,1.0,5,0.2250255205925497
6.47,0.011039026374860051,88.84935272165478,0,100,1.0,5,0.22473965785455013
6.475,0.007326255555493689,88.67597412457343,0,100,1.0,5,0.22130641830838474
6.48,0.0047556414315231815,88.3509063891692,0,100,1.0,5,0.21486943344889498
6.485,0.0030193390635632803,87.88754641372572,0,100,1.0,5,0.20569398839060823
6.49,0.001874953127946523,87.30451845386142,0,100,1.0,5,0.19414888027448354
6.495,0.0011387927410965778,86.62443306399382,0,100,1.0,5,0.18068184285136277
6.5,0.0006765107634274089,85.87243609243906,0,100,1.0,5,0.16579081371166454
6.505,0.00039307957404427924,85.07467708397961,0,100,1.0,5,0.1499936056233586
6.51,0.00022338910511776318,84.25682600304509,0,100,1.0,5,0.13379853471376418
6.515,0.00012417073320013317,83.4427529734118,0,100,1.0,5,0.11767827670122376
6.52,6.750753468904987e-05,82.65346049137668,0,100,1.0,5,0.10204872260151836
6.525,3.5897234866245036e-05,81.90632528007868,0,100,1.0,5,0.087253965942152
6.53,1.8670050400879738e-05,81.21467213191562,0,100,1.0,5,0.07355786399832911
6.535,9.497421874143672e-06,80.58766909939999,0,100,1.0,5,0.06114196236435621
6.54,4.725434140340885e-06,80.03050585017243,0,100,1.0,5,0.05010902673608776
6.545,2.299606063738814e-06,79.54479733357823,0,100,1.0,5,0.04049103630847982
6.55,1.0945633976635486e-06,79.12914419384192,0,100,1.0,5,0.03226028106617671
6.555,5.095703414287532e-07,78.77977938473101,0,100,1.0,5,0.025342166034277518
6.56,2.3202944964797243e-07,78.49123590647207,0,100,1.0,5,0.019628433791526147
6.565,1.0333746954038608e-07,78.25698150946495,0,100,1.0,5,0.014989732860692077
6.57,4.501406988770349e-08,78.06998030229119,0,100,1.0,5,0.01128673865923139
6.575,0.0,77.9231562441036,0,100,1.0,5,0.008379331566407817
6.58,0.0,77.80974762879951,0,100,1.0,5,0.006133616411871556
6.585,0.0,77.72355354312545,0,100,1.0,5,0.004426802834167279
6.59,0.0,77.65908215107021,0,100,1.0,5,0.0031501416053506637
6.595,0.0,77.61161631556492,0,100,1.0,5,0.002210224070592399
6.6,0.0,77.5772147447986,0,100,1.0,5,0.0015290048474969466
6.605,0.0,77.55266706642777,0,100,1.0,5,0.001042912206490556
6.61,0.0,77.53541965668042,0,100,1.0,5,0.0007013793402062909
6.615,0.0,77.52348636988228,0,100,1.0,5,0.0004650766313322339
6.62,0.0,77.51535513982303,0,100,1.0,5,0.00030406217471344875
6.625,0.0,77.50989824011825,0,100,1.0,5,0.0001960047548167684
6.63,0.0,77.50629112804937,0,100,1.0,5,0.00012457679305681935
6.635,0.0,77.50394244274653,0,100,1.0,5,7.80681731987105e-05
6.64,0.0,77.50243595126653,0,100,1.0,5,4.8236658743251e-05
6.645,0.0,77.50148401443865,0,100,1.0,5,2.9386424527632303e-05
6.65,0.0,77.50089140278692,0,100,1.0,5,1.7651540335041004e-05
6.655,0.0,77.50052792980212,0,100,1.0,5,1.045405548748337e-05
6.66,0.0,77.50030827953894,0,100,1.0,5,6.104545325579148e-06
6.665,0.0,77.50017749231459,0,100,1.0,5,3.5146992988441947e-06
6.67,0.0,77.5001007582777,0,100,1.0,5,1.995213419730693e-06
6.675,0.0,77.50005639599301,0,100,1.0,5,1.1167523368975266e-06
6.68,0.0,77.50003112304574,0,100,1.0,5,6.162979355277718e-07
6.685,0.0,77.5000169348855,0,100,1.0,5,3.35344267206424e-07
6.69,0.0,77.50000908549865,0,100,1.0,5,1.7991086429217397e-07
6.695,0.001684486749771458,77.50000480597605,0,100,1.0,5,9.516784252179542e-08
6.7,0.00456624331333666,77.50000250657536,0,100,1.0,5,4.963515556762041e-08
6.705,0.011079731271581421,77.50000128898024,0,100,1.0,5,2.5524361256042774e-08
6.71,0.024064571490409,77.5000006535489,0,100,1.0,5,1.2941562277269936e-08
6.715,0.046784906529573234,77.5000003267204,0,100,1.0,5,6.469710822082309e-09
6.72,0.08141644351188804,77.50000016104258,0,100,1.0,5,3.1889619481937712e-09
6.725,0.12682276464025305,77.50000007826571,0,100,1.0,5,1.5498161170254738e-09
6.73,0.1768320708657512,77.50000003750323,0,100,1.0,5,7.426381621866816e-10
6.735,0.22070063230473494,77.50000001771872,0,100,1.0,5,3.508657215152738e-10
6.74,0.24656126505113576,77.50000000825395,0,100,1.0,5,1.6344452743927976e-10
6.745,0.24656126505724016,77.50000000379104,0,100,1.0,5,7.5070176697607e-11
6.75,0.220700632329898,77.5000000017168,0,100,1.0,5,3.399602271859087e-11
6.755,0.17683207093748562,77.50000000076656,0,100,1.0,5,1.517944406034508e-11
6.76,0.12682276483597799,77.50000000033748,0,100,1.0,5,6.682759955972617e-12
6.765,0.08141644409447898,77.50000000014649,0,100,1.0,5,2.900702780283213e-12
6.77,0.04678490952598309,77.5000000000627,0,100,1.0,5,1.2415503169004206e-12
6.775,0.024064605020532023,77.50000000002646,0,100,1.0,5,5.239725045486363e-13
6.78,0.011080171739334697,77.50000000001101,0,100,1.0,5,2.1808737434220896e-13
6.785,0.004571212771509492,77.50000000000452,0,100,1.0,5,8.948617424622252e-14
6.79,0.0017299316936037438,77.50000000000182,0,100,1.0,5,3.60195921494229e-14
6.795,0.0008899431850697582,77.50000000000072,0,100,1.0,5,1.4351556247035687e-14
6.8,0.002128806368910263,77.50000000000028,0,100,1.0,5,5.6280612733473285e-15
6.805,0.009309664818487698,77.50000000000011,0,100,1.0,5,2.2512245093389313e-15
6.81,0.03503263543368747,77.50000000000004,0,100,1.0,5,8.442091910020992e-16
6.815,0.10606267793605692,77.50000000000001,0,100,1.0,5,2.814030636673664e-16
6.82,0.25734927343160535,77.5,0,100,1.0,5,0.0
6.825,0.5003202479539708,77.5,0,100,1.0,5,0.0
6.83,0.7793067891790435,77.5,0,100,1.0,5,0.0
6.835,0.9720477407234077,77.50000295860458,1,100,1.0,5,5.8586229359585414e-08
6.84,0.967267334488097,77.50000607194025,0,100,1.0,5,1.2023644056189188e-07
6.845,0.7505869905515209,77.50001345273148,0,100,1.0,5,2.663907223742883e-07
6.85,0.4028369574773956,77.5000335974731,0,100,1.0,5,6.65296497145121e-07
6.855,0.04553881263121314,77.5000952391376,0,100,1.0,5,1.8859235166978084e-06
6.86,-0.189138810908105,77.50029396174413,0,100,1.0,5,5.821024636320949e-06
6.865,-0.22868072635956738,77.50093256649718,0,100,1.0,5,1.8466663310573943e-05
6.87,-0.14104670682394166,77.5029100232732,0,100,1.0,5,5.762422323172278e-05
6.875,-0.051158381651102834,77.50870714352278,0,100,1.0,5,0.00017241868361948757
6.88,-0.008206426846427752,77.5246562773498,0,100,1.0,5,0.00048824311583773423
6.885,0.005350271385530505,77.56565066778992,0,100,1.0,5,0.0013000132235628605
6.89,0.01084668799215426,77.66383990810884,0,100,1.0,5,0.0032443546160166505
6.895,0.016256859896386415,77.88262038992832,0,100,1.0,5,0.007576641384719209
6.9,0.02345021205790711,78.33545183145863,0,100,1.0,5,0.016543600622943112
6.905,0.0330621597308209,79.20484989603223,0,100,1.0,5,0.03375940388182632
6.91,0.04559141319943196,80.75054676642503,0,100,1.0,5,0.06436726270148578
6.915,0.06149084917446989,83.28992906835192,0,100,1.0,5,0.11465206075944404
6.92,0.08111733445924295,87.13394030962314,0,100,1.0,5,0.19077109524006222
6.925,0.1046628598272375,92.47378991953458,0,100,1.0,5,0.2965106914759323
6.93,0.1320831047748631,99.23955414039685,0,100,1.0,5,0.43048622060191777
6.935,0.16303381314489318,106.98246625036123,0,100,1.0,5,0.5838112128784402
6.94,0.19682662652900276,114.8494723141842,0,100,1.0,5,0.7395935111719643
6.945,0.23241585813229,121.70177762100317,0,100,1.0,5,0.8752827251683797
6.95,0.26842527782774417,126.37413972136399,0,100,1.0,5,0.9678047469577027
6.955,0.30321927900592993,128.0,0,100,1.0,5,1.0
6.96,0.3350163137995362,126.27952255457706,0,100,1.0,5,0.9659311396945952
6.965,0.3620352400956416,121.57753056726469,0,100,1.0,5,0.8728223874705879
6.97,0.3826586036805073,114.80819134861454,0,100,1.0,5,0.7387760663091989
6.975,0.39559233134833227,107.1570555269131,0,100,1.0,5,0.5872684262755069
6.98,0.4,99.75682326894582,0,100,1.0,5,0.44072917364249153
6.985,0.39559233134833227,93.437628290086,0,100,1.0,5,0.3155965998036831
6.99,0.3826586036805073,88.6210265304858,0,100,1.0,5,0.2202183471383328
6.995,0.3620352400956416,85.35521064557099,0,100,1.0,5,0.15554872565487113
7.0,0.3350163137995362,83.43676931776182,0,100,1.0,5,0.11755978847053099
7.005,0.3032192790059296,82.55078966163666,0,100,1.0,5,0.1000156368640922
7.01,0.26842527782774417,82.37990978446584,0,100,1.0,5,0.0966318769201156
7.015,0.23241585813229,82.66385053700031,0,100,1.0,5,0.10225446607921415
7.02,0.19682662652900276,83.21572546574443,0,100,1.0,5,0.11318268248998865
7.025,0.16303381314489318,83.91239791841033,0,100,1.0,5,0.12697817660218486
7.03,0.13208310477486307,84.67546318988141,0,100,1.0,5,0.14208837999765173
7.035,0.10466285982723562,85.45331282711224,0,100,1.0,5,0.1574913431111335
7.04,0.08111733445917907,86.20847512306442,0,100,1.0,5,0.17244505194186965
7.045,0.06149084917398798,86.91043201717129,0,100,1.0,5,0.1863451884588374
7.05,0.04559141333598128,87.53247338289246,0,100,1.0,5,0.19866283926519726
7.055,0.03306217087257399,88.0509704560115,0,100,1.0,5,0.20893010803983164
7.06,0.02345067901074276,88.44584531855038,0,100,1.0,5,0.21674941224852243
7.065,0.016268788896435526,88.70146811501344,0,100,1.0,5,0.22181124980224634
7.07,0.011039026374860051,88.80754517288817,0,100,1.0,5,0.2239117856017459
7.075,0.007326255555493689,88.75976200907462,0,100,1.0,5,0.22296558433811128
7.08,0.0047556414315231815,88.56006114259078,0,100,1.0,5,0.21901111173447094
7.085,0.0030193390635632803,88.21650740561338,0,100,1.0,5,0.2122080674378888
7.09,0.001874953127946523,87.74274663539316,0,100,1.0,5,0.20282666604738933
7.095,0.0011387927410965778,87.15710631316468,0,100,1.0,5,0.19122982798345892
7.1,0.0006765107634274089,86.48142019658886,0,100,1.0,5,0.17784990488294766
7.105,0.00039307957404427924,85.73968176817759,0,100,1.0,5,0.16316201521143742
7.11,0.00022338910511776318,84.95664182706211,0,100,1.0,5,0.14765627380321017
7.115,0.00012417073320013317,84.15646337911748,0,100,1.0,5,0.13181115602212837
7.12,6.750753468904987e-05,83.36153323734182,0,100,1.0,5,0.11606996509587757
7.125,3.5897234866245036e-05,82.59150690834363,0,100,1.0,5,0.10082191897710163
7.13,1.8670050400879738e-05,81.86263483969579,0,100,1.0,5,0.08638880870684726
7.135,9.497421874143672e-06,81.18738775969096,0,100,1.0,5,0.07301757939982106
7.14,4.725434140340885e-06,80.57437030471705,0,100,1.0,5,0.06087861989538713
7.145,2.299606063738814e-06,80.02848839135753,0,100,1.0,5,0.0500690770565847
7.15,1.0945633976635486e-06,79.55131885537037,0,100,1.0,5,0.040620175353868686
7.155,5.095703414287532e-07,79.14162062723075,0,100,1.0,5,0.03250733915308417
7.16,2.3202944964797243e-07,78.79592494440962,0,100,1.0,5,0.025661880087319212
7.165,1.0333746954038608e-07,78.50914673365939,0,100,1.0,5,0.019983103636819648
7.17,4.501406988770349e-08,78.2751686651716,0,100,1.0,5,0.015349874557853577
7.175,0.0,78.08736155817212,0,100,1.0,5,0.01163092194400237
7.18,0.0,77.93901792246764,0,100,1.0,5,0.008693424207280032
7.185,0.0,77.82368785280029,0,100,1.0,5,0.0064096604514908995
7.19,0.0,77.73541708275205,0,100,1.0,5,0.004661724410931694
7.195,0.0,77.66889506741865,0,100,1.0,5,0.0033444567805672436
7.2,0.0,77.61952627338034,0,100,1.0,5,0.0023668568986206853
7.205,0.0,77.583440560487,0,100,1.0,5,0.0016522883264753596
7.21,0.0,77.55745905335685,0,100,1.0,5,0.0011378030367693284
7.215,0.0,77.53903077198105,0,100,1.0,5,0.0007728865738821098
7.22,0.0,77.52615310372167,0,100,1.0,5,0.0005178832420132368
7.225,0.0,77.51728648731061,0,100,1.0,5,0.00034230667941809016
7.23,0.0,77.51127087641395,0,100,1.0,6,0.00022318567156327782
7.235,0.0,77.50724896569103,0,100,1.0,6,0.0001435438750699704
7.24,0.0,77.50459898318086,0,100,1.0,6,9.10689738783267e-05
7.245,0.0,77.50287816056776,0,100,1.0,6,5.699327856952082e-05
7.25,0.0,77.50177678810005,0,100,1.0,6,3.518392277317274e-05
7.255,0.0,77.50108199106754,0,100,1.0,6,2.1425565693793897e-05
7.26,0.0,77.5006499487824,0,100,1.0,6,1.2870272918730328e-05
7.265,0.0,77.50038512526845,0,100,1.0,6,7.626242939628661e-06
7.27,0.0,77.50022510871771,0,100,1.0,6,4.457598370580323e-06
7.275,0.0,77.5001297926306,0,100,1.0,6,2.5701511010358426e-06
7.28,0.0,77.50007382019291,0,100,1.0,6,1.4617859982094934e-06
7.285,0.0,77.50004141596045,0,100,1.0,6,8.201180287752583e-07
7.29,0.0,77.50002292069169,0,100,1.0,6,4.5387508299598373e-07
7.295,0.0,77.50001251281783,0,100,1.0,6,2.477785709414651e-07
7.3,0.0,77.50000673829383,0,100,1.0,6,1.334315610696793e-07
7.305,0.001684486749771458,77.50000357941612,0,100,1.0,6,7.087952705732466e-08
7.31,0.00456624331333666,77.50000187560704,0,100,1.0,6,3.714073347221682e-08
7.315,0.011079731271581421,77.50000096948018,0,100,1.0,6,1.919762739096696e-08
7.32,0.024064571490409,77.5000004943146,0,100,1.0,6,9.788408024718646e-09
7.325,0.046784906529573234,77.5000002486196,0,100,1.0,6,4.923160387610695e-09
7.33,0.08141644351188804,77.50000012334874,0,100,1.0,6,2.442549326714119e-09
7.335,0.12682276464025305,77.50000006036726,0,100,1.0,6,1.1953912095609352e-09
7.34,0.1768320708657512,77.5000000291431,0,100,1.0,6,5.770909910556793e-10
7.345,0.22070063230473494,77.50000001387833,0,100,1.0,6,2.748185133806137e-10
7.35,0.24656126505113576,77.50000000651939,0,100,1.0,6,1.290967508911047e-10
7.355,0.24656126505724016,77.50000000302094,0,100,1.0,6,5.982066327440875e-11
7.36,0.220700632329898,77.50000000138085,0,100,1.0,6,2.7343654293494327e-11
7.365,0.17683207093748562,77.5000000006226,0,100,1.0,6,1.2328831025394658e-11
7.37,0.12682276483597799,77.50000000027693,0,100,1.0,6,5.4837015016859696e-12
7.375,0.08141644409447898,77.50000000012149,0,100,1.0,6,2.4057147912923155e-12
7.38,0.04678490952598309,77.50000000005258,0,100,1.0,6,1.0411913355692557e-12
7.385,0.024064605020532023,77.50000000002245,0,100,1.0,6,4.446168405944389e-13
7.39,0.011080171739334697,77.50000000000945,0,100,1.0,6,1.8713303733879865e-13
7.395,0.004571212771509492,77.50000000000392,0,100,1.0,6,7.766724557219314e-14
7.4,0.0017299316936037438,77.5000000000016,0,100,1.0,6,3.179854619441241e-14
7.405,0.0008899431850697582,77.50000000000065,0,100,1.0,6,1.2944540928698855e-14
7.41,0.002128806368910263,77.50000000000026,0,100,1.0,6,5.065255146012595e-15
7.415,0.009309664818487698,77.5000000000001,0,100,1.0,6,1.969821445671565e-15
7.42,0.03503263543368747,77.50000000000004,0,100,1.0,6,8.442091910020992e-16
7.425,0.10606267793605692,77.50000000000001,0,100,1.0,6,2.814030636673664e-16
7.43,0.25734927343160535,77.5,0,100,1.0,6,0.0
7.435,0.5003202479539708,77.5,0,100,1.0,6,0.0
7.44,0.7793067891790435,77.5,0,100,1.0,6,0.0
7.445,0.9720477407234077,77.5000029632167,1,100,1.0,6,5.867755844249559e-08
7.45,0.967267334488097,77.50000632443192,0,100,1.0,6,1.252362756864692e-07
7.455,0.7505869905515209,77.50001473324576,0,100,1.0,6,2.917474408505849e-07
7.46,0.4028369574773956,77.50003930345265,0,100,1.0,6,7.782861911378535e-07
7.465,0.04553881263121314,77.50012007178523,0,100,1.0,6,2.37765911352014e-06
7.47,-0.189138810908105,77.50039768906025,0,100,1.0,6,7.875030896043021e-06
7.475,-0.22868072635956738,77.50133813309903,0,100,1.0,6,2.6497685129220596e-05
7.48,-0.14104670682394166,77.50437429970992,0,100,1.0,6,8.661979623609861e-05
7.485,-0.051158381651102834,77.51356283545961,0,100,1.0,6,0.0002685709992001851
7.49,-0.008206426846427752,77.539423280672,0,100,1.0,6,0.0007806590232078606
7.495,0.005350271385530505,77.60683292766095,0,100,1.0,6,0.0021155035180385365
7.5,0.01084668799215426,77.7691843879838,0,100,1.0,6,0.005330383920471266
7.505,0.016256859896386415,78.1298195737859,0,100,1.0,6,0.012471674728433559
7.51,0.02345021205790711,78.8674564682652,0,100,1.0,6,0.027078345906241648
7.515,0.0330621597308209,80.25416185836706,0,100,1.0,6,0.05453785858152585
7.52,0.04559141319943196,82.64472323642266,0,100,1.0,6,0.10187570765193393
7.525,0.06149084917446989,86.41224109374863,0,100,1.0,6,0.17648002165838877
7.53,0.08111733445924295,91.81665598492147,0,100,1.0,6,0.2834981383152766
7.535,0.1046628598272375,98.826395638257,0,100,1.0,6,0.42230486412390095
7.54,0.1320831047748631,106.95895384922622,0,100,1.0,6,0.5833456207767568
7.545,0.16303381314489318,115.23602411394728,0,100,1.0,6,0.7472480022563818
7.55,0.19682662652900276,122.32971667135199,0,100,1.0,6,0.8877171618089502
7.555,0.23241585813229,126.89775582948093,0,100,1.0,6,0.9781733827619986
7.56,0.26842527782774417,128.0,0,100,1.0,6,1.0
7.565,0.30321927900592993,125.42125272540896,0,100,1.0,6,0.9489356975328508
7.57,0.3350163137995362,119.74965133212939,0,100,1.0,6,0.8366267590520671
7.575,0.3620352400956416,112.17257946470455,0,100,1.0,6,0.6865857319743476
7.58,0.3826586036805073,104.08785511981466,0,100,1.0,6,0.5264921805903894
7.585,0.39559233134833227,96.70488803956961,0,100,1.0,6,0.38029481266474474
7.59,0.4,90.78889417401182,0,100,1.0,6,0.2631464192873627
7.595,0.39559233134833227,86.60772759605685,0,100,1.0,6,0.18035104150607617
7.6,0.3826586036805073,84.04089578195409,0,100,1.0,6,0.12952268875156617
7.605,0.3620352400956416,82.75786879881116,0,100,1.0,6,0.10411621383784475
7.61,0.3350163137995362,82.37959366821764,0,100,1.0,6,0.09662561719242846
7.615,0.3032192790059296,82.57856812118584,0,100,1.0,6,0.1005657053700166
7.62,0.26842527782774417,83.11531036543767,0,100,1.0,6,0.11119426466213198
7.625,0.23241585813229,83.83263983129649,0,100,1.0,6,0.12539880854052454
7.63,0.19682662652900276,84.63250912217958,0,100,1.0,6,0.14123780439959574
7.635,0.16303381314489318,85.45226040314074,0,100,1.0,6,0.1574705030324899
7.64,0.13208310477486307,86.2475629773933,0,100,1.0,6,0.1732190688592733
7.645,0.10466285982723562,86.98281595132833,0,100,1.0,6,0.18777853368966999
7.65,0.08111733445917907,87.62707318852279,0,100,1.0,6,0.20053610274302547
7.655,0.06149084917398798,88.15320332098976,0,100,1.0,6,0.21095452120771804
7.66,0.04559141333598128,88.5385782151131,0,100,1.0,6,0.21858570722996248
7.665,0.03306217087257399,88.76624892522591,0,100,1.0,6,0.22309403812328532
7.67,0.02345067901074276,88.82603771663241,0,100,1.0,6,0.22427797458678045
7.675,0.016268788896435526,88.71524935893723,0,100,1.0,6,0.22208414572152926
7.68,0.011039026374860051,88.43886075670979,0,100,1.0,6,0.2166111040932631
7.685,0.007326255555493689,88.00914720955005,0,100,1.0,6,0.20810192494158516
7.69,0.0047556414315231815,87.44477763798974,0,100,1.0,6,0.19692628986118307
7.695,0.0030193390635632803,86.76946988444872,0,100,1.0,6,0.18355385909799454
7.7,0.001874953127946523,86.0103405328122,0,100,1.0,6,0.16852159470915234
7.705,0.0011387927410965778,85.1961087935566,0,100,1.0,6,0.15239819393181395
7.71,0.0006765107634274089,84.35531914558466,0,100,1.0,6,0.13574889397197343
7.715,0.00039307957404427924,83.51473332893123,0,100,1.0,6,0.11910363027586592
7.72,0.00022338910511776318,82.69801221580293,0,100,1.0,6,0.10293093496639472
7.725,0.00012417073320013317,81.92476728085217,0,100,1.0,6,0.08761915407628051
7.73,6.750753468904987e-05,81.2100160794701,0,100,1.0,6,0.07346566494000187
7.735,3.5897234866245036e-05,80.56403251225963,0,100,1.0,6,0.06067391113385405
7.74,1.8670050400879738e-05,79.99254590939884,0,100,1.0,6,0.04935734474057114
7.745,9.497421874143672e-06,79.49721667177356,0,100,1.0,6,0.039548844985615
7.75,4.725434140340885e-06,79.07630197143015,0,100,1.0,6,0.031213900424359505
7.755,2.299606063738814e-06,78.72542256815419,0,100,1.0,6,0.024265793428795777
7.76,1.0945633976635486e-06,78.43834933264405,0,100,1.0,6,0.018581174903842604
7.765,5.095703414287532e-07,78.20774277436361,0,100,1.0,6,0.01401470840323979
7.77,2.3202944964797243e-07,78.02579755035103,0,100,1.0,6,0.010411832680218405
7.775,1.0333746954038608e-07,77.88476352268945,0,100,1.0,6,0.007619079657216909
7.78,4.501406988770349e-08,77.77733293361308,0,100,1.0,6,0.005491741259664978
7.785,0.0,77.69689796089891,0,100,1.0,6,0.0038989695227506687
7.79,0.0,77.63769342762592,0,100,1.0,6,0.0027266025272459243
7.795,0.0,77.59484565128201,0,100,1.0,6,0.0018781317085547404
7.8,0.0,77.56435078582085,0,100,1.0,6,0.0012742729865514734
7.805,0.0,77.54300535190977,0,100,1.0,6,0.0008515911269261333
7.81,0.0,77.52830892491497,0,100,1.0,6,0.0005605727705934027
7.815,0.0,77.5183550878223,0,100,1.0,6,0.0003634670855901034
7.82,0.0,77.51172254143796,0,100,1.0,6,0.0002321295334249863
7.825,0.0,77.50737427460564,0,100,1.0,6,0.00014602523971560832
7.83,0.0,77.50456929349846,0,100,1.0,6,9.04810593755032e-05
7.835,0.0,77.5027887592473,0,100,1.0,6,5.522295539198113e-05
7.84,0.0,77.50167650638357,0,100,1.0,6,3.319814620940318e-05
7.845,0.0,77.50099273108047,0,100,1.0,6,1.9658041197479378e-05
7.85,0.0,77.50057901557518,0,100,1.0,6,1.1465654954136962e-05
7.855,0.0,77.50033264507117,0,100,1.0,6,6.587031112242738e-06
7.86,0.0,77.50018823663869,0,100,1.0,6,3.727458191926218e-06
7.865,0.0,77.50010492028098,0,100,1.0,6,2.0776293262437016e-06
7.87,0.0,77.50005760324511,0,100,1.0,6,1.1406583190242906e-06
7.875,0.0,77.50003115061858,0,100,1.0,6,6.168439323245015e-07
7.88,0.0,77.50001659275955,0,100,1.0,6,3.285694960465149e-07
7.885,0.001684486749771458,77.5000087056817,0,100,1.0,6,1.7238973650999488e-07
7.89,0.00456624331333666,77.50000449903288,0,100,1.0,6,8.908976006201592e-08
7.895,0.011079731271581421,77.50000229017026,0,100,1.0,6,4.5349906096618887e-08
7.9,0.024064571490409,77.5000011482821,0,100,1.0,6,2.2738259310631967e-08
7.905,0.046784906529573234,77.50000056710259,0,100,1.0,6,1.1229754235419834e-08
7.91,0.08141644351188804,77.50000027587154,0,100,1.0,6,5.4628028217596484e-09
7.915,0.12682276464025305,77.50000013218568,0,100,1.0,6,2.617538133437289e-09
7.92,0.1768320708657512,77.500000062387,0,100,1.0,6,1.235386182790787e-09
7.925,0.22070063230473494,77.50000002900254,0,100,1.0,6,5.743076333529454e-10
7.93,0.24656126505113576,77.50000001328037,0,100,1.0,6,2.629776352676183e-10
7.935,0.24656126505724016,77.50000000598986,0,100,1.0,6,1.1861110993273127e-10
7.94,0.220700632329898,77.50000000266107,0,100,1.0,6,5.2694412090096365e-11
7.945,0.17683207093748562,77.50000000116447,0,100,1.0,6,2.3058729843031337e-11
7.95,0.12682276483597799,77.50000000050191,0,100,1.0,6,9.938874805667714e-12
7.955,0.08141644409447898,77.50000000021309,0,100,1.0,6,4.219638939692159e-12
7.96,0.04678490952598309,77.50000000008912,0,100,1.0,6,1.7646786122580548e-12
7.965,0.024064605020532023,77.5000000000367,0,100,1.0,6,7.268641134528074e-13
7.97,0.011080171739334697,77.5000000000149,0,100,1.0,6,2.949104107234e-13
7.975,0.004571212771509492,77.50000000000595,0,100,1.0,6,1.1790788367662653e-13
7.98,0.0017299316936037438,77.50000000000234,0,100,1.0,6,4.6431505505115455e-14
7.985,0.0008899431850697582,77.50000000000091,0,100,1.0,6,1.800979607471145e-14
7.99,0.002128806368910263,77.50000000000034,0,100,1.0,6,6.7536735280167935e-15
7.995,0.009309664818487698,77.50000000000013,0,100,1.0,6,2.5326275730062976e-15
8.0,0.03503263543368747,77.50000000000004,0,100,1.0,6,8.442091910020992e-16
8.005,0.10606267793605692,77.50000000000001,0,100,1.0,6,2.814030636673664e-16
8.01,0.25734927343160535,77.5,0,100,1.0,6,0.0
8.015,0.5003202479539708,77.5,0,100,1.0,6,0.0
8.02,0.7793067891790435,77.5,0,100,1.0,6,0.0
8.025,0.9720477407234077,77.50000297947125,1,100,1.0,6,5.8999430643555095e-08
8.03,0.967267334488097,77.50000669548267,0,100,1.0,6,1.3258381520497303e-07
8.035,0.7505869905515209,77.50001668432624,0,100,1.0,6,3.303826978332503e-07
8.04,0.4028369574773956,77.50004864066203,0,100,1.0,6,9.63181426330644e-07
8.045,0.04553881263121314,77.5001638762621,0,100,1.0,6,3.245074497168515e-06
8.05,-0.189138810908105,77.50059305601808,0,100,1.0,6,1.1743683526253451e-05
8.055,-0.22868072635956738,77.50214361864761,0,100,1.0,6,4.244789401204033e-05
8.06,-0.14104670682394166,77.50740440946578,0,100,1.0,6,0.0001466219696193647
8.065,-0.051158381651102834,77.52391675045838,0,100,1.0,6,0.0004735990189778864
8.07,-0.008206426846427752,77.5715281770081,0,100,1.0,6,0.001416399544714948
8.075,0.005350271385530505,77.69717852300056,0,100,1.0,6,0.003904525207931869
8.08,0.01084668799215426,77.99996608244125,0,100,1.0,6,0.009900318464183116
8.085,0.016256859896386415,78.66488444994854,0,100,1.0,6,0.023067018810862275
8.09,0.02345021205790711,79.99269205274055,0,100,1.0,6,0.04936023866812973
8.095,0.0330621597308209,82.39762966193258,0,100,1.0,6,0.09698276558282344
8.1,0.04559141319943196,86.33439214585457,0,100,1.0,6,0.17493845833375377
8.105,0.06149084917446989,92.12891580999748,0,100,1.0,6,0.2896815011880689
8.11,0.08111733445924295,99.73729946877143,0,100,1.0,6,0.44034256373804803
8.115,0.1046628598272375,108.53063759966085,0,100,1.0,6,0.6144680712804128
8.12,0.1320831047748631,117.25196435735869,0,100,1.0,6,0.7871676110368057
8.125,0.16303381314489318,124.25521878140476,0,100,1.0,6,0.9258459164634607
8.13,0.19682662652900276,128.0,0,100,1.0,6,1.0
8.135,0.23241585813229,127.60821013993106,0,100,1.0,6,0.99224178494913
8.14,0.26842527782774417,123.21009401234988,0,100,1.0,6,0.9051503764821759
8.145,0.30321927900592993,115.89514598451852,0,100,1.0,6,0.7602999204855153
8.15,0.3350163137995362,107.29447867544081,0,100,1.0,6,0.5899896767414022
8.155,0.3620352400956416,99.01424251870807,0,100,1.0,6,0.42602460433085293
8.16,0.3826586036805073,92.18796047940592,0,100,1.0,6,0.2908507025624934
8.165,0.39559233134833227,87.30619325917266,0,100,1.0,6,0.19418204473609224
8.17,0.4,84.31153753264881,0,100,1.0,6,0.13488193133958046
8.175,0.39559233134833227,82.8311073691211,0,100,1.0,6,0.10556648255685346
8.18,0.3826586036805073,82.40599310593515,0,100,1.0,6,0.09714837833534956
8.185,0.3620352400956416,82.63713816175672,0,100,1.0,6,0.10172550815359849
8.19,0.3350163137995362,83.23817846509434,0,100,1.0,6,0.1136272963385017
8.195,0.3032192790059296,84.02691167312304,0,100,1.0,6,0.1292457757054067
8.2,0.26842527782774417,84.89307467702398,0,100,1.0,6,0.1463975183569104
8.205,0.23241585813229,85.76705880776896,0,100,1.0,6,0.16370413480730617
8.21,0.19682662652900276,86.59894936510275,0,100,1.0,6,0.1801772151505496
8.215,0.16303381314489318,87.34785757910886,0,100,1.0,6,0.1950070807744329
8.22,0.13208310477486307,87.97819166628076,0,100,1.0,6,0.20748894388674782
8.225,0.10466285982723562,88.45958304429135,0,100,1.0,6,0.2170214464216109
8.23,0.08111733445917907,88.76826866188912,0,100,1.0,6,0.22313403290869552
8.235,0.06149084917398798,88.88869777488769,0,100,1.0,6,0.22551876781955818
8.24,0.04559141333598128,88.8147323001406,0,100,1.0,6,0.22405410495327932
8.245,0.03306217087257399,88.55013959537686,0,100,1.0,6,0.21881464545300716
8.25,0.02345067901074276,88.1082683696946,0,100,1.0,6,0.21006472019197225
8.255,0.016268788896435526,87.51093131541633,0,100,1.0,6,0.19823626367161049
8.26,0.011039026374860051,86.78662085692815,0,100,1.0,6,0.18389348231540897
8.265,0.007326255555493689,85.96826028051984,0,100,1.0,6,0.16768832238653153
8.27,0.0047556414315231815,85.09073675815792,0,100,1.0,6,0.1503116189734241
8.275,0.0030193390635632803,84.18847199298509,0,100,1.0,6,0.1324449899601007
8.28,0.001874953127946523,83.29326166418531,0,100,1.0,6,0.11471805275614473
8.285,0.0011387927410965778,82.4325628331511,0,100,1.0,6,0.09767451154754644
8.29,0.0006765107634274089,81.6283390472271,0,100,1.0,6,0.08174928806390298
8.295,0.00039307957404427924,80.89649780311149,0,100,1.0,6,0.06725738223983142
8.3,0.00022338910511776318,80.24688557285587,0,100,1.0,6,0.05439377371991829
8.305,0.00012417073320013317,79.68375065546115,0,100,1.0,6,0.04324258723685453
8.31,6.750753468904987e-05,79.2065490600829,0,100,1.0,6,0.03379305069471102
8.315,3.5897234866245036e-05,78.81095491810038,0,100,1.0,6,0.02595950332872037
8.32,1.8670050400879738e-05,78.48994253721577,0,100,1.0,6,0.019602822519124118
8.325,9.497421874143672e-06,78.23482760765253,0,100,1.0,6,0.014551041735693738
8.33,4.725434140340885e-06,78.03618442262216,0,100,1.0,6,0.010617513319250621
8.335,2.299606063738814e-06,77.88458839065662,0,100,1.0,6,0.007615611696170638
8.34,1.0945633976635486e-06,77.77116360414196,0,100,1.0,6,0.005369576319642791
8.345,5.095703414287532e-07,77.68794028219736,0,100,1.0,6,0.0037215897464823746
8.35,2.3202944964797243e-07,77.62804469831093,0,100,1.0,6,0.0025355385804144556
8.355,1.0333746954038608e-07,77.58575443254034,0,100,1.0,6,0.001698107575056257
8.36,4.501406988770349e-08,77.55645531088335,0,100,1.0,6,0.0011179269481851636
8.365,0.0,77.5365347616806,0,100,1.0,6,0.0007234606273385961
8.37,0.0,77.52324133142528,0,100,1.0,6,0.00046022438465905734
8.375,0.0,77.51453345862433,0,100,1.0,6,0.00028779125988768274
8.38,0.0,77.508933676106,0,100,1.0,6,0.00017690447734647176
8.385,0.0,77.50539814662669,0,100,1.0,6,0.00010689399260770349
8.39,0.0,77.50320636087476,0,100,1.0,6,6.349229454963054e-05
8.395,0.0,77.50187211866701,0,100,1.0,6,3.707165677245948e-05
8.4,0.0,77.50107450291127,0,100,1.0,6,2.1277285371594854e-05
8.405,0.0,77.50060622671245,0,100,1.0,6,1.2004489355428569e-05
8.41,0.0,77.50033621399805,0,100,1.0,6,6.6577029317591265e-06
8.415,0.0,77.50018329463894,0,100,1.0,6,3.6295968107757594e-06
8.42,0.0,77.50009822838055,0,100,1.0,6,1.9451164465602115e-06
8.425,0.0,77.50005174607993,0,100,1.0,6,1.0246748501577884e-06
8.43,0.001684486749771458,77.50002679607444,0,100,1.0,6,5.30615335379696e-07
8.435,0.00456624331333666,77.50001364011858,0,100,1.0,7,2.701013580454036e-07
8.44,0.011079731271581421,77.50000682524689,0,100,1.0,7,1.3515340366337672e-07
8.445,0.024064571490409,77.50000335715842,0,100,1.0,7,6.647838454858237e-08
8.45,0.046784906529573234,77.50000162322436,0,100,1.0,7,3.214305670913781e-08
8.455,0.08141644351188804,77.5000007715046,0,100,1.0,7,1.5277318859919224e-08
8.46,0.12682276464025305,77.50000036045557,0,100,1.0,7,7.1377341177283975e-09
8.465,0.1768320708657512,77.50000016554581,0,100,1.0,7,3.2781349208301317e-09
8.47,0.22070063230473494,77.50000007473739,0,100,1.0,7,1.4799482387658855e-09
8.475,0.24656126505113576,77.50000003316735,0,100,1.0,7,6.567792734311315e-10
8.48,0.24656126505724016,77.50000001446895,0,100,1.0,7,2.8651390610969314e-10
8.485,0.220700632329898,77.50000000620464,0,100,1.0,7,1.2286423583699984e-10
8.49,0.17683207093748562,77.50000000261547,0,100,1.0,7,5.179138965878779e-11
8.495,0.12682276483597799,77.50000000108376,0,100,1.0,7,2.1460641844464365e-11
8.5,0.08141644409447898,77.50000000044145,0,100,1.0,7,8.74150476976307e-12
8.505,0.04678490952598309,77.50000000017675,0,100,1.0,7,3.5000913058947033e-12
8.51,0.024064605020532023,77.50000000006956,0,100,1.0,7,1.3774679966517585e-12
8.515,0.011080171739334697,77.50000000002692,0,100,1.0,7,5.32977402585992e-13
8.52,0.004571212771509492,77.50000000001023,0,100,1.0,7,2.0261020584050382e-13
8.525,0.0017299316936037438,77.50000000000382,0,100,1.0,7,7.569742412652157e-14
8.53,0.0008899431850697582,77.5000000000014,0,100,1.0,7,2.7858903303069274e-14
8.535,0.002128806368910263,77.50000000000051,0,100,1.0,7,1.013051029202519e-14
8.54,0.009309664818487698,77.50000000000018,0,100,1.0,7,3.6582398276757634e-15
8.545,0.03503263543368747,77.50000000000006,0,100,1.0,7,1.1256122546694657e-15
8.55,0.10606267793605692,77.50000000000001,0,100,1.0,7,2.814030636673664e-16
8.555,0.25734927343160535,77.5,0,100,1.0,7,0.0
8.56,0.5003202479539708,77.5,0,100,1.0,7,0.0
8.565,0.7793067891790435,77.5,0,100,1.0,7,0.0
