Time,ECG,Pressure,R_Peaks,mean_hr,hrv_scale,Phase_Bin,Normalized_Pressure
0.0,0.001684486749771458,77.5,0,100,1.0,0,0.0
0.005,0.00456624331333666,77.5,0,100,1.0,0,0.0
0.01,0.011079731271581421,77.5,0,100,1.0,0,0.0
0.015,0.024064571490409,77.5,0,100,1.0,0,0.0
0.02,0.046784906529573234,77.5,0,100,1.0,0,0.0
0.025,0.08141644351188804,77.5,0,100,1.0,0,0.0
0.03,0.12682276464025305,77.5,0,100,1.0,0,0.0
0.035,0.1768320708657512,77.5,0,100,1.0,0,0.0
0.04,0.22070063230473494,77.5,0,100,1.0,0,0.0
0.045,0.24656126505113576,77.5,0,100,1.0,0,0.0
0.05,0.24656126505724016,77.5,0,100,1.0,0,0.0
0.055,0.220700632329898,77.5,0,100,1.0,0,0.0
0.06,0.17683207093748562,77.5,0,100,1.0,0,0.0
0.065,0.12682276483597799,77.5,0,100,1.0,0,0.0
0.07,0.08141644409447898,77.5,0,100,1.0,0,0.0
0.075,0.04678490952598309,77.5,0,100,1.0,0,0.0
0.08,0.024064605020532023,77.5,0,100,1.0,0,0.0
0.085,0.011080171739334697,77.5,0,100,1.0,0,0.0
0.09,0.004571212771509492,77.5,0,100,1.0,0,0.0
0.095,0.0017299316936037438,77.5,0,100,1.0,0,0.0
0.1,0.0008899431850697582,77.5,0,100,1.0,0,0.0
0.105,0.002128806368910263,77.5,0,100,1.0,0,0.0
0.11,0.009309664818487698,77.5,0,100,1.0,0,0.0
0.115,0.03503263543368747,77.5,0,100,1.0,0,0.0
0.12,0.10606267793605692,77.5,0,100,1.0,0,0.0
0.125,0.25734927343160535,77.5,0,100,1.0,0,0.0
0.13,0.5003202479539708,77.5,0,100,1.0,0,0.0
0.135,0.7793067891790435,77.5,0,100,1.0,0,0.0
0.14,0.9720477407234077,77.5,0,100,1.0,0,0.0
0.145,0.967267334488097,77.5,0,100,1.0,0,0.0
0.15,0.7505869905515209,77.5,0,100,1.0,0,0.0
0.155,0.4028369574773956,77.5,0,100,1.0,0,0.0
0.16,0.04553881263121314,77.5,0,100,1.0,0,0.0
0.165,-0.189138810908105,77.5,0,100,1.0,0,0.0
0.17,-0.22868072635956738,77.5,0,100,1.0,0,0.0
0.175,-0.14104670682394166,77.5,0,100,1.0,0,0.0
0.18,-0.051158381651102834,77.5,0,100,1.0,0,0.0
0.185,-0.008206426846427752,77.5,0,100,1.0,0,0.0
0.19,0.005350271385530505,77.5,0,100,1.0,0,0.0
0.195,0.01084668799215426,77.5,0,100,1.0,0,0.0
0.2,0.016256859896386415,77.5,0,100,1.0,0,0.0
0.205,0.02345021205790711,77.5,0,100,1.0,0,0.0
0.21,0.0330621597308209,77.5,0,100,1.0,0,0.0
0.215,0.04559141319943196,77.5,0,100,1.0,0,0.0
0.22,0.06149084917446989,77.5,0,100,1.0,0,0.0
0.225,0.08111733445924295,77.5,0,100,1.0,0,0.0
0.23,0.1046628598272375,77.5,0,100,1.0,0,0.0
0.235,0.1320831047748631,77.5,0,100,1.0,0,0.0
0.24,0.16303381314489318,77.5,0,100,1.0,0,0.0
0.245,0.19682662652900276,77.5,0,100,1.0,0,0.0
0.25,0.23241585813229,77.5,0,100,1.0,0,0.0
0.255,0.26842527782774417,77.5,0,100,1.0,0,0.0
0.26,0.30321927900592993,77.5,0,100,1.0,0,0.0
0.265,0.3350163137995362,77.5,0,100,1.0,0,0.0
0.27,0.3620352400956416,77.5,0,100,1.0,0,0.0
0.275,0.3826586036805073,77.5,0,100,1.0,0,0.0
0.28,0.39559233134833227,77.5,0,100,1.0,0,0.0
0.285,0.4,77.5,0,100,1.0,0,0.0
0.29,0.39559233134833227,77.5,0,100,1.0,0,0.0
0.295,0.3826586036805073,77.5,0,100,1.0,0,0.0
0.3,0.3620352400956416,77.5,0,100,1.0,0,0.0
0.305,0.3350163137995362,77.5,0,100,1.0,0,0.0
0.31,0.3032192790059296,77.5,0,100,1.0,0,0.0
0.315,0.26842527782774417,77.5,0,100,1.0,0,0.0
0.32,0.23241585813229,77.5,0,100,1.0,0,0.0
0.325,0.19682662652900276,77.5,0,100,1.0,0,0.0
0.33,0.16303381314489318,77.5,0,100,1.0,0,0.0
0.335,0.13208310477486307,77.5,0,100,1.0,0,0.0
0.34,0.10466285982723562,77.5,0,100,1.0,0,0.0
0.345,0.08111733445917907,77.5,0,100,1.0,0,0.0
0.35,0.06149084917398798,77.5,0,100,1.0,0,0.0
0.355,0.04559141333598128,77.5,0,100,1.0,0,0.0
0.36,0.03306217087257399,77.5,0,100,1.0,0,0.0
0.365,0.02345067901074276,77.5,0,100,1.0,0,0.0
0.37,0.016268788896435526,77.5,0,100,1.0,0,0.0
0.375,0.011039026374860051,77.5,0,100,1.0,0,0.0
0.38,0.007326255555493689,77.5,0,100,1.0,0,0.0
0.385,0.0047556414315231815,77.5,0,100,1.0,0,0.0
0.39,0.0030193390635632803,77.5,0,100,1.0,0,0.0
0.395,0.001874953127946523,77.5,0,100,1.0,0,0.0
0.4,0.0011387927410965778,77.5,0,100,1.0,0,0.0
0.405,0.0006765107634274089,77.5,0,100,1.0,0,0.0
0.41,0.00039307957404427924,77.5,0,100,1.0,0,0.0
0.415,0.00022338910511776318,77.5,0,100,1.0,0,0.0
0.42,0.00012417073320013317,77.5,0,100,1.0,0,0.0
0.425,6.750753468904987e-05,77.5,0,100,1.0,0,0.0
0.43,3.5897234866245036e-05,77.5,0,100,1.0,0,0.0
0.435,1.8670050400879738e-05,77.5,0,100,1.0,0,0.0
0.44,9.497421874143672e-06,77.5,0,100,1.0,0,0.0
0.445,4.725434140340885e-06,77.5,0,100,1.0,0,0.0
0.45,2.299606063738814e-06,77.5,0,100,1.0,0,0.0
0.455,1.0945633976635486e-06,77.5,0,100,1.0,0,0.0
0.46,5.095703414287532e-07,77.5,0,100,1.0,0,0.0
0.465,2.3202944964797243e-07,77.5,0,100,1.0,0,0.0
0.47,1.0333746954038608e-07,77.5,0,100,1.0,0,0.0
0.475,4.501406988770349e-08,77.5,0,100,1.0,0,0.0
0.48,0.0,77.5,0,100,1.0,0,0.0
0.485,0.0,77.5,0,100,1.0,0,0.0
0.49,0.0,77.5,0,100,1.0,0,0.0
0.495,0.0,77.5,0,100,1.0,0,0.0
0.5,0.0,77.5,0,100,1.0,0,0.0
0.505,0.0,77.5,0,100,1.0,0,0.0
0.51,0.0,77.5,0,100,1.0,0,0.0
0.515,0.0,77.5,0,100,1.0,0,0.0
0.52,0.0,77.5,0,100,1.0,0,0.0
0.525,0.0,77.5,0,100,1.0,0,0.0
0.53,0.0,77.5,0,100,1.0,0,0.0
0.535,0.0,77.5,0,100,1.0,0,0.0
0.54,0.0,77.5,0,100,1.0,0,0.0
0.545,0.0,77.5,0,100,1.0,0,0.0
0.55,0.0,77.5,0,100,1.0,0,0.0
0.555,0.0,77.5,0,100,1.0,0,0.0
0.56,0.0,77.5,0,100,1.0,0,0.0
0.565,0.0,77.5,0,100,1.0,0,0.0
0.57,0.0,77.5,0,100,1.0,0,0.0
0.575,0.0,77.5,0,100,1.0,0,0.0
0.58,0.001684486749771458,77.5,0,100,1.0,0,0.0
0.585,0.00456624331333666,77.5,0,100,1.0,0,0.0
0.59,0.011079731271581421,77.5,0,100,1.0,0,0.0
0.595,0.024064571490409,77.5,0,100,1.0,0,0.0
0.6,0.046784906529573234,77.5,0,100,1.0,0,0.0
0.605,0.08141644351188804,77.5,0,100,1.0,0,0.0
0.61,0.12682276464025305,77.5,0,100,1.0,0,0.0
0.615,0.1768320708657512,77.5,0,100,1.0,0,0.0
0.62,0.22070063230473494,77.5,0,100,1.0,0,0.0
0.625,0.24656126505113576,77.5,0,100,1.0,0,0.0
0.63,0.24656126505724016,77.5,0,100,1.0,0,0.0
0.635,0.220700632329898,77.5,0,100,1.0,0,0.0
0.64,0.17683207093748562,77.5,0,100,1.0,0,0.0
0.645,0.12682276483597799,77.5,0,100,1.0,0,0.0
0.65,0.08141644409447898,77.5,0,100,1.0,0,0.0
0.655,0.04678490952598309,77.5,0,100,1.0,0,0.0
0.66,0.024064605020532023,77.5,0,100,1.0,0,0.0
0.665,0.011080171739334697,77.5,0,100,1.0,0,0.0
0.67,0.004571212771509492,77.5,0,100,1.0,0,0.0
0.675,0.0017299316936037438,77.5,0,100,1.0,0,0.0
0.68,0.0008899431850697582,77.5,0,100,1.0,0,0.0
0.685,0.002128806368910263,77.5,0,100,1.0,0,0.0
0.69,0.009309664818487698,77.5,0,100,1.0,0,0.0
0.695,0.03503263543368747,77.5,0,100,1.0,0,0.0
0.7,0.10606267793605692,77.5,0,100,1.0,0,0.0
0.705,0.25734927343160535,77.5,0,100,1.0,0,0.0
0.71,0.5003202479539708,77.5,0,100,1.0,0,0.0
0.715,0.7793067891790435,77.5,0,100,1.0,0,0.0
0.72,0.9720477407234077,77.50000295860458,1,100,1.0,0,5.8586229359585414e-08
0.725,0.967267334488097,77.50000607194025,0,100,1.0,0,1.2023644056189188e-07
0.73,0.7505869905515209,77.50001345273148,0,100,1.0,0,2.663907223742883e-07
0.735,0.4028369574773956,77.5000335974731,0,100,1.0,0,6.65296497145121e-07
0.74,0.04553881263121314,77.5000952391376,0,100,1.0,0,1.8859235166978084e-06
0.745,-0.189138810908105,77.50029396174413,0,100,1.0,0,5.821024636320949e-06
0.75,-0.22868072635956738,77.50093256649718,0,100,1.0,0,1.8466663310573943e-05
0.755,-0.14104670682394166,77.5029100232732,0,100,1.0,0,5.762422323172278e-05
0.76,-0.051158381651102834,77.50870714352278,0,100,1.0,0,0.00017241868361948757
0.765,-0.008206426846427752,77.5246562773498,0,100,1.0,0,0.00048824311583773423
0.77,0.005350271385530505,77.56565066778992,0,100,1.0,0,0.0013000132235628605
0.775,0.01084668799215426,77.66383990810884,0,100,1.0,0,0.0032443546160166505
0.78,0.016256859896386415,77.88262038992832,0,100,1.0,0,0.007576641384719209
0.785,0.02345021205790711,78.33545183145863,0,100,1.0,0,0.016543600622943112
0.79,0.0330621597308209,79.20484989603223,0,100,1.0,0,0.03375940388182632
0.795,0.04559141319943196,80.75054676642503,0,100,1.0,0,0.06436726270148578
0.8,0.06149084917446989,83.28992906835192,0,100,1.0,0,0.11465206075944404
0.805,0.08111733445924295,87.13394030962314,0,100,1.0,0,0.19077109524006222
0.81,0.1046628598272375,92.47378991953458,0,100,1.0,0,0.2965106914759323
0.815,0.1320831047748631,99.23955414039685,0,100,1.0,0,0.43048622060191777
0.82,0.16303381314489318,106.98246625036123,0,100,1.0,0,0.5838112128784402
0.825,0.19682662652900276,114.8494723141842,0,100,1.0,0,0.7395935111719643
0.83,0.23241585813229,121.70177762100317,0,100,1.0,0,0.8752827251683797
0.835,0.26842527782774417,126.37413972136399,0,100,1.0,0,0.9678047469577027
0.84,0.30321927900592993,128.0,0,100,1.0,0,1.0
0.845,0.3350163137995362,126.27952255457706,0,100,1.0,0,0.9659311396945952
0.85,0.3620352400956416,121.57753056726469,0,100,1.0,0,0.8728223874705879
0.855,0.3826586036805073,114.80819134861454,0,100,1.0,0,0.7387760663091989
0.86,0.39559233134833227,107.1570555269131,0,100,1.0,0,0.5872684262755069
0.865,0.4,99.75682326894582,0,100,1.0,0,0.44072917364249153
0.87,0.39559233134833227,93.437628290086,0,100,1.0,0,0.3155965998036831
0.875,0.3826586036805073,88.6210265304858,0,100,1.0,0,0.2202183471383328
0.88,0.3620352400956416,85.35521064557099,0,100,1.0,0,0.15554872565487113
0.885,0.3350163137995362,83.43676931776182,0,100,1.0,0,0.11755978847053099
0.89,0.3032192790059296,82.55078966163666,0,100,1.0,0,0.1000156368640922
0.895,0.26842527782774417,82.37990978446584,0,100,1.0,0,0.0966318769201156
0.9,0.23241585813229,82.66385053700031,0,100,1.0,0,0.10225446607921415
0.905,0.19682662652900276,83.21572546574443,0,100,1.0,0,0.11318268248998865
0.91,0.16303381314489318,83.91239791841033,0,100,1.0,0,0.12697817660218486
0.915,0.13208310477486307,84.67546318988141,0,100,1.0,0,0.14208837999765173
0.92,0.10466285982723562,85.45331282711224,0,100,1.0,0,0.1574913431111335
0.925,0.08111733445917907,86.20847512306442,0,100,1.0,0,0.17244505194186965
0.93,0.06149084917398798,86.91043201717129,0,100,1.0,0,0.1863451884588374
0.935,0.04559141333598128,87.53247338289246,0,100,1.0,0,0.19866283926519726
0.94,0.03306217087257399,88.0509704560115,0,100,1.0,0,0.20893010803983164
0.945,0.02345067901074276,88.44584531855038,0,100,1.0,0,0.21674941224852243
0.95,0.016268788896435526,88.70146811501344,0,100,1.0,0,0.22181124980224634
0.955,0.011039026374860051,88.80754517288817,0,100,1.0,0,0.2239117856017459
0.96,0.007326255555493689,88.75976200907462,0,100,1.0,0,0.22296558433811128
0.965,0.0047556414315231815,88.56006114259078,0,100,1.0,0,0.21901111173447094
0.97,0.0030193390635632803,88.21650740561338,0,100,1.0,0,0.2122080674378888
0.975,0.001874953127946523,87.74274663539316,0,100,1.0,0,0.20282666604738933
0.98,0.0011387927410965778,87.15710631316468,0,100,1.0,0,0.19122982798345892
0.985,0.0006765107634274089,86.48142019658886,0,100,1.0,0,0.17784990488294766
0.99,0.00039307957404427924,85.73968176817759,0,100,1.0,0,0.16316201521143742
0.995,0.00022338910511776318,84.95664182706211,0,100,1.0,0,0.14765627380321017
1.0,0.00012417073320013317,84.15646337911748,0,100,1.0,0,0.13181115602212837
1.005,6.750753468904987e-05,83.36153323734182,0,100,1.0,0,0.11606996509587757
1.01,3.5897234866245036e-05,82.59150690834363,0,100,1.0,0,0.10082191897710163
1.015,1.8670050400879738e-05,81.86263483969579,0,100,1.0,0,0.08638880870684726
1.02,9.497421874143672e-06,81.18738775969096,0,100,1.0,0,0.07301757939982106
1.025,4.725434140340885e-06,80.57437030471705,0,100,1.0,0,0.06087861989538713
1.03,2.299606063738814e-06,80.02848839135753,0,100,1.0,0,0.0500690770565847
1.035,1.0945633976635486e-06,79.55131885537037,0,100,1.0,0,0.040620175353868686
1.04,5.095703414287532e-07,79.14162062723075,0,100,1.0,0,0.03250733915308417
1.045,2.3202944964797243e-07,78.79592494440962,0,100,1.0,0,0.025661880087319212
1.05,1.0333746954038608e-07,78.50914673365939,0,100,1.0,0,0.019983103636819648
1.055,4.501406988770349e-08,78.2751686651716,0,100,1.0,0,0.015349874557853577
1.06,0.0,78.08736155817212,0,100,1.0,0,0.01163092194400237
1.065,0.0,77.93901792246764,0,100,1.0,0,0.008693424207280032
1.07,0.0,77.82368785280029,0,100,1.0,0,0.0064096604514908995
1.075,0.0,77.73541708275205,0,100,1.0,0,0.004661724410931694
1.08,0.0,77.66889506741865,0,100,1.0,0,0.0033444567805672436
1.085,0.0,77.61952627338034,0,100,1.0,0,0.0023668568986206853
1.09,0.0,77.583440560487,0,100,1.0,0,0.0016522883264753596
1.095,0.0,77.55745905335685,0,100,1.0,0,0.0011378030367693284
1.1,0.0,77.53903077198105,0,100,1.0,0,0.0007728865738821098
1.105,0.0,77.52615310372167,0,100,1.0,0,0.0005178832420132368
1.11,0.0,77.51728648731061,0,100,1.0,0,0.00034230667941809016
1.115,0.0,77.51127087641395,0,100,1.0,0,0.00022318567156327782
1.12,0.0,77.50724896569103,0,100,1.0,0,0.0001435438750699704
1.125,0.0,77.50459898318086,0,100,1.0,0,9.10689738783267e-05
1.13,0.0,77.50287816056776,0,100,1.0,0,5.699327856952082e-05
1.135,0.0,77.50177678810005,0,100,1.0,0,3.518392277317274e-05
1.14,0.0,77.50108199106754,0,100,1.0,0,2.1425565693793897e-05
1.145,0.0,77.5006499487824,0,100,1.0,0,1.2870272918730328e-05
1.15,0.0,77.50038512526845,0,100,1.0,0,7.626242939628661e-06
1.155,0.0,77.50022510871771,0,100,1.0,0,4.457598370580323e-06
1.16,0.0,77.5001297926306,0,100,1.0,0,2.5701511010358426e-06
1.165,0.0,77.50007382019291,0,100,1.0,0,1.4617859982094934e-06
1.17,0.0,77.50004141596045,0,100,1.0,0,8.201180287752583e-07
1.175,0.0,77.50002292069169,0,100,1.0,0,4.5387508299598373e-07
1.18,0.0,77.50001251281783,0,100,1.0,0,2.477785709414651e-07
1.185,0.0,77.50000673829383,0,100,1.0,0,1.334315610696793e-07
1.19,0.001684486749771458,77.50000357941612,0,100,1.0,0,7.087952705732466e-08
1.195,0.00456624331333666,77.50000187560704,0,100,1.0,0,3.714073347221682e-08
1.2,0.011079731271581421,77.50000096948018,0,100,1.0,0,1.919762739096696e-08
1.205,0.024064571490409,77.5000004943146,0,100,1.0,1,9.788408024718646e-09
1.21,0.046784906529573234,77.5000002486196,0,100,1.0,1,4.923160387610695e-09
1.215,0.08141644351188804,77.50000012334874,0,100,1.0,1,2.442549326714119e-09
1.22,0.12682276464025305,77.50000006036726,0,100,1.0,1,1.1953912095609352e-09
1.225,0.1768320708657512,77.5000000291431,0,100,1.0,1,5.770909910556793e-10
1.23,0.22070063230473494,77.50000001387833,0,100,1.0,1,2.748185133806137e-10
1.235,0.24656126505113576,77.50000000651939,0,100,1.0,1,1.290967508911047e-10
1.24,0.24656126505724016,77.50000000302094,0,100,1.0,1,5.982066327440875e-11
1.245,0.220700632329898,77.50000000138085,0,100,1.0,1,2.7343654293494327e-11
1.25,0.17683207093748562,77.5000000006226,0,100,1.0,1,1.2328831025394658e-11
1.255,0.12682276483597799,77.50000000027693,0,100,1.0,1,5.4837015016859696e-12
1.26,0.08141644409447898,77.50000000012149,0,100,1.0,1,2.4057147912923155e-12
1.265,0.04678490952598309,77.50000000005258,0,100,1.0,1,1.0411913355692557e-12
1.27,0.024064605020532023,77.50000000002245,0,100,1.0,1,4.446168405944389e-13
1.275,0.011080171739334697,77.50000000000945,0,100,1.0,1,1.8713303733879865e-13
1.28,0.004571212771509492,77.50000000000392,0,100,1.0,1,7.766724557219314e-14
1.285,0.0017299316936037438,77.5000000000016,0,100,1.0,1,3.179854619441241e-14
1.29,0.0008899431850697582,77.50000000000065,0,100,1.0,1,1.2944540928698855e-14
1.295,0.002128806368910263,77.50000000000026,0,100,1.0,1,5.065255146012595e-15
1.3,0.009309664818487698,77.5000000000001,0,100,1.0,1,1.969821445671565e-15
1.305,0.03503263543368747,77.50000000000004,0,100,1.0,1,8.442091910020992e-16
1.31,0.10606267793605692,77.50000000000001,0,100,1.0,1,2.814030636673664e-16
1.315,0.25734927343160535,77.5,0,100,1.0,1,0.0
1.32,0.5003202479539708,77.5,0,100,1.0,1,0.0
1.325,0.7793067891790435,77.5,0,100,1.0,1,0.0
1.33,0.9720477407234077,77.5000029768749,1,100,1.0,1,5.8948017741016935e-08
1.335,0.967267334488097,77.50000639791868,0,100,1.0,1,1.2669145904861705e-07
1.34,0.7505869905515209,77.50001503914727,0,100,1.0,1,2.978048964657976e-07
1.345,0.4028369574773956,77.5000405977313,0,100,1.0,1,8.039154712749602e-07
1.35,0.04553881263121314,77.50012568133535,0,100,1.0,1,2.488739313818796e-06
1.355,-0.189138810908105,77.50042139469598,0,100,1.0,1,8.344449425278683e-06
1.36,-0.22868072635956738,77.50143220973679,0,100,1.0,1,2.8360588847345023e-05
1.365,-0.14104670682394166,77.5047186192955,0,100,1.0,1,9.343800585153338e-05
1.37,-0.051158381651102834,77.51471703980556,0,100,1.0,1,0.0002914265308031825
1.375,-0.008206426846427752,77.54295938552251,0,100,1.0,1,0.0008506809014357997
1.38,0.005350271385530505,77.6167303530177,0,100,1.0,1,0.002311492138964373
1.385,0.01084668799215426,77.79449447378158,0,100,1.0,1,0.005831573738249171
1.39,0.016256859896386415,78.1889498680611,0,100,1.0,1,0.013642571644774282
1.395,0.02345021205790711,78.9936054602403,0,100,1.0,1,0.029576345747332738
1.4,0.0330621597308209,80.4996856165681,0,100,1.0,1,0.059399715179566354
1.405,0.04559141319943196,83.07993103850617,0,100,1.0,1,0.11049368393081534
1.41,0.06149084917446989,87.11287313371587,0,100,1.0,1,0.19035392343991814
1.415,0.08111733445924295,92.83655963825184,0,100,1.0,1,0.3036942502624127
1.42,0.1046628598272375,100.1592760486476,0,100,1.0,1,0.44869853561678413
1.425,0.1320831047748631,108.50359714416015,0,100,1.0,1,0.6139326167160426
1.43,0.16303381314489318,116.78654847688122,0,100,1.0,1,0.777951454987747
1.435,0.19682662652900276,123.60821001847575,0,100,1.0,1,0.913033861751995
1.44,0.23241585813229,127.62847233815549,0,100,1.0,1,0.9926430165971384
1.445,0.26842527782774417,128.0,0,100,1.0,1,1.0
1.45,0.30321927900592993,124.66760400991004,0,100,1.0,1,0.934011960592278
1.455,0.3350163137995362,118.39038146372059,0,100,1.0,1,0.8097105240340711
1.46,0.3620352400956416,110.47562935409675,0,100,1.0,1,0.6529827594870644
1.465,0.3826586036805073,102.35298204453142,0,100,1.0,1,0.4921382583075528
1.47,0.39559233134833227,95.17874322086946,0,100,1.0,1,0.35007412318553394
1.475,0.4,89.61569511522995,0,100,1.0,1,0.23991475475702878
1.48,0.39559233134833227,85.82517009686714,0,100,1.0,1,0.16485485340330971
1.485,0.3826586036805073,83.6090618349903,0,100,1.0,1,0.12097152148495643
1.49,0.3620352400956416,82.59933730320935,0,100,1.0,1,0.1009769763011753
1.495,0.3350163137995362,82.41268319594003,0,100,1.0,1,0.09728085536514917
1.5,0.3032192790059296,82.73585255051967,0,100,1.0,1,0.10368024852514192
1.505,0.26842527782774417,83.34863649182353,0,100,1.0,1,0.11581458399650547
1.51,0.23241585813229,84.11012510513392,0,100,1.0,1,0.1308935664382954
1.515,0.19682662652900276,84.93289016428321,0,100,1.0,1,0.14718594384719225
1.52,0.16303381314489318,85.75985479737454,0,100,1.0,1,0.1635614811361296
1.525,0.13208310477486307,86.54900938892803,0,100,1.0,1,0.17918830473124805
1.53,0.10466285982723562,87.2655137876512,0,100,1.0,1,0.19337651064655845
1.535,0.08111733445917907,87.87880541393756,0,100,1.0,1,0.2055208992858922
1.54,0.06149084917398798,88.36243221298648,0,100,1.0,1,0.21509766758389062
1.545,0.04559141333598128,88.69504827525046,0,100,1.0,1,0.2216841242623853
1.55,0.03306217087257399,88.86166481029888,0,100,1.0,1,0.22498346159007676
1.555,0.02345067901074276,88.85467214111144,0,100,1.0,1,0.22484499289329576
1.56,0.016268788896435526,88.67438787319062,0,100,1.0,1,0.22127500738991338
1.565,0.011039026374860051,88.32902560186928,0,100,1.0,1,0.21443615053206486
1.57,0.007326255555493689,87.834072636083,0,100,1.0,1,0.20463510170461374
1.575,0.0047556414315231815,87.21113807884366,0,100,1.0,1,0.19229976393749823
1.58,0.0030193390635632803,86.48638950473932,0,100,1.0,1,0.177948307024541
1.585,0.001874953127946523,85.68873539894074,0,100,1.0,1,0.16215317621664824
1.59,0.0011387927410965778,84.84792859716677,0,100,1.0,1,0.14550353657755982
1.595,0.0006765107634274089,83.99276234682259,0,100,1.0,1,0.12856955142222945
1.6,0.00039307957404427924,83.14950732513329,0,100,1.0,1,0.11187143218085714
1.605,0.00022338910511776318,82.34069963296807,0,100,1.0,1,0.0958554382765954
1.61,0.00012417073320013317,81.58434279250736,0,100,1.0,1,0.08087807509915558
1.615,6.750753468904987e-05,80.89353805575186,0,100,1.0,1,0.06719877338122497
1.62,3.5897234866245036e-05,80.27651326693037,0,100,1.0,1,0.05498046073129437
1.625,1.8670050400879738e-05,79.73698603104926,0,100,1.0,1,0.04429675309008427
1.63,9.497421874143672e-06,79.27477491320202,0,100,1.0,1,0.03514405768716877
1.635,4.725434140340885e-06,78.88656355336967,0,100,1.0,1,0.027456704027122157
1.64,2.299606063738814e-06,78.56672572691414,0,100,1.0,1,0.02112328172107214
1.645,1.0945633976635486e-06,78.30813189638289,0,100,1.0,1,0.01600261180956216
1.65,5.095703414287532e-07,78.10287630828009,0,100,1.0,1,0.011938144718417582
1.655,2.3202944964797243e-07,77.94288469900617,0,100,1.0,1,0.008769994039726167
1.66,1.0333746954038608e-07,77.82038311916784,0,100,1.0,1,0.0063442201815414505
1.665,4.501406988770349e-08,77.72822597134211,0,100,1.0,1,0.004519326165190349
1.67,0.0,77.66009471412842,0,100,1.0,1,0.0031701923589786034
1.675,0.0,77.61058733996865,0,100,1.0,1,0.0021898483162108096
1.68,0.0,77.57522294299544,0,100,1.0,1,0.0014895632276324417
1.685,0.0,77.55038621312866,0,100,1.0,1,0.0009977467946269503
1.69,0.0,77.53323453510313,0,100,1.0,1,0.0006581096060026449
1.695,0.0,77.52158658720883,0,100,1.0,1,0.0004274571724520814
1.7,0.0,77.51380685790998,0,100,1.0,1,0.0002734031269303704
1.705,0.0,77.5086960537223,0,100,1.0,1,0.0001721990836099709
1.71,0.0,77.50539344261945,0,100,1.0,1,0.00010680084394950859
1.715,0.0,77.50329402128571,0,100,1.0,1,6.522814427151136e-05
1.72,0.0,77.50198108554771,0,100,1.0,1,3.922941678637255e-05
1.725,0.0,77.50117326616962,0,100,1.0,1,2.323299345773806e-05
1.73,0.0,77.50068423668777,0,100,1.0,1,1.3549241342076076e-05
1.735,0.0,77.5003929458036,0,100,1.0,1,7.781105021721677e-06
1.74,0.0,77.50022221606024,0,100,1.0,1,4.400318024499038e-06
1.745,0.0,77.5001237470122,0,100,1.0,1,2.4504358850775826e-06
1.75,0.0,77.5000678594742,0,100,1.0,1,1.3437519643534554e-06
1.755,0.0,77.50003664398938,0,100,1.0,1,7.256235519862727e-07
1.76,0.0,77.50001948549742,0,100,1.0,1,3.858514340249307e-07
1.765,0.001684486749771458,77.50001020320788,0,100,1.0,1,2.0204372036811162e-07
1.77,0.00456624331333666,77.50000526112309,0,100,1.0,1,1.0418065530171985e-07
1.775,0.011079731271581421,77.50000267138621,0,100,1.0,1,5.289873688480379e-08
1.78,0.024064571490409,77.50000133570758,0,100,1.0,1,2.6449655051422243e-08
1.785,0.046784906529573234,77.50000065766176,0,100,1.0,1,1.3023005107747354e-08
1.79,0.08141644351188804,77.5000003188675,0,100,1.0,1,6.3142080519058494e-09
1.795,0.12682276464025305,77.500000152242,0,100,1.0,1,3.0146929705074623e-09
1.8,0.1768320708657512,77.50000007157726,0,100,1.0,1,1.4173715138859185e-09
1.805,0.22070063230473494,77.50000003313846,0,100,1.0,1,6.562071810026957e-10
1.81,0.24656126505113576,77.50000001510796,0,100,1.0,1,2.991674762705599e-10
1.815,0.24656126505724016,77.5000000067826,0,100,1.0,1,1.3430889843635165e-10
1.82,0.220700632329898,77.50000000299849,0,100,1.0,1,5.937604643381431e-11
1.825,0.17683207093748562,77.50000000130535,0,100,1.0,1,2.584855981622961e-11
1.83,0.12682276483597799,77.50000000055958,0,100,1.0,1,1.1080808438029887e-11
1.835,0.08141644409447898,77.50000000023623,0,100,1.0,1,4.677763127342632e-12
1.84,0.04678490952598309,77.5000000000982,0,100,1.0,1,1.944495169941502e-12
1.845,0.024064605020532023,77.50000000004019,0,100,1.0,1,7.958078640513122e-13
1.85,0.011080171739334697,77.5000000000162,0,100,1.0,1,3.207994925807977e-13
1.855,0.004571212771509492,77.50000000000644,0,100,1.0,1,1.27475587841317e-13
1.86,0.0017299316936037438,77.50000000000252,0,100,1.0,1,4.9808342269123855e-14
1.865,0.0008899431850697582,77.50000000000097,0,100,1.0,1,1.9135408329380917e-14
1.87,0.002128806368910263,77.50000000000037,0,100,1.0,1,7.316479655351527e-15
1.875,0.009309664818487698,77.50000000000014,0,100,1.0,1,2.8140306366736642e-15
1.88,0.03503263543368747,77.50000000000004,0,100,1.0,1,8.442091910020992e-16
1.885,0.10606267793605692,77.50000000000001,0,100,1.0,1,2.814030636673664e-16
1.89,0.25734927343160535,77.5,0,100,1.0,1,0.0
1.895,0.5003202479539708,77.5,0,100,1.0,1,0.0
1.9,0.7793067891790435,77.5,0,100,1.0,1,0.0
1.905,0.9720477407234077,77.50000296326382,1,100,1.0,1,5.8678491575054717e-08
1.91,0.967267334488097,77.50000646040132,0,100,1.0,1,1.2792873907402633e-07
1.915,0.7505869905515209,77.50001547099812,0,100,1.0,1,3.063563984497786e-07
1.92,0.4028369574773956,77.50004279940943,0,100,1.0,1,8.475130579818773e-07
1.925,0.04553881263121314,77.50013615438796,0,100,1.0,1,2.696126494250769e-06
1.93,-0.189138810908105,77.5004680179232,0,100,1.0,1,9.267681647462169e-06
1.935,-0.22868072635956738,77.50162325338142,0,100,1.0,1,3.2143631315339815e-05
1.94,-0.14104670682394166,77.50543270243331,0,100,1.0,1,0.00010757826600614871
1.945,-0.051158381651102834,77.51714463608216,0,100,1.0,1,0.0003394977442012825
1.95,-0.008206426846427752,77.55046328702488,0,100,1.0,1,0.0009992730103937162
1.955,0.005350271385530505,77.63783045420662,0,100,1.0,1,0.0027293159248835993
1.96,0.01084668799215426,77.84848933795,0,100,1.0,1,0.006900778969306918
1.965,0.016256859896386415,78.31469943305066,0,100,1.0,1,0.016132662040607187
1.97,0.02345021205790711,79.25999380935703,0,100,1.0,1,0.034851362561525295
1.975,0.0330621597308209,81.0123394706058,0,100,1.0,1,0.06955127664565931
1.98,0.04559141319943196,83.9741410832035,0,100,1.0,1,0.1282008135287823
1.985,0.06149084917446989,88.52124642173986,0,100,1.0,1,0.21824250340078932
1.99,0.08111733445924295,94.82704898075434,0,100,1.0,1,0.34310988080701665
1.995,0.1046628598272375,102.65707317635096,0,100,1.0,1,0.4981598648782369
2.0,0.1320831047748631,111.23231162140519,0,100,1.0,1,0.6679665667604988
2.005,0.16303381314489318,119.27409135130915,0,100,1.0,1,0.8272097297288941
2.01,0.19682662652900276,125.28499396783039,0,100,1.0,1,0.9462375043134731
2.015,0.23241585813229,128.0,0,100,1.0,1,1.0
2.02,0.26842527782774417,126.82648873543778,0,100,1.0,1,0.9767621531769857
2.025,0.30321927900592993,122.06517425913262,0,100,1.0,1,0.882478698200646
2.03,0.3350163137995362,114.80061140479341,0,100,1.0,1,0.7386259684117508
2.035,0.3620352400956416,106.51681736882965,0,100,1.0,1,0.5745904429471218
2.04,0.3826586036805073,98.62505549251536,0,100,1.0,1,0.41831793054485855
2.045,0.39559233134833227,92.10806239375111,0,100,1.0,1,0.28926856225249725
2.05,0.4,87.39237394672186,0,100,1.0,1,0.1958885930043933
2.055,0.39559233134833227,84.43193578594894,0,100,1.0,1,0.1372660551673057
2.06,0.3826586036805073,82.90176098589056,0,100,1.0,1,0.10696556407704082
2.065,0.3620352400956416,82.39163410258165,0,100,1.0,1,0.09686404163528016
2.07,0.3350163137995362,82.53446670163302,0,100,1.0,1,0.09969240993332718
2.075,0.3032192790059296,83.05830634930675,0,100,1.0,1,0.11006547226349994
2.08,0.26842527782774417,83.78469286323443,0,100,1.0,1,0.12444936362840447
2.085,0.23241585813229,84.60340952404425,0,100,1.0,1,0.14066157473354957
2.09,0.19682662652900276,85.4451180660712,0,100,1.0,1,0.15732907061527135
2.095,0.16303381314489318,86.26145611528875,0,100,1.0,1,0.17349418050076737
2.1,0.13208310477486307,87.01388481565941,0,100,1.0,1,0.1883937587259289
2.105,0.10466285982723562,87.66902938979217,0,100,1.0,1,0.20136691860974598
2.11,0.08111733445917907,88.19777841433479,0,100,1.0,1,0.21183719632346124
2.115,0.06149084917398798,88.57611523626564,0,100,1.0,1,0.21932901457951753
2.12,0.04559141333598128,88.78646487339392,0,100,1.0,1,0.22349435392859257
2.125,0.03306217087257399,88.81890111521152,0,100,1.0,1,0.22413665574676273
2.13,0.02345067901074276,88.67188096074477,0,100,1.0,1,0.22122536555930242
2.135,0.016268788896435526,88.35235527116667,0,100,1.0,1,0.21489812418151827
2.14,0.011039026374860051,87.87522130851018,0,100,1.0,1,0.20544992690119163
2.145,0.007326255555493689,87.2621707098855,0,100,1.0,1,0.1933103110868415
2.15,0.0047556414315231815,86.54005532752586,0,100,1.0,1,0.17901099658467057
2.155,0.0030193390635632803,85.73894191529423,0,100,1.0,1,0.16314736465929175
2.16,0.001874953127946523,84.89005134205526,0,100,1.0,1,0.1463376503377279
2.165,0.0011387927410965778,84.02377737381408,0,100,1.0,1,0.12918371037255613
2.17,0.0006765107634274089,83.16795600607652,0,100,1.0,1,0.11223675259557471
2.175,0.00039307957404427924,82.34651399423815,0,100,1.0,1,0.09597057414332973
2.18,0.00022338910511776318,81.57857200075955,0,100,1.0,1,0.08076380199523861
2.185,0.00012417073320013317,80.87802187700999,0,100,1.0,1,0.06689152231702941
2.19,6.750753468904987e-05,80.2535466853287,0,100,1.0,1,0.05452567693720199
2.195,3.5897234866245036e-05,79.70901208831678,0,100,1.0,1,0.0437428136300353
2.2,1.8670050400879738e-05,79.24413221055799,0,100,1.0,1,0.034537271496197876
2.205,9.497421874143672e-06,78.85530292273832,0,100,1.0,1,0.02683768163838253
2.21,4.725434140340885e-06,78.53649929026788,0,100,1.0,1,0.02052473842114621
2.215,2.299606063738814e-06,78.28014854914866,0,100,1.0,1,0.015448486121755704
2.22,1.0945633976635486e-06,78.0779114022779,0,100,1.0,1,0.011443790144116941
2.225,5.095703414287532e-07,77.92132854472484,0,100,1.0,1,0.008343139499501858
2.23,2.3202944964797243e-07,77.80231254214551,0,100,1.0,1,0.0059863869731785115
2.235,1.0333746954038608e-07,77.71348487388187,0,100,1.0,1,0.004227423245185496
2.24,4.501406988770349e-08,77.64837260275212,0,100,1.0,1,0.002938071341626111
2.245,0.0,77.6014883012127,0,100,1.0,1,0.0020096693309445
2.25,0.0,77.56832095256193,0,100,1.0,1,0.0013528901497412529
2.255,0.0,77.54526551904495,0,100,1.0,1,0.0008963469117811137
2.26,0.0,77.52951594948496,0,100,1.0,1,0.0005844742472269297
2.265,0.0,77.51894181864023,0,100,1.0,1,0.00037508551762830214
2.27,0.0,77.5119636101294,0,100,1.0,1,0.00023690317087919153
2.275,0.0,77.50743666967786,0,100,1.0,1,0.0001472607857001639
2.28,0.0,77.50454957043476,0,100,1.0,1,9.00905036586448e-05
2.285,0.0,77.5027392896498,0,100,1.0,1,5.424335940189606e-05
2.29,0.0,77.50162323419167,0,100,1.0,1,3.214325132018017e-05
2.295,0.0,77.5009466731716,0,100,1.0,1,1.8746003397969653e-05
2.3,0.0,77.50054336870136,0,100,1.0,1,1.0759776264511865e-05
2.305,0.0,77.50030694801582,0,100,1.0,1,6.078178531066838e-06
2.31,0.0,77.50017065173328,0,100,1.0,1,3.379242243265325e-06
2.315,0.0,77.50009337534921,0,100,1.0,1,1.8490168160231333e-06
2.32,0.0,77.50005028395583,0,100,1.0,1,9.957218976118798e-07
2.325,0.0,77.50002665031187,0,100,1.0,1,5.277289478546645e-07
2.33,0.001684486749771458,77.50001390115278,0,100,1.0,1,2.752703521494341e-07
2.335,0.00456624331333666,77.50000713633123,0,100,1.0,1,1.4131348978993953e-07
2.34,0.011079731271581421,77.50000360557758,0,100,1.0,1,7.139757574598005e-08
2.345,0.024064571490409,77.5000017928764,0,100,1.0,1,3.550250304521463e-08
2.35,0.046784906529573234,77.50000087740786,0,100,1.0,1,1.7374413001823202e-08
2.355,0.08141644351188804,77.50000042259889,0,100,1.0,1,8.368294800783417e-09
2.36,0.12682276464025305,77.50000020032302,0,100,1.0,1,3.966792377522694e-09
2.365,0.1768320708657512,77.50000009345639,0,100,1.0,1,1.8506216405296415e-09
2.37,0.22070063230473494,77.50000004291043,0,100,1.0,1,8.497114651059872e-10
2.375,0.24656126505113576,77.50000001939064,0,100,1.0,1,3.839730733588031e-10
2.38,0.24656126505724016,77.50000000862377,0,100,1.0,1,1.707677607681593e-10
2.385,0.220700632329898,77.50000000377466,0,100,1.0,1,7.474571896519853e-11
2.39,0.17683207093748562,77.50000000162605,0,100,1.0,1,3.219898275401107e-11
2.395,0.12682276483597799,77.5000000006894,0,100,1.0,1,1.3651425424631278e-11
2.4,0.08141644409447898,77.50000000028766,0,100,1.0,1,5.696160814754831e-12
2.405,0.04678490952598309,77.50000000011813,0,100,1.0,1,2.339303668266817e-12
2.41,0.024064605020532023,77.50000000004775,0,100,1.0,2,9.455142939223512e-13
2.415,0.011080171739334697,77.50000000001899,0,100,1.0,2,3.759544930596015e-13
2.42,0.004571212771509492,77.50000000000743,0,100,1.0,2,1.4717380229803264e-13
2.425,0.0017299316936037438,77.50000000000287,0,100,1.0,2,5.684341886080802e-14
2.43,0.0008899431850697582,77.50000000000108,0,100,1.0,2,2.1386632838719847e-14
2.435,0.002128806368910263,77.5000000000004,0,100,1.0,2,7.87928578268626e-15
2.44,0.009309664818487698,77.50000000000014,0,100,1.0,2,2.8140306366736642e-15
2.445,0.03503263543368747,77.50000000000006,0,100,1.0,2,1.1256122546694657e-15
2.45,0.10606267793605692,77.50000000000001,0,100,1.0,2,2.814030636673664e-16
2.455,0.25734927343160535,77.5,0,100,1.0,2,0.0
2.46,0.5003202479539708,77.5,0,100,1.0,2,0.0
2.465,0.7793067891790435,77.5,0,100,1.0,2,0.0
2.47,0.9720477407234077,77.5000029754369,1,100,1.0,2,5.8919542565004434e-08
2.475,0.967267334488097,77.50000599695579,0,100,1.0,2,1.1875159984946108e-07
2.48,0.7505869905515209,77.50001298600604,0,100,1.0,2,2.571486344784194e-07
2.485,0.4028369574773956,77.50003147504462,0,100,1.0,2,6.232682103405516e-07
2.49,0.04553881263121314,77.50008619286392,0,100,1.0,2,1.7067893845188057e-06
2.495,-0.189138810908105,77.50025730044038,0,100,1.0,2,5.095058225374532e-06
2.5,-0.22868072635956738,77.5007933249374,0,100,1.0,2,1.570940470108524e-05
2.505,-0.14104670682394166,77.50241950076978,0,100,1.0,2,4.791090633219001e-05
2.51,-0.051158381651102834,77.50711144306592,0,100,1.0,2,0.00014082065477076427
2.515,-0.008206426846427752,77.51986871228921,0,100,1.0,2,0.0003934398473110814
2.52,0.005350271385530505,77.55240190738294,0,100,1.0,2,0.0010376615323355166
2.525,0.01084668799215426,77.63001002590855,0,100,1.0,2,0.0025744559585850857
2.53,0.016256859896386415,77.80289200489227,0,100,1.0,2,0.0059978614830152755
2.535,0.02345021205790711,78.16202929152928,0,100,1.0,2,0.013109490921371869
2.54,0.0330621597308209,78.85684044003119,0,100,1.0,2,0.02686812752537014
2.545,0.04559141319943196,80.10689364457848,0,100,1.0,2,0.05162165632828668
2.55,0.06149084917446989,82.19454731190469,0,100,1.0,2,0.09296133290900367
2.555,0.08111733445924295,85.42322629870154,0,100,1.0,2,0.15689557027131754
2.56,0.1046628598272375,90.03220955939476,0,100,1.0,2,0.24816256553256946
2.565,0.1320831047748631,96.0763779834986,0,100,1.0,2,0.36784906898017034
2.57,0.16303381314489318,103.30485469372982,0,100,1.0,2,0.5109872216580162
2.575,0.19682662652900276,111.0935870574871,0,100,1.0,2,0.6652195456928138
2.58,0.23241585813229,118.48679998058978,0,100,1.0,2,0.8116198015958372
2.585,0.26842527782774417,124.3703389478431,0,100,1.0,2,0.9281255237196653
2.59,0.30321927900592993,127.74334061454307,0,100,1.0,2,0.994917635931546
2.595,0.3350163137995362,128.0,0,100,1.0,2,1.0
2.6,0.3620352400956416,125.11330099463837,0,100,1.0,2,0.9428376434581854
2.605,0.3826586036805073,119.64481297500973,0,100,1.0,2,0.8345507519803906
2.61,0.39559233134833227,112.57637305393439,0,100,1.0,2,0.6945816446323642
2.615,0.4,105.03340955907804,0,100,1.0,2,0.5452160308728324
2.62,0.39559233134833227,98.00714308426187,0,100,1.0,2,0.4060820412725123
2.625,0.3826586036805073,92.16807227358933,0,100,1.0,2,0.29045687670473924
2.63,0.3620352400956416,87.8106625064421,0,100,1.0,2,0.20417153478103167
2.635,0.3350163137995362,84.91128351654942,0,100,1.0,2,0.14675808943662214
2.64,0.3032192790059296,83.24627791934817,0,100,1.0,2,0.11378768157125096
2.645,0.26842527782774417,82.51389380055394,0,100,1.0,2,0.09928502575354345
2.65,0.23241585813229,82.42351586481769,0,100,1.0,2,0.0974953636597562
2.655,0.19682662652900276,82.74137651779043,0,100,1.0,2,0.10378963401565204
2.66,0.16303381314489318,83.30063613325049,0,100,1.0,2,0.1148640818465444
2.665,0.13208310477486307,83.99100308268714,0,100,1.0,2,0.1285347145086563
2.67,0.10466285982723562,84.74151848915058,0,100,1.0,2,0.14339640572575404
2.675,0.08111733445917907,85.50482196555724,0,100,1.0,2,0.15851132605063845
2.68,0.06149084917398798,86.24611874995509,0,100,1.0,2,0.17319047029614035
2.685,0.04559141333598128,86.93688968311473,0,100,1.0,2,0.1868691026359352
2.69,0.03306217087257399,87.552095598575,0,100,1.0,2,0.19905139799158403
2.695,0.02345067901074276,88.06949801926329,0,100,1.0,2,0.20929699048046124
2.7,0.016268788896435526,88.47004810840187,0,100,1.0,2,0.2172286754138984
2.705,0.011039026374860051,88.73867645530594,0,100,1.0,2,0.2225480486199195
2.71,0.007326255555493689,88.86509801461254,0,100,1.0,2,0.22505144583391173
2.715,0.0047556414315231815,88.84442009521223,0,100,1.0,2,0.22464198208341046
2.72,0.0030193390635632803,88.6774424986801,0,100,1.0,2,0.2213354950233682
2.725,0.001874953127946523,88.37060213916769,0,100,1.0,2,0.21525944830035024
2.73,0.0011387927410965778,87.93556017778981,0,100,1.0,2,0.20664475599583781
2.735,0.0006765107634274089,87.38846637634401,0,100,1.0,2,0.19581121537314877
2.74,0.00039307957404427924,86.74896474048299,0,100,1.0,2,0.18314781664322752
2.745,0.00022338910511776318,86.03902558407252,0,100,1.0,2,0.16908961552618848
2.75,0.00012417073320013317,85.2817005402186,0,100,1.0,2,0.1540930800043286
2.755,6.750753468904987e-05,84.49989815970547,0,100,1.0,2,0.1386118447466429
2.76,3.5897234866245036e-05,83.71526910843023,0,100,1.0,2,0.1230746358104997
2.765,1.8670050400879738e-05,82.94727325500796,0,100,1.0,2,0.10786679712887044
2.77,9.497421874143672e-06,82.21247863298953,0,100,1.0,2,0.0933164085740501
2.775,4.725434140340885e-06,81.52411733001249,0,100,1.0,2,0.07968549168341559
2.78,2.299606063738814e-06,80.89189878152109,0,100,1.0,2,0.06716631250536817
2.785,1.0945633976635486e-06,80.32205933831581,0,100,1.0,2,0.05588236313496654
2.79,5.095703414287532e-07,79.8176102712143,0,100,1.0,2,0.045893272697313
2.795,2.3202944964797243e-07,79.3787356692764,0,100,1.0,2,0.03720268652032466
2.8,1.0333746954038608e-07,79.00328721222063,0,100,1.0,2,0.02976806360832925
2.805,4.501406988770349e-08,78.68732401962978,0,100,1.0,2,0.023511366725342264
2.81,0.0,78.425651592325,0,100,1.0,2,0.018329734501485076
2.815,0.0,78.21232282339807,0,100,1.0,2,0.014105402443526104
2.82,0.0,78.04107463502996,0,100,1.0,2,0.010714349208514011
2.825,0.0,77.90568457847962,0,100,1.0,2,0.008033357989695492
2.83,0.0,77.8002415759474,0,100,1.0,2,0.005945377741532598
2.835,0.0,77.71933309720917,0,100,1.0,2,0.004343229647706395
2.84,0.0,77.658157036978,0,100,1.0,2,0.0031318225144157776
2.845,0.0,77.61257031386367,0,100,1.0,2,0.002229115126013285
2.85,0.0,77.57908793610137,0,100,1.0,2,0.0015660977445816565
2.855,0.0,77.55484633547951,0,100,1.0,2,0.0010860660490992148
2.86,0.0,77.53754360721969,0,100,1.0,2,0.0007434377667265164
2.865,0.0,77.52536736675137,0,100,1.0,2,0.0005023240940864967
2.87,0.0,77.51691865312054,0,100,1.0,2,0.0003350228340701226
2.875,0.0,77.51113799947356,0,100,1.0,2,0.00022055444502101825
2.88,0.0,77.50723768383935,0,100,1.0,2,0.0001433204720663273
2.885,0.0,77.50464240506564,0,100,1.0,2,9.19288131809584e-05
2.89,0.0,77.50293925633632,0,100,1.0,2,5.820309576869035e-05
2.895,0.0,77.5018368889561,0,100,1.0,2,3.637403873477245e-05
2.9,0.0,77.50113312899164,0,100,1.0,2,2.2438197854254743e-05
2.905,0.0,77.50068996459827,0,100,1.0,2,1.3662665312191021e-05
2.91,0.0,77.50041469163281,0,100,1.0,2,8.211715501237458e-06
2.915,0.0,77.50024602245387,0,100,1.0,2,4.8717317597065364e-06
2.92,0.0,77.50014407055438,0,100,1.0,2,2.8528822650347895e-06
2.925,0.0,77.50008327731553,0,100,1.0,2,1.6490557529755503e-06
2.93,0.0,77.50004751483387,0,100,1.0,2,9.40887799337775e-07
2.935,0.0,77.50002675979127,0,100,1.0,2,5.298968567961373e-07
2.94,0.0,77.50001487603653,0,100,1.0,2,2.9457498080413606e-07
2.945,0.0,77.50000816286773,0,100,1.0,2,1.6164094513487276e-07
2.95,0.0,77.50000442129294,0,100,1.0,2,8.755035529554e-08
2.955,0.001684486749771458,77.50000236377878,0,100,1.0,2,4.680750052021623e-08
2.96,0.00456624331333666,77.50000124742768,0,100,1.0,2,2.4701538135073267e-08
2.965,0.011079731271581421,77.50000064979285,0,100,1.0,2,1.2867185196318141e-08
2.97,0.024064571490409,77.50000033410694,0,100,1.0,2,6.61597906932146e-09
2.975,0.046784906529573234,77.50000016956923,0,100,1.0,2,3.3578066004248277e-09
2.98,0.08141644351188804,77.50000008494926,0,100,1.0,2,1.682163636108064e-09
2.985,0.12682276464025305,77.50000004200716,0,100,1.0,2,8.318249235731621e-10
2.99,0.1768320708657512,77.50000002050396,0,100,1.0,2,4.060190335756956e-10
2.995,0.22070063230473494,77.50000000987878,0,100,1.0,2,1.9561930952981544e-10
3.0,0.24656126505113576,77.50000000469808,0,100,1.0,2,9.3031290042304e-11
3.005,0.24656126505724016,77.5000000022054,0,100,1.0,2,4.367122285360226e-11
3.01,0.220700632329898,77.50000000102189,0,100,1.0,2,2.023541290525665e-11
3.015,0.17683207093748562,77.50000000046738,0,100,1.0,2,9.255065360956014e-12
3.02,0.12682276483597799,77.500000000211,0,100,1.0,2,4.178272689333056e-12
3.025,0.08141644409447898,77.50000000009403,0,100,1.0,2,1.8620440722869634e-12
3.03,0.04678490952598309,77.50000000004135,0,100,1.0,2,8.188829152720362e-13
3.035,0.024064605020532023,77.50000000001796,0,100,1.0,2,3.5569347247555116e-13
3.04,0.011080171739334697,77.5000000000077,0,100,1.0,2,1.525204605077126e-13
3.045,0.004571212771509492,77.50000000000325,0,100,1.0,2,6.44413015798269e-14
3.05,0.0017299316936037438,77.50000000000136,0,100,1.0,2,2.7014694112067174e-14
3.055,0.0008899431850697582,77.50000000000055,0,100,1.0,2,1.097471948302729e-14
3.06,0.002128806368910263,77.50000000000023,0,100,1.0,2,4.502449018677863e-15
3.065,0.009309664818487698,77.50000000000009,0,100,1.0,2,1.6884183820041984e-15
3.07,0.03503263543368747,77.50000000000003,0,100,1.0,2,5.628061273347328e-16
3.075,0.10606267793605692,77.50000000000001,0,100,1.0,2,2.814030636673664e-16
3.08,0.25734927343160535,77.5,0,100,1.0,2,0.0
3.085,0.5003202479539708,77.5,0,100,1.0,2,0.0
3.09,0.7793067891790435,77.5,0,100,1.0,2,0.0
3.095,0.9720477407234077,77.50000295858521,1,100,1.0,2,5.858584580720963e-08
3.1,0.967267334488097,77.50000627158161,0,100,1.0,2,1.2418973487865964e-07
3.105,0.7505869905515209,77.50001448202111,0,100,1.0,2,2.867726953417611e-07
3.11,0.4028369574773956,77.5000381880034,0,100,1.0,2,7.56198087153937e-07
3.115,0.04553881263121314,77.50011515393722,0,100,1.0,2,2.2802759844742666e-06
3.12,-0.189138810908105,77.5003768133724,0,100,1.0,2,7.461650938574905e-06
3.125,-0.22868072635956738,77.50125530195008,0,100,1.0,2,2.4857464358047304e-05
3.13,-0.14104670682394166,77.50407161723201,0,100,1.0,2,8.062608380226824e-05
3.135,-0.051158381651102834,77.5125498908563,0,100,1.0,2,0.00024851269022388076
3.14,-0.008206426846427752,77.53632357375037,0,100,1.0,2,0.0007192786881260548
3.145,0.005350271385530505,77.59816032657108,0,100,1.0,2,0.0019437688429916036
3.15,0.01084668799215426,77.74699421583978,0,100,1.0,2,0.004890974571084695
3.155,0.016256859896386415,78.0778955905149,0,100,1.0,2,0.011443477039898991
3.16,0.02345021205790711,78.75638253739591,0,100,1.0,2,0.024878862126651635
3.165,0.0330621597308209,80.03714578164362,0,100,1.0,2,0.050240510527596365
3.17,0.04559141319943196,82.2581074321164,0,100,1.0,2,0.09421994915081988
3.175,0.06149084917446989,85.78593960996649,0,100,1.0,2,0.16407801207854436
3.18,0.08111733445924295,90.89811556558197,0,100,1.0,2,0.26530921912043515
3.185,0.1046628598272375,97.61546592808551,0,100,1.0,2,0.39832605798189136
3.19,0.1320831047748631,105.5415466537269,0,100,1.0,2,0.5552781515589484
3.195,0.16303381314489318,113.79708988561208,0,100,1.0,2,0.7187542551606353
3.2,0.19682662652900276,121.12822094684294,0,100,1.0,2,0.8639251672642168
3.205,0.23241585813229,126.20143333597863,0,100,1.0,2,0.9643848185342304
3.21,0.26842527782774417,128.0,0,100,1.0,2,1.0
3.215,0.30321927900592993,126.16275066678318,0,100,1.0,2,0.9636188250848154
3.22,0.3350163137995362,121.1116044575634,0,100,1.0,2,0.8635961278725426
3.225,0.3620352400956416,113.90717007869759,0,100,1.0,2,0.7209340609643087
3.23,0.3826586036805073,105.90088318147954,0,100,1.0,2,0.5623937263659315
3.235,0.39559233134833227,98.34046706321053,0,100,1.0,2,0.41268251610317874
3.24,0.4,92.08499814602648,0,100,1.0,2,0.28881184447577185
3.245,0.39559233134833227,87.50864038323002,0,100,1.0,2,0.1981908986778221
3.25,0.3826586036805073,84.57442275691706,0,100,1.0,2,0.14008757934489227
3.255,0.3620352400956416,82.99710802083918,0,100,1.0,2,0.10885362417503323
3.26,0.3350163137995362,82.40804661099806,0,100,1.0,2,0.09718904180194171
3.265,0.3032192790059296,82.46851319639717,0,100,1.0,2,0.0983863999286568
3.27,0.26842527782774417,82.92004890238644,0,100,1.0,2,0.10732770103735526
3.275,0.23241585813229,83.58796849171559,0,100,1.0,2,0.12055383151912051
3.28,0.19682662652900276,84.36197804515345,0,100,1.0,2,0.13588075336937525
3.285,0.16303381314489318,85.17248310799981,0,100,1.0,2,0.15193035857425366
3.29,0.13208310477486307,85.97196310008664,0,100,1.0,2,0.1677616455462701
3.295,0.10466285982723562,86.72363196440325,0,100,1.0,2,0.18264617751293571
3.3,0.08111733445917907,87.39605351764324,0,100,1.0,2,0.1959614557949156
3.305,0.06149084917398798,87.9615095120021,0,100,1.0,2,0.20715860419806129
3.31,0.04559141333598128,88.39629447802281,0,100,1.0,2,0.2157682074856002
3.315,0.03306217087257399,88.6817572080628,0,100,1.0,2,0.22142093481312486
3.32,0.02345067901074276,88.80541912343043,0,100,1.0,2,0.2238696856124837
3.325,0.016268788896435526,88.761813641984,0,100,1.0,2,0.22300621073235655
3.33,0.011039026374860051,88.55286824522712,0,100,1.0,2,0.21886867812330923
3.335,0.007326255555493689,88.18775826412227,0,100,1.0,2,0.2116387775073716
3.34,0.0047556414315231815,87.68223746822366,0,100,1.0,2,0.20162846471730023
3.345,0.0030193390635632803,87.05751062541435,0,100,1.0,2,0.18925763614681884
3.35,0.001874953127946523,86.33875969754904,0,100,1.0,2,0.17502494450592151
3.355,0.0011387927410965778,85.55346606508107,0,100,1.0,2,0.15947457554615976
3.36,0.0006765107634274089,84.72968388537797,0,100,1.0,2,0.14316205713619734
3.365,0.00039307957404427924,83.8944140290608,0,100,1.0,2,0.12662205998140194
3.37,0.00022338910511776318,83.07220603434823,0,100,1.0,2,0.11034071355145003
3.375,0.00012417073320013317,82.2840812711329,0,100,1.0,2,0.09473428259669119
3.38,6.750753468904987e-05,81.54682943609703,0,100,1.0,2,0.08013523635835698
3.385,3.5897234866245036e-05,80.87268841585063,0,100,1.0,2,0.06678590922476499
3.39,1.8670050400879738e-05,80.26937973963246,0,100,1.0,2,0.054839202764999116
3.395,9.497421874143672e-06,79.7404423296401,0,100,1.0,2,0.04436519464633868
3.4,4.725434140340885e-06,79.28578839837682,0,100,1.0,2,0.03536214650251135
3.405,2.299606063738814e-06,78.90239771037702,0,100,1.0,2,0.02777025169063399
3.41,1.0945633976635486e-06,78.58506900977153,0,100,1.0,2,0.021486515044980795
3.415,5.095703414287532e-07,78.32715803895881,0,100,1.0,2,0.016379367108095323
3.42,2.3202944964797243e-07,78.12124742111936,0,100,1.0,2,0.012301929131076509
3.425,1.0333746954038608e-07,77.95971182173484,0,100,1.0,2,0.009103204390788959
3.43,4.501406988770349e-08,77.83515963913185,0,100,1.0,2,0.006636824537264261
3.435,0.0,77.74074802073012,0,100,1.0,2,0.004767287539210363
3.44,0.0,77.67038003596295,0,100,1.0,2,0.003373862098276232
3.445,0.0,77.61880087924757,0,100,1.0,2,0.0023524926583677777
3.45,0.0,77.5816141709287,0,100,1.0,2,0.001616122196607968
3.455,0.0,77.5552403549693,0,100,1.0,2,0.0010938684152336571
3.46,0.0,77.53683768391573,0,100,1.0,2,0.0007294590874402959
3.465,0.0,77.52420321967791,0,100,1.0,2,0.00047927167679039497
3.47,0.0,77.51566747236087,0,100,1.0,2,0.0003102469774430597
3.475,0.0,77.50999239747283,0,100,1.0,2,0.00019786925688769166
3.48,0.0,77.50627892699517,0,100,1.0,2,0.00012433518802307088
3.485,0.0,77.50388728278739,0,100,1.0,2,7.697589677997649e-05
3.49,0.0,77.50237111056772,0,100,1.0,2,4.695268450935074e-05
3.495,0.0,77.50142495925365,0,100,1.0,2,2.8217014923849084e-05
3.5,0.0,77.5008437194384,0,100,1.0,2,1.6707315611742756e-05
3.505,0.0,77.50049219662667,0,100,1.0,2,9.746467854781015e-06
3.51,0.0,77.50028289428887,0,100,1.0,2,5.601867106388634e-06
3.515,0.0,77.500160197117,0,100,1.0,2,3.172220138565373e-06
3.52,0.0,77.50008937790716,0,100,1.0,2,1.769859547701092e-06
3.525,0.0,77.50004913043793,0,100,1.0,2,9.728799590006794e-07
3.53,0.0,77.50002660823445,0,100,1.0,2,5.268957316743446e-07
3.535,0.0,77.50001419797643,0,100,1.0,2,2.811480480503822e-07
3.54,0.001684486749771458,77.50000746417498,0,100,1.0,2,1.4780544524280167e-07
3.545,0.00456624331333666,77.50000386618065,0,100,1.0,2,7.6558032643865e-08
3.55,0.011079731271581421,77.50000197300162,0,100,1.0,2,3.906933893676528e-08
3.555,0.024064571490409,77.5000009920138,0,100,1.0,2,1.9643837535707885e-08
3.56,0.046784906529573234,77.50000049142014,0,100,1.0,2,9.731091848710877e-09
3.565,0.08141644351188804,77.50000023984637,0,100,1.0,2,4.749433110821946e-09
3.57,0.12682276464025305,77.50000011533426,0,100,1.0,2,2.2838467223006982e-09
3.575,0.1768320708657512,77.50000005464224,0,100,1.0,2,1.0820246085257727e-09
3.58,0.22070063230473494,77.50000002550607,0,100,1.0,2,5.050706607620992e-10
3.585,0.24656126505113576,77.50000001173015,0,100,1.0,2,2.3228021926133627e-10
3.59,0.24656126505724016,77.50000000531507,0,100,1.0,2,1.0524896685755005e-10
3.595,0.220700632329898,77.50000000237279,0,100,1.0,2,4.698586954054017e-11
3.6,0.17683207093748562,77.50000000104365,0,100,1.0,2,2.066624099573139e-11
3.605,0.12682276483597799,77.50000000045226,0,100,1.0,2,8.955652501213936e-12
3.61,0.08141644409447898,77.5000000001931,0,100,1.0,2,3.823704829112175e-12
3.615,0.04678490952598309,77.50000000008123,0,100,1.0,3,1.6084999119226663e-12
3.62,0.024064605020532023,77.50000000003367,0,100,1.0,3,6.66643857827991e-13
3.625,0.011080171739334697,77.50000000001374,0,100,1.0,3,2.7211676256634333e-13
3.63,0.004571212771509492,77.50000000000553,0,100,1.0,3,1.0946579176660553e-13
3.635,0.0017299316936037438,77.50000000000219,0,100,1.0,3,4.333607180477443e-14
3.64,0.0008899431850697582,77.50000000000085,0,100,1.0,3,1.6884183820041984e-14
3.645,0.002128806368910263,77.50000000000033,0,100,1.0,3,6.472270464349428e-15
3.65,0.009309664818487698,77.50000000000013,0,100,1.0,3,2.5326275730062976e-15
3.655,0.03503263543368747,77.50000000000004,0,100,1.0,3,8.442091910020992e-16
3.66,0.10606267793605692,77.50000000000001,0,100,1.0,3,2.814030636673664e-16
3.665,0.25734927343160535,77.5,0,100,1.0,3,0.0
3.67,0.5003202479539708,77.5,0,100,1.0,3,0.0
3.675,0.7793067891790435,77.5,0,100,1.0,3,0.0
3.68,0.9720477407234077,77.500002961856,1,100,1.0,3,5.865061381774638e-08
3.685,0.967267334488097,77.500006041423,0,100,1.0,3,1.1963213873878877e-07
3.69,0.7505869905515209,77.50001328138595,0,100,1.0,3,2.629977415165173e-07
3.695,0.4028369574773956,77.50003283321637,0,100,1.0,3,6.501627003199426e-07
3.7,0.04553881263121314,77.50009198824264,0,100,1.0,3,1.8215493592959877e-06
3.705,-0.189138810908105,77.50028074560149,0,100,1.0,3,5.559318841314602e-06
3.71,-0.22868072635956738,77.50088215537116,0,100,1.0,3,1.7468423191256096e-05
3.715,-0.14104670682394166,77.5027317136506,0,100,1.0,3,5.409333961592487e-05
3.72,-0.051158381651102834,77.50812515206187,0,100,1.0,3,0.00016089410023495125
3.725,-0.008206426846427752,77.52290585167412,0,100,1.0,3,0.0004535812212697967
3.73,0.005350271385530505,77.5607994860294,0,100,1.0,3,0.0012039502184038745
3.735,0.01084668799215426,77.65144697964095,0,100,1.0,3,0.0029989500919000286
3.74,0.016256859896386415,77.85343089561607,0,100,1.0,3,0.00699863159635785
3.745,0.02345021205790711,78.27206809920676,0,100,1.0,3,0.015288477212015105
3.75,0.0330621597308209,79.07802187804528,0,100,1.0,3,0.031247957981094594
3.755,0.04559141319943196,80.51693895137673,0,100,1.0,3,0.05974136537379663
3.76,0.06149084917446989,82.89454088046219,0,100,1.0,3,0.10682259169232054
3.765,0.08111733445924295,86.52074732919208,0,100,1.0,3,0.17862865998400151
3.77,0.1046628598272375,91.60628022891433,0,100,1.0,3,0.2793322817606798
3.775,0.1320831047748631,98.12800786254579,0,100,1.0,3,0.40847540321872844
3.78,0.16303381314489318,105.70840989696592,0,100,1.0,3,0.5585823741973449
3.785,0.19682662652900276,113.57344353324595,0,100,1.0,3,0.7143256145197218
3.79,0.23241585813229,120.64276888442222,0,100,1.0,3,0.8543122551370738
3.795,0.26842527782774417,125.75956336367835,0,100,1.0,3,0.9556349180926407
3.8,0.30321927900592993,128.0,0,100,1.0,3,1.0
3.805,0.3350163137995362,126.95061745029365,0,100,1.0,3,0.9792201475305673
3.81,0.3620352400956416,122.84001560912182,0,100,1.0,3,0.897822091269739
3.815,0.3826586036805073,116.46801010317881,0,100,1.0,3,0.7716437644193824
3.82,0.39559233134833227,108.96296573740314,0,100,1.0,3,0.6230290245030324
3.825,0.4,101.46881286087532,0,100,1.0,3,0.4746299576410954
3.83,0.39559233134833227,94.88053871179497,0,100,1.0,3,0.34416908340188057
3.835,0.3826586036805073,89.70779311233117,0,100,1.0,3,0.24173847747190444
3.84,0.3620352400956416,86.07956026661839,0,100,1.0,3,0.1698922825072948
3.845,0.3350163137995362,83.84687409322002,0,100,1.0,3,0.1256806751132678
3.85,0.3032192790059296,82.7187027867249,0,100,1.0,3,0.10334064924207731
3.855,0.26842527782774417,82.37771688222631,0,100,1.0,3,0.09658845311339226
3.86,0.23241585813229,82.55072048744152,0,100,1.0,3,0.10001426707804997
3.865,0.19682662652900276,83.03453037589074,0,100,1.0,3,0.1095946609087275
3.87,0.16303381314489318,83.69208055632127,0,100,1.0,3,0.12261545656081728
3.875,0.13208310477486307,84.43544696634281,0,100,1.0,3,0.1373355834919368
3.88,0.10466285982723562,85.20760297898806,0,100,1.0,3,0.15262580156412006
3.885,0.08111733445917907,85.96850260217812,0,100,1.0,3,0.1676931208352103
3.89,0.06149084917398798,86.6865931944108,0,100,1.0,3,0.18191273652298623
3.895,0.04559141333598128,87.33469336179016,0,100,1.0,3,0.19474640320376552
3.9,0.03306217087257399,87.88866412777621,0,100,1.0,3,0.20571612134210315
3.905,0.02345067901074276,88.32756689971691,0,100,1.0,3,0.21440726534092897
3.91,0.016268788896435526,88.63444229094094,0,100,1.0,3,0.22048400576120672
3.915,0.011039026374860051,88.7972016808272,0,100,1.0,3,0.22370696397677625
3.92,0.007326255555493689,88.80935150413694,0,100,1.0,3,0.22394755453736517
3.925,0.0047556414315231815,88.67040269484706,0,100,1.0,3,0.22119609296726842
3.93,0.0030193390635632803,88.38589749796584,0,100,1.0,3,0.21556232669239292
3.935,0.001874953127946523,87.96704111602165,0,100,1.0,3,0.20726814091131976
3.94,0.0011387927410965778,87.42996910265714,0,100,1.0,3,0.19663305153776514
3.945,0.0006765107634274089,86.79471636674512,0,100,1.0,3,0.18405378944049744
3.95,0.00039307957404427924,86.08397933237504,0,100,1.0,3,0.16997978875990172
3.955,0.00022338910511776318,85.32177758289465,0,100,1.0,3,0.15488668480979514
3.96,0.00012417073320013317,84.53212429988861,0,100,1.0,3,0.13924998613640807
3.965,6.750753468904987e-05,83.7378064113005,0,100,1.0,3,0.1235209190356534
3.97,3.5897234866245036e-05,82.95935736032456,0,100,1.0,3,0.1081060863430606
3.975,1.8670050400879738e-05,82.21428063285789,0,100,1.0,3,0.09335209173976025
3.98,9.497421874143672e-06,81.51655406697313,0,100,1.0,3,0.0795357240984778
3.985,4.725434140340885e-06,80.8764170164331,0,100,1.0,3,0.06685974289966524
3.99,2.299606063738814e-06,80.30041774319758,0,100,1.0,3,0.05545381669698188
3.995,1.0945633976635486e-06,79.7916792805792,0,100,1.0,3,0.04537978773424164
4.0,5.095703414287532e-07,79.35032975682887,0,100,1.0,3,0.03664019320453208
4.005,2.3202944964797243e-07,78.97403808767992,0,100,1.0,3,0.029188873023364655
4.01,1.0333746954038608e-07,78.65859741440458,0,100,1.0,3,0.022942523057516477
4.015,4.501406988770349e-08,78.39850537991533,0,100,1.0,3,0.01779218574089772
4.02,0.0,78.1875006071592,0,100,1.0,3,0.01361387340909295
4.025,0.0,78.01902678123402,0,100,1.0,3,0.010277758044237983
4.03,0.0,77.8866079019436,0,100,1.0,3,0.007655602018685262
4.035,0.0,77.78412926151917,0,100,1.0,3,0.0056263220102805754
4.04,0.0,77.70602763440992,0,100,1.0,3,0.004079755136830114
4.045,0.0,77.64740060525696,0,100,1.0,3,0.002918823866474497
4.05,0.0,77.604048862077,0,100,1.0,3,0.0020603735064751187
4.055,0.0,77.57246689949535,0,100,1.0,3,0.0014349881088188759
4.06,0.0,77.54979735814472,0,100,1.0,3,0.000986086299895357
4.065,0.0,77.53376270259416,0,100,1.0,3,0.0006685683682011887
4.07,0.0,77.52258563891289,0,100,1.0,3,0.000447240374512603
4.075,0.0,77.51490705436474,0,100,1.0,3,0.0002951891953414091
4.08,0.0,77.50970768257822,0,100,1.0,3,0.00019223133818265054
4.085,0.0,77.50623739972342,0,100,1.0,3,0.000123512865810248
4.09,0.0,77.50395417479393,0,100,1.0,3,7.830049096895945e-05
4.095,0.0,77.50247327511215,0,100,1.0,3,4.8975744795087046e-05
4.1,0.0,77.50152634696913,0,100,1.0,3,3.0224692458002417e-05
4.105,0.0,77.50092939083888,0,100,1.0,3,1.840377898766332e-05
4.11,0.0,77.50055835162344,0,100,1.0,3,1.1056467790881876e-05
4.115,0.0,77.50033096453323,0,100,1.0,3,6.553753133339972e-06
4.12,0.0,77.50019356169078,0,100,1.0,3,3.832904767894361e-06
4.125,0.0,77.50011169188872,0,100,1.0,3,2.2117205686966075e-06
4.13,0.0,77.50006358989972,0,100,1.0,3,1.2592059351395573e-06
4.135,0.0,77.5000357206146,0,100,1.0,3,7.07338903067007e-07
4.14,0.0,77.50001979766552,0,100,1.0,3,3.920329805119349e-07
4.145,0.0,77.50001082613204,0,100,1.0,3,2.1437885228950486e-07
4.15,0.0,77.50000584113084,0,100,1.0,3,1.156659572873173e-07
4.155,0.001684486749771458,77.50000310945893,0,100,1.0,3,6.157344416513495e-08
4.16,0.00456624331333666,77.50000163319106,0,100,1.0,3,3.234041705942254e-08
4.165,0.011079731271581421,77.50000084635671,0,100,1.0,3,1.6759538865618098e-08
4.17,0.024064571490409,77.5000004327471,0,100,1.0,3,8.569249512400364e-09
4.175,0.046784906529573234,77.50000021831278,0,100,1.0,3,4.323025299671295e-09
4.18,0.08141644351188804,77.5000001086647,0,100,1.0,3,2.151776103832757e-09
4.185,0.12682276464025305,77.50000005336567,0,100,1.0,3,1.0567458899134695e-09
4.19,0.1768320708657512,77.50000002585828,0,100,1.0,3,5.120452356950949e-10
4.195,0.22070063230473494,77.50000001236238,0,100,1.0,3,2.447995601608337e-10
4.2,0.24656126505113576,77.50000000583134,0,100,1.0,3,1.154720587575218e-10
4.205,0.24656126505724016,77.50000000271393,0,100,1.0,3,5.374123148693897e-11
4.21,0.220700632329898,77.50000000124622,0,100,1.0,3,2.4677641668309697e-11
4.215,0.17683207093748562,77.50000000056461,0,100,1.0,3,1.1180425122568135e-11
4.22,0.12682276483597799,77.50000000025238,0,100,1.0,3,4.997718410732428e-12
4.225,0.08141644409447898,77.50000000011131,0,100,1.0,3,2.204230197706481e-12
4.23,0.04678490952598309,77.50000000004844,0,100,1.0,3,9.59303044042052e-13
4.235,0.024064605020532023,77.5000000000208,0,100,1.0,3,4.1197408520902444e-13
4.24,0.011080171739334697,77.50000000000881,0,100,1.0,3,1.7446989947376718e-13
4.245,0.004571212771509492,77.50000000000368,0,100,1.0,3,7.28833934898479e-14
4.25,0.0017299316936037438,77.50000000000152,0,100,1.0,3,3.011012781240821e-14
4.255,0.0008899431850697582,77.50000000000061,0,100,1.0,3,1.2100331737696755e-14
4.26,0.002128806368910263,77.50000000000024,0,100,1.0,3,4.783852082345229e-15
4.265,0.009309664818487698,77.5000000000001,0,100,1.0,3,1.969821445671565e-15
4.27,0.03503263543368747,77.50000000000004,0,100,1.0,3,8.442091910020992e-16
4.275,0.10606267793605692,77.50000000000001,0,100,1.0,3,2.814030636673664e-16
4.28,0.25734927343160535,77.5,0,100,1.0,3,0.0
4.285,0.5003202479539708,77.5,0,100,1.0,3,0.0
4.29,0.7793067891790435,77.5,0,100,1.0,3,0.0
4.295,0.9720477407234077,77.50000295863553,1,100,1.0,3,5.8586842255458086e-08
4.3,0.967267334488097,77.50000589453069,0,100,1.0,3,1.1672337995159888e-07
4.305,0.7505869905515209,77.50001258016395,0,100,1.0,3,2.491121575071747e-07
4.31,0.4028369574773956,77.50002991887783,0,100,1.0,3,5.924530263079156e-07
4.315,0.04553881263121314,77.50008014574549,0,100,1.0,3,1.5870444650601604e-06
4.32,-0.189138810908105,77.50023413902163,0,100,1.0,3,4.636416269875662e-06
4.325,-0.22868072635956738,77.50070857773588,0,100,1.0,3,1.4031242294617421e-05
4.33,-0.14104670682394166,77.50212862812675,0,100,1.0,3,4.2151052014949724e-05
4.335,-0.051158381651102834,77.50618263287807,0,100,1.0,3,0.0001224283738230776
4.34,-0.008206426846427752,77.51711785807466,0,100,1.0,3,0.0003389674866268436
4.345,0.005350271385530505,77.5448517347519,0,100,1.0,3,0.0008881531634039905
4.35,0.01084668799215426,77.61080692902989,0,100,1.0,3,0.0021941966144532954
4.355,0.016256859896386415,77.75762785478521,0,100,1.0,3,0.005101541678915102
4.36,0.02345021205790711,78.06315289436618,0,100,1.0,3,0.0111515424626967
4.365,0.0330621597308209,78.65673830666799,0,100,1.0,3,0.022905709042930485
4.37,0.04559141319943196,79.73198134472196,0,100,1.0,3,0.04419765039053384
4.375,0.06149084917446989,81.54501227311613,0,100,1.0,3,0.08009925293299265
4.38,0.08111733445924295,84.38464209821635,0,100,1.0,3,0.1363295464993336
4.385,0.1046628598272375,88.50403246526267,0,100,1.0,3,0.2179016329754984
4.39,0.1320831047748631,94.01656472183686,0,100,1.0,3,0.3270606875611259
4.395,0.16303381314489318,100.77994101177725,0,100,1.0,3,0.46098893092628224
4.4,0.19682662652900276,108.31363751867889,0,100,1.0,3,0.6101710399738394
4.405,0.23241585813229,115.8015723972912,0,100,1.0,3,0.758446978164182
4.41,0.26842527782774417,122.21250830998903,0,100,1.0,3,0.8853962041581986
4.415,0.30321927900592993,126.52603826050846,0,100,1.0,3,0.9708126388219497
4.42,0.3350163137995362,128.0,0,100,1.0,3,1.0
4.425,0.3620352400956416,126.38406092367941,0,100,1.0,3,0.9680012064094934
4.43,0.3826586036805073,121.99556843228333,0,100,1.0,3,0.8811003649957097
4.435,0.39559233134833227,115.6266452242233,0,100,1.0,3,0.7549830737469959
4.44,0.4,108.32036261160054,0,100,1.0,3,0.6103042101307038
4.445,0.39559233134833227,101.10323179979561,0,100,1.0,3,0.4673907287088239
4.45,0.3826586036805073,94.76777473766506,0,100,1.0,3,0.34193613341911017
4.455,0.3620352400956416,89.76439299076465,0,100,1.0,3,0.24285926714385442
4.46,0.3350163137995362,86.20926627172703,0,100,1.0,3,0.17246071825202042
4.465,0.3032192790059296,83.97243167283402,0,100,1.0,3,0.12816696381849543
4.47,0.26842527782774417,82.7938264487047,0,100,1.0,3,0.10482824650900409
4.475,0.23241585813229,82.38399391622505,0,100,1.0,3,0.09671275081633765
4.48,0.19682662652900276,82.48788123894413,0,100,1.0,3,0.09876992552364607
4.485,0.16303381314489318,82.91091906123887,0,100,1.0,3,0.10714691210374003
4.49,0.13208310477486307,83.51852879694448,0,100,1.0,3,0.11917878805830653
4.495,0.10466285982723562,84.22272355972284,0,100,1.0,3,0.13312323880639282
4.5,0.08111733445917907,84.96617934772094,0,100,1.0,3,0.14784513559843443
4.505,0.06149084917398798,85.70924651097013,0,100,1.0,3,0.16255933685089372
4.51,0.04559141333598128,86.42147052118344,0,100,1.0,3,0.17666278259769183
4.515,0.03306217087257399,87.0770715748847,0,100,1.0,3,0.18964498168088512
4.52,0.02345067901074276,87.65314650117571,0,100,1.0,3,0.2010524059638755
4.525,0.016268788896435526,88.12943966856027,0,100,1.0,3,0.21048395383287657
4.53,0.011039026374860051,88.4888612734019,0,100,1.0,3,0.21760121333469098
4.535,0.007326255555493689,88.71824516685794,0,100,1.0,3,0.2221434686506523
4.54,0.0047556414315231815,88.80905557187164,0,100,1.0,3,0.2239416944925077
4.545,0.0030193390635632803,88.75788298162304,0,100,1.0,3,0.22292837587372358
4.55,0.001874953127946523,88.56664693700436,0,100,1.0,3,0.2191415235050369
4.555,0.0011387927410965778,88.24247373671773,0,100,1.0,3,0.21272225221223223
4.56,0.0006765107634274089,87.79725494129089,0,100,1.0,3,0.2039060384414037
4.565,0.00039307957404427924,87.24692328910454,0,100,1.0,3,0.19300838196246622
4.57,0.00022338910511776318,86.6105070604557,0,100,1.0,3,0.18040608040506342
4.575,0.00012417073320013317,85.90904096345788,0,100,1.0,3,0.16651566264273035
4.58,6.750753468904987e-05,85.1644201722591,0,100,1.0,3,0.1517706964803782
4.585,3.5897234866245036e-05,84.39828384642226,0,100,1.0,3,0.13659968012717347
4.59,1.8670050400879738e-05,83.63100589666291,0,100,1.0,3,0.12140605735966165
4.595,9.497421874143672e-06,82.8808554478679,0,100,1.0,3,0.10655159302708715
4.6,4.725434140340885e-06,82.16336957323678,0,100,1.0,3,0.09234395194528273
4.605,2.299606063738814e-06,81.49095896483546,0,100,1.0,3,0.07902889039278133
4.61,1.0945633976635486e-06,80.87274578396709,0,100,1.0,3,0.0667870452270711
4.615,5.095703414287532e-07,80.31461418365399,0,100,1.0,3,0.05573493432978192
4.62,2.3202944964797243e-07,79.81943952585937,0,100,1.0,3,0.0459294955615716
4.625,1.0333746954038608e-07,79.38745303383412,0,100,1.0,3,0.037375307600675645
4.63,4.501406988770349e-08,79.01669470924061,0,100,1.0,3,0.030033558598823968
4.635,0.0,78.70350835049594,0,100,1.0,3,0.023831848524672027
4.64,0.0,78.44303749859628,0,100,1.0,3,0.01867400987319372
4.645,0.0,78.22968889112258,0,100,1.0,3,0.014449284972724314
4.65,0.0,78.05753922233096,0,100,1.0,3,0.011040380640217014
4.655,0.0,77.92067047657592,0,100,1.0,3,0.008330108447047947
4.66,0.0,77.81342783305934,0,100,1.0,3,0.0062064917437492295
4.665,0.0,77.73060143463216,0,100,1.0,3,0.004566365042221053
4.67,0.0,77.66753878732776,0,100,1.0,3,0.0033175997490644984
4.675,0.0,77.62019811267334,0,100,1.0,3,0.0023801606469967484
4.68,0.0,77.58515474396656,0,100,1.0,3,0.0016862325537931723
4.685,0.0,77.55957293052953,0,100,1.0,3,0.001179661990683693
4.69,0.0,77.54115456349685,0,100,1.0,3,0.0008149418514226972
4.695,0.0,77.52807475357761,0,100,1.0,3,0.0005559357144081764
4.7,0.0,77.51891223363421,0,100,1.0,3,0.00037449967592496843
4.705,0.0,77.51258052061632,0,100,1.0,3,0.00024911922012524703
4.71,0.0,77.50826386704453,0,100,1.0,3,0.00016364093157491906
4.715,0.0,77.50536039689462,0,100,1.0,3,0.00010614647316071911
4.72,0.0,77.50343351928187,0,100,1.0,3,6.799048082911267e-05
4.725,0.0,77.50217175561201,0,100,1.0,3,4.30050616239779e-05
4.73,0.0,77.50135647355782,0,100,1.0,3,2.6860862531088745e-05
4.735,0.0,77.50083664386412,0,100,1.0,3,1.656720523007859e-05
4.74,0.0,77.50050956412707,0,100,1.0,3,1.0090378753888541e-05
4.745,0.0,77.50030646859729,0,100,1.0,3,6.068685094798711e-06
4.75,0.0,77.5001820128428,0,100,1.0,3,3.604214708898911e-06
4.755,0.0,77.50010674486768,0,100,1.0,3,2.1137597560248262e-06
4.76,0.0,77.50006181884571,0,100,1.0,3,1.2241355585785532e-06
4.765,0.0,77.50003535279038,0,100,1.0,3,7.000552549884965e-07
4.77,0.0,77.50001996436139,0,100,1.0,3,3.9533388881990153e-07
4.775,0.0,77.50001113309885,0,100,1.0,3,2.204574030039823e-07
4.78,0.0,77.50000613063735,0,100,1.0,3,1.2139875931358919e-07
4.785,0.0,77.5000033336815,0,100,1.0,3,6.601349514987828e-08
4.79,0.001684486749771458,77.50000179007613,0,100,1.0,3,3.544705200871285e-08
4.795,0.00456624331333666,77.50000094917833,0,100,1.0,3,1.8795610471762742e-08
4.8,0.011079731271581421,77.50000049699618,0,100,1.0,3,9.841508501429615e-09
4.805,0.024064571490409,77.50000025697283,0,100,1.0,3,5.088570796852755e-09
4.81,0.046784906529573234,77.50000013120497,0,100,1.0,3,2.59811822661054e-09
4.815,0.08141644351188804,77.50000006615188,0,100,1.0,3,1.3099382964481824e-09
4.82,0.12682276464025305,77.50000003293542,0,100,1.0,4,6.521864940290164e-10
4.825,0.1768320708657512,77.50000001619246,0,100,1.0,4,3.20642751074335e-10
4.83,0.22070063230473494,77.50000000786125,0,100,1.0,4,1.5566823517789575e-10
4.835,0.24656126505113576,77.50000000376876,0,100,1.0,4,7.462893669377658e-11
4.84,0.24656126505724016,77.50000000178417,0,100,1.0,4,3.533015464343785e-11
4.845,0.220700632329898,77.50000000083406,0,100,1.0,4,1.6516108612765068e-11
4.85,0.17683207093748562,77.50000000038503,0,100,1.0,4,7.624334607003625e-12
4.855,0.12682276483597799,77.50000000017552,0,100,1.0,4,3.4756092393556427e-12
4.86,0.08141644409447898,77.50000000007901,0,100,1.0,4,1.5646010339905572e-12
4.865,0.04678490952598309,77.50000000003512,0,100,1.0,4,6.953469703220624e-13
4.87,0.024064605020532023,77.50000000001542,0,100,1.0,4,3.0532232407909255e-13
4.875,0.011080171739334697,77.50000000000668,0,100,1.0,4,1.322594399236622e-13
4.88,0.004571212771509492,77.50000000000286,0,100,1.0,4,5.656201579714065e-14
4.885,0.0017299316936037438,77.50000000000121,0,100,1.0,4,2.3919260411726144e-14
4.89,0.0008899431850697582,77.5000000000005,0,100,1.0,4,9.849107228357824e-15
4.895,0.002128806368910263,77.50000000000021,0,100,1.0,4,4.221045955010496e-15
4.9,0.009309664818487698,77.50000000000009,0,100,1.0,4,1.6884183820041984e-15
4.905,0.03503263543368747,77.50000000000003,0,100,1.0,4,5.628061273347328e-16
4.91,0.10606267793605692,77.50000000000001,0,100,1.0,4,2.814030636673664e-16
4.915,0.25734927343160535,77.5,0,100,1.0,4,0.0
4.92,0.5003202479539708,77.5,0,100,1.0,4,0.0
4.925,0.7793067891790435,77.5,0,100,1.0,4,0.0
4.93,0.9720477407234077,77.5000029632167,1,100,1.0,4,5.867755844249559e-08
4.935,0.967267334488097,77.50000611949993,0,100,1.0,4,1.2117821641611342e-07
4.94,0.7505869905515209,77.5000136661605,0,100,1.0,4,2.706170395714874e-07
4.945,0.4028369574773956,77.50003448761683,0,100,1.0,4,6.829231055424244e-07
4.95,0.04553881263121314,77.50009893563154,0,100,1.0,4,1.9591214166635243e-06
4.955,-0.189138810908105,77.50030887479707,0,100,1.0,4,6.1163326152625205e-06
4.96,-0.22868072635956738,77.50098936987865,0,100,1.0,4,1.9591482745598493e-05
4.965,-0.14104670682394166,77.50311109919818,0,100,1.0,4,6.160592471641763e-05
4.97,-0.051158381651102834,77.50936430658398,0,100,1.0,4,0.00018543181354407307
4.975,-0.008206426846427752,77.52663503308537,0,100,1.0,4,0.0005274263977300939
4.98,0.005350271385530505,77.57113795423459,0,100,1.0,4,0.0014086723610809244
4.985,0.01084668799215426,77.67785621339104,0,100,1.0,4,0.003521905215664127
4.99,0.016256859896386415,77.9156022259755,0,100,1.0,4,0.008229747049019897
4.995,0.02345021205790711,78.4069380257099,0,100,1.0,4,0.017959168825938725
5.0,0.0330621597308209,79.34748987799968,0,100,1.0,4,0.036583957980191636
5.005,0.04559141319943196,81.01228362930992,0,100,1.0,4,0.06955017087742416
5.01,0.06149084917446989,83.73079902637203,0,100,1.0,4,0.12338215893805991
5.015,0.08111733445924295,87.81367872264438,0,100,1.0,4,0.20423126183454224
5.02,0.1046628598272375,93.4288216152286,0,100,1.0,4,0.3154222102025465
5.025,0.1320831047748631,100.45351412056698,0,100,1.0,4,0.4545250320904352
5.03,0.16303381314489318,108.36134960751014,0,100,1.0,4,0.6111158338120819
5.035,0.19682662652900276,116.21652194472324,0,100,1.0,4,0.7666638008856087
5.04,0.23241585813229,122.82360122088085,0,100,1.0,4,0.8974970538788286
5.045,0.26842527782774417,127.01713839847308,0,100,1.0,4,0.9805373940291698
5.05,0.30321927900592993,128.0,0,100,1.0,4,1.0
5.055,0.3350163137995362,125.59701682575721,0,100,1.0,4,0.9524161747674694
5.06,0.3620352400956416,120.3140247604608,0,100,1.0,4,0.8478024705041742
5.065,0.3826586036805073,113.17578272521496,0,100,1.0,4,0.7064511430735635
5.07,0.39559233134833227,105.41460450461524,0,100,1.0,4,0.5527644456359454
5.075,0.4,98.1397912084383,0,100,1.0,4,0.40870873680075837
5.08,0.39559233134833227,92.10783014594557,0,100,1.0,4,0.2892639632860509
5.085,0.3826586036805073,87.64951021194136,0,100,1.0,4,0.2009804002364626
5.09,0.3620352400956416,84.73520644729147,0,100,1.0,4,0.143271414797851
5.095,0.3350163137995362,83.11302488416099,0,100,1.0,4,0.11114900760714837
5.1,0.3032192790059296,82.45012180045974,0,100,1.0,4,0.09802221387048991
5.105,0.26842527782774417,82.43311100444015,0,100,1.0,4,0.09768536642455743
5.11,0.23241585813229,82.8162323398421,0,100,1.0,4,0.10527192752162579
5.115,0.19682662652900276,83.42866618321837,0,100,1.0,4,0.11739933036075977
5.12,0.16303381314489318,84.1600622480566,0,100,1.0,4,0.13188242075359613
5.125,0.13208310477486307,84.940236624999,0,100,1.0,4,0.14733141831681193
5.13,0.10466285982723562,85.72195777553705,0,100,1.0,4,0.1628110450601396
5.135,0.08111733445917907,86.4696633299647,0,100,1.0,4,0.1776170956428654
5.14,0.06149084917398798,87.15353818842898,0,100,1.0,4,0.19115917204809865
5.145,0.04559141333598128,87.74725089071974,0,100,1.0,4,0.2029158592221731
5.15,0.03306217087257399,88.22774168238095,0,100,1.0,4,0.21243052836397924
5.155,0.02345067901074276,88.57593914149084,0,100,1.0,4,0.21932552755427395
5.16,0.016268788896435526,88.77773137510404,0,100,1.0,4,0.2233214133683968
5.165,0.011039026374860051,88.82481855964929,0,100,1.0,4,0.22425383286434233
5.17,0.007326255555493689,88.71524935893723,0,100,1.0,4,0.22208414572152926
5.175,0.0047556414315231815,88.45354650959632,0,100,1.0,4,0.21690191108111528
5.18,0.0030193390635632803,88.05039484238684,0,100,1.0,4,0.20891870975023438
5.185,0.001874953127946523,87.52191701266186,0,100,1.0,4,0.1984538022309279
5.19,0.0011387927410965778,86.88860404516025,0,100,1.0,4,0.18591295138931188
5.195,0.0006765107634274089,86.17399918548756,0,100,1.0,4,0.17176236010866455
5.2,0.00039307957404427924,85.40325259759987,0,100,1.0,4,0.15650005143762127
5.205,0.00022338910511776318,84.60166988532686,0,100,1.0,4,0.14062712644211597
5.21,0.00012417073320013317,83.79336949573046,0,100,1.0,4,0.12462117813327643
5.215,6.750753468904987e-05,83.00014467233905,0,100,1.0,4,0.10891375588790192
5.22,3.5897234866245036e-05,82.2405979846216,0,100,1.0,4,0.09387322741824954
5.225,1.8670050400879738e-05,81.52958456421845,0,100,1.0,4,0.07979375374690006
5.23,9.497421874143672e-06,80.8779681711764,0,100,1.0,4,0.06689045883517634
5.235,4.725434140340885e-06,80.29266578507671,0,100,1.0,4,0.05530031257577638
5.24,2.299606063738814e-06,79.77693434234938,0,100,1.0,4,0.045087808759393624
5.245,1.0945633976635486e-06,79.33083911757771,0,100,1.0,4,0.03625423995203387
5.25,5.095703414287532e-07,78.95183743607637,0,100,1.0,4,0.028749256159928207
5.255,2.3202944964797243e-07,78.63541317800785,0,100,1.0,4,0.022483429267482213
5.26,1.0333746954038608e-07,78.3757053491493,0,100,1.0,4,0.017340699983154448
5.265,4.501406988770349e-08,78.16608584846017,0,100,1.0,4,0.013189818781389513
5.27,0.0,77.99965535153865,0,100,1.0,4,0.00989416537700296
5.275,0.0,77.86964004284735,0,100,1.0,4,0.007319604808858435
5.28,0.0,77.7696842680522,0,100,1.0,4,0.005340282535687178
5.285,0.0,77.69404405685896,0,100,1.0,4,0.0038424565714644857
5.29,0.0,77.63769342762592,0,100,1.0,4,0.0027266025272459243
5.295,0.0,77.59635942692422,0,100,1.0,4,0.0019081074638460122
5.3,0.0,77.56650332172448,0,100,1.0,4,0.0013168974598907444
5.305,0.0,77.54526479938636,0,100,1.0,4,0.0008963326611160258
5.31,0.0,77.53038407321809,0,100,1.0,4,0.0006016648161997493
5.315,0.0,77.52011404975813,0,100,1.0,4,0.0003982980150125725
5.32,0.0,77.51313170683527,0,100,1.0,4,0.0002600337987181626
5.325,0.0,77.50845494854985,0,100,1.0,4,0.0001674247237594887
5.33,0.0,77.5053686969771,0,100,1.0,4,0.00010631083122971762
5.335,0.0,77.50336197861758,0,100,1.0,4,6.6573834011411e-05
5.34,0.0,77.50207629536354,0,100,1.0,4,4.1114759673998586e-05
5.345,0.0,77.5012645949802,0,100,1.0,4,2.5041484756421046e-05
5.35,0.0,77.50075959466382,0,100,1.0,4,1.5041478491465937e-05
5.355,0.0,77.50044996681824,0,100,1.0,4,8.910234024507182e-06
5.36,0.0,77.50026287374051,0,100,1.0,4,5.205420604165783e-06
5.365,0.0,77.50015145445519,0,100,1.0,4,2.9990981226213685e-06
5.37,0.0,77.5000860567684,0,100,1.0,4,1.7040944236790586e-06
5.375,0.0,77.50004822321333,0,100,1.0,4,9.549151153769704e-07
5.38,0.0,77.50002664988816,0,100,1.0,4,5.277205575409182e-07
5.385,0.0,77.50001452455274,0,100,1.0,4,2.87614905726802e-07
5.39,0.0,77.50000780689389,0,100,1.0,4,1.545919582269454e-07
5.395,0.001684486749771458,77.5000041382995,0,100,1.0,4,8.194652479579589e-08
5.4,0.00456624331333666,77.5000021633844,0,100,1.0,4,4.2839294936507795e-08
5.405,0.011079731271581421,77.50000111535623,0,100,1.0,4,2.2086261919461736e-08
5.41,0.024064571490409,77.50000056710259,0,100,1.0,4,1.1229754235419834e-08
5.415,0.046784906529573234,77.5000002843661,0,100,1.0,4,5.631011784469881e-09
5.42,0.08141644351188804,77.50000014062486,0,100,1.0,4,2.784650749811473e-09
5.425,0.12682276464025305,77.5000000685827,0,100,1.0,4,1.3580731346976763e-09
5.43,0.1768320708657512,77.5000000329864,0,100,1.0,4,6.53196168221455e-10
5.435,0.22070063230473494,77.50000001564673,0,100,1.0,4,3.0983631062338077e-10
5.44,0.24656126505113576,77.50000000731949,0,100,1.0,4,1.4494030618170475e-10
5.445,0.24656126505724016,77.5000000033768,0,100,1.0,4,6.686727739170327e-11
5.45,0.220700632329898,77.50000000153638,0,100,1.0,4,3.042332942226998e-11
5.455,0.17683207093748562,77.50000000068938,0,100,1.0,4,1.3651144021567612e-11
5.46,0.12682276483597799,77.50000000030506,0,100,1.0,4,6.0408795677473545e-12
5.465,0.08141644409447898,77.50000000013313,0,100,1.0,4,2.6361839004358887e-12
5.47,0.04678490952598309,77.5000000000573,0,100,1.0,4,1.1346171527068214e-12
5.475,0.024064605020532023,77.50000000002431,0,100,1.0,4,4.81480641934864e-13
5.48,0.011080171739334697,77.50000000001017,0,100,1.0,4,2.0148459358583435e-13
5.485,0.004571212771509492,77.5000000000042,0,100,1.0,4,8.329530684554046e-14
5.49,0.0017299316936037438,77.5000000000017,0,100,1.0,4,3.376836764008397e-14
5.495,0.0008899431850697582,77.50000000000068,0,100,1.0,4,1.3507347056033587e-14
5.5,0.002128806368910263,77.50000000000027,0,100,1.0,4,5.346658209679962e-15
5.505,0.009309664818487698,77.5000000000001,0,100,1.0,4,1.969821445671565e-15
5.51,0.03503263543368747,77.50000000000004,0,100,1.0,4,8.442091910020992e-16
5.515,0.10606267793605692,77.50000000000001,0,100,1.0,4,2.814030636673664e-16
5.52,0.25734927343160535,77.5,0,100,1.0,4,0.0
5.525,0.5003202479539708,77.5,0,100,1.0,4,0.0
5.53,0.7793067891790435,77.5,0,100,1.0,4,0.0
5.535,0.9720477407234077,77.50000297262514,1,100,1.0,4,5.8863864154827213e-08
5.54,0.967267334488097,77.50000602692357,0,100,1.0,4,1.193450212231075e-07
5.545,0.7505869905515209,77.50001314884915,0,100,1.0,4,2.603732504761829e-07
5.55,0.4028369574773956,77.50003218277465,0,100,1.0,4,6.372826662597374e-07
5.555,0.04553881263121314,77.5000891336331,0,100,1.0,4,1.7650224375563202e-06
5.56,-0.189138810908105,77.5002690214767,0,100,1.0,4,5.32715795439925e-06
5.565,-0.22868072635956738,77.50083732265789,0,100,1.0,4,1.6580646690828313e-05
5.57,-0.14104670682394166,77.50257317183726,0,100,1.0,4,5.09538977674351e-05
5.575,-0.051158381651102834,77.5076082097914,0,100,1.0,4,0.00015065761963167613
5.58,-0.008206426846427752,77.52135258747315,0,100,1.0,4,0.0004228235143197217
5.585,0.005350271385530505,77.55649700924465,0,100,1.0,4,0.0011187526583099309
5.59,0.01084668799215426,77.64045440057028,0,100,1.0,4,0.0027812752588173757
5.595,0.016256859896386415,77.82751617390053,0,100,1.0,4,0.006485468790109587
5.6,0.02345021205790711,78.21569569973141,0,100,1.0,4,0.014172192073889358
5.605,0.0330621597308209,78.96491975294279,0,100,1.0,4,0.029008311939461205
5.61,0.04559141319943196,80.30785299502509,0,100,1.0,4,0.05560104940643736
5.615,0.06149084917446989,82.53901529227541,0,100,1.0,4,0.0997824810351566
5.62,0.08111733445924295,85.96626012174221,0,100,1.0,4,0.16764871528202394
5.625,0.1046628598272375,90.81658192531896,0,100,1.0,4,0.2636946915904744
5.63,0.1320831047748631,97.10833980159956,0,100,1.0,4,0.38828395646731795
5.635,0.16303381314489318,104.52938760793602,0,100,1.0,4,0.5352353981769508
5.64,0.19682662652900276,112.38094101245923,0,100,1.0,4,0.6907117032170145
5.645,0.23241585813229,119.64223165483207,0,100,1.0,4,0.834499636729348
5.65,0.26842527782774417,125.1719099748606,0,100,1.0,4,0.9439982173239723
5.655,0.30321927900592993,128.0,0,100,1.0,4,1.0
5.66,0.3350163137995362,127.6101393237791,0,100,1.0,4,0.992279986609487
5.665,0.3620352400956416,124.10010403781507,0,100,1.0,4,0.9227743373824767
5.67,0.3826586036805073,118.15277378027952,0,100,1.0,4,0.8050054213916736
5.675,0.39559233134833227,110.8299379581053,0,100,1.0,4,0.6599987714476298
5.68,0.4,103.27489006078626,0,100,1.0,4,0.510393862589827
5.685,0.39559233134833227,96.43814350154825,0,100,1.0,4,0.3750127426049159
5.69,0.3826586036805073,90.9137835998359,0,100,1.0,4,0.26561947722447316
5.695,0.3620352400956416,86.9136909261355,0,100,1.0,4,0.1864097213096139
5.7,0.3350163137995362,84.34894125219122,0,100,1.0,4,0.13562259905329158
5.705,0.3032192790059296,82.95851223358169,0,100,1.0,4,0.10808935116003339
5.71,0.26842527782774417,82.42961246934831,0,100,1.0,4,0.09761608850194681
5.715,0.23241585813229,82.47825904809713,0,100,1.0,4,0.09857938709103227
5.72,0.19682662652900276,82.88510695734854,0,100,1.0,4,0.10663578133363447
5.725,0.16303381314489318,83.49817142324218,0,100,1.0,4,0.11877567174736997
5.73,0.13208310477486307,84.218703403949,0,100,1.0,4,0.1330436317613662
5.735,0.10466285982723562,84.98313005843968,0,100,1.0,4,0.14818079323642938
5.74,0.08111733445917907,85.74806308660983,0,100,1.0,4,0.163327981913066
5.745,0.06149084917398798,86.48049615879853,0,100,1.0,4,0.17783160710492138
5.75,0.04559141333598128,87.1526196872008,0,100,1.0,4,0.19114098390496628
5.755,0.03306217087257399,87.73979816955085,0,100,1.0,4,0.20276828058516538
5.76,0.02345067901074276,88.22034613356011,0,100,1.0,4,0.2122840818526755
5.765,0.016268788896435526,88.57613991279077,0,100,1.0,4,0.2193295032235795
5.77,0.011039026374860051,88.79347868239333,0,100,1.0,4,0.22363324123551145
5.775,0.007326255555493689,88.86386439984123,0,100,1.0,4,0.2250270178186383
5.78,0.0047556414315231815,88.78452238775425,0,100,1.0,4,0.22345588886642082
5.785,0.0030193390635632803,88.55857365850133,0,100,1.0,4,0.21898165660398675
5.79,0.001874953127946523,88.19482866332193,0,100,1.0,4,0.2117787854123154
5.795,0.0011387927410965778,87.70721657209255,0,100,1.0,4,0.2021231004374762
5.8,0.0006765107634274089,87.11390019357708,0,100,1.0,4,0.1903742612589521
5.805,0.00039307957404427924,86.43615452975533,0,100,1.0,4,0.17695355504465995
5.81,0.00022338910511776318,85.6971052748557,0,100,1.0,4,0.16231891633377626
5.815,0.00012417073320013317,84.92043109401514,0,100,1.0,4,0.14693922958445826
5.82,6.750753468904987e-05,84.12913009206147,0,100,1.0,4,0.13126990281309847
5.825,3.5897234866245036e-05,83.3444376315581,0,100,1.0,4,0.11573143824867513
5.83,1.8670050400879738e-05,82.58496182074326,0,100,1.0,4,0.10069231328204475
5.835,9.497421874143672e-06,81.86607755524824,0,100,1.0,4,0.08645698129204434
5.84,4.725434140340885e-06,81.1995932352933,0,100,1.0,4,0.07325927198600607
5.845,2.299606063738814e-06,80.59367928154045,0,100,1.0,4,0.061260975872088036
5.85,1.0945633976635486e-06,80.05302685084085,0,100,1.0,4,0.05055498714536339
5.855,5.095703414287532e-07,79.5791903812813,0,100,1.0,4,0.041172086758045415
5.86,2.3202944964797243e-07,79.17105949996414,0,100,1.0,4,0.03309028712800286
5.865,1.0333746954038608e-07,78.82540422739977,0,100,1.0,4,0.026245628265342033
5.87,4.501406988770349e-08,78.53744138964515,0,100,1.0,4,0.02054339385435946
5.875,0.0,78.30137828670698,0,100,1.0,4,0.01586887696449461
5.88,0.0,78.11090032048983,0,100,1.0,4,0.012097036049303622
5.885,0.0,77.95958084176635,0,100,1.0,4,0.009100610728046602
5.89,0.0,77.84120254425764,0,100,1.0,4,0.006756486024903777
5.895,0.0,77.74998928072644,0,100,1.0,4,0.004950282786662154
5.9,0.0,77.68075457337353,0,100,1.0,4,0.0035792984826442343
5.905,0.0,77.62897810246339,0,100,1.0,4,0.0025540218309582667
5.91,0.0,77.59082417329567,0,100,1.0,4,0.0017984984811024256
5.915,0.0,77.56311690651798,0,100,1.0,4,0.0012498397330292315
5.92,0.0,77.54328612787634,0,100,1.0,4,0.0008571510470562883
5.925,0.0,77.52929615012752,0,100,1.0,4,0.0005801217847033963
5.93,0.0,77.51956731102686,0,100,1.0,4,0.00038747150548240573
5.935,0.0,77.51289764815891,0,100,1.0,4,0.00025539897344380267
5.94,0.0,77.5083897435128,0,100,1.0,4,0.00016613353490680706
5.945,0.0,77.5053857429786,0,100,1.0,4,0.00010664837581393074
5.95,0.0,77.50341193968492,0,100,1.0,4,6.756316207769271e-05
5.955,0.0,77.50213312275217,0,100,1.0,4,4.224005449841435e-05
5.96,0.0,77.50131610073626,0,100,1.0,4,2.606140071804367e-05
5.965,0.0,77.5008013480742,0,100,1.0,4,1.586827869713002e-05
5.97,0.0,77.50048151746557,0,100,1.0,4,9.53499931828185e-06
5.975,0.0,77.5002855365269,0,100,1.0,4,5.654188651540086e-06
5.98,0.0,77.50016709755003,0,100,1.0,4,3.3088623768948633e-06
5.985,0.0,77.50009650221315,0,100,1.0,4,1.910934913937153e-06
5.99,0.0,77.50005500007046,0,100,1.0,4,1.0891103061517737e-06
5.995,0.0,77.50003093484894,0,100,1.0,4,6.125712660728949e-07
6.0,0.0,77.50001717083974,0,100,1.0,4,3.400166285205565e-07
6.005,0.0,77.5000094057591,0,100,1.0,4,1.862526554723805e-07
6.01,0.0,77.50000508457842,0,100,1.0,4,1.0068472116328471e-07
6.015,0.001684486749771458,77.50000271253174,0,100,1.0,4,5.371349977782068e-08
6.02,0.00456624331333666,77.50000142808314,0,100,1.0,4,2.8278874019138535e-08
6.025,0.011079731271581421,77.50000074197783,0,100,1.0,5,1.4692630267547591e-08
6.03,0.024064571490409,77.50000038044087,0,100,1.0,5,7.533482502286362e-09
6.035,0.046784906529573234,77.50000019250507,0,100,1.0,5,3.811981577479792e-09
6.04,0.08141644351188804,77.50000009612934,0,100,1.0,5,1.9035513055809637e-09
6.045,0.12682276464025305,77.50000004737274,0,100,1.0,5,9.38073996918986e-10
6.05,0.1768320708657512,77.5000000230388,0,100,1.0,5,4.562137422512348e-10
6.055,0.22070063230473494,77.50000001105732,0,100,1.0,5,2.1895690980894113e-10
6.06,0.24656126505113576,77.5000000052372,0,100,1.0,5,1.0370687806865288e-10
6.065,0.24656126505724016,77.50000000244798,0,100,1.0,5,4.8474773150404206e-11
6.07,0.220700632329898,77.50000000112921,0,100,1.0,5,2.2360568842072603e-11
6.075,0.17683207093748562,77.50000000051404,0,100,1.0,5,1.0178911618975978e-11
6.08,0.12682276483597799,77.50000000023093,0,100,1.0,5,4.5727997845947045e-12
6.085,0.08141644409447898,77.50000000010237,0,100,1.0,5,2.0272276706597077e-12
6.09,0.04678490952598309,77.50000000004479,0,100,1.0,5,8.869824566795389e-13
6.095,0.024064605020532023,77.50000000001934,0,100,1.0,5,3.829895696512857e-13
6.1,0.011080171739334697,77.50000000000824,0,100,1.0,5,1.632137769270725e-13
6.105,0.004571212771509492,77.50000000000347,0,100,1.0,5,6.86623475348374e-14
6.11,0.0017299316936037438,77.50000000000144,0,100,1.0,5,2.842170943040401e-14
6.115,0.0008899431850697582,77.50000000000058,0,100,1.0,5,1.1537525610362024e-14
6.12,0.002128806368910263,77.50000000000024,0,100,1.0,5,4.783852082345229e-15
6.125,0.009309664818487698,77.5000000000001,0,100,1.0,5,1.969821445671565e-15
6.13,0.03503263543368747,77.50000000000004,0,100,1.0,5,8.442091910020992e-16
6.135,0.10606267793605692,77.50000000000001,0,100,1.0,5,2.814030636673664e-16
6.14,0.25734927343160535,77.5,0,100,1.0,5,0.0
6.145,0.5003202479539708,77.5,0,100,1.0,5,0.0
6.15,0.7793067891790435,77.5,0,100,1.0,5,0.0
6.155,0.9720477407234077,77.50000297262514,1,100,1.0,5,5.8863864154827213e-08
6.16,0.967267334488097,77.50000602692357,0,100,1.0,5,1.193450212231075e-07
6.165,0.7505869905515209,77.50001314884915,0,100,1.0,5,2.603732504761829e-07
6.17,0.4028369574773956,77.50003218277465,0,100,1.0,5,6.372826662597374e-07
6.175,0.04553881263121314,77.5000891336331,0,100,1.0,5,1.7650224375563202e-06
6.18,-0.189138810908105,77.5002690214767,0,100,1.0,5,5.32715795439925e-06
6.185,-0.22868072635956738,77.50083732265789,0,100,1.0,5,1.6580646690828313e-05
6.19,-0.14104670682394166,77.50257317183726,0,100,1.0,5,5.09538977674351e-05
6.195,-0.051158381651102834,77.5076082097914,0,100,1.0,5,0.00015065761963167613
6.2,-0.008206426846427752,77.52135258747315,0,100,1.0,5,0.0004228235143197217
6.205,0.005350271385530505,77.55649700924465,0,100,1.0,5,0.0011187526583099309
6.21,0.01084668799215426,77.64045440057028,0,100,1.0,5,0.0027812752588173757
6.215,0.016256859896386415,77.82751617390053,0,100,1.0,5,0.006485468790109587
6.22,0.02345021205790711,78.21569569973141,0,100,1.0,5,0.014172192073889358
6.225,0.0330621597308209,78.96491975294279,0,100,1.0,5,0.029008311939461205
6.23,0.04559141319943196,80.30785299502509,0,100,1.0,5,0.05560104940643736
6.235,0.06149084917446989,82.53901529227541,0,100,1.0,5,0.0997824810351566
6.24,0.08111733445924295,85.96626012174221,0,100,1.0,5,0.16764871528202394
6.245,0.1046628598272375,90.81658192531896,0,100,1.0,5,0.2636946915904744
6.25,0.1320831047748631,97.10833980159956,0,100,1.0,5,0.38828395646731795
6.255,0.16303381314489318,104.52938760793602,0,100,1.0,5,0.5352353981769508
6.26,0.19682662652900276,112.38094101245923,0,100,1.0,5,0.6907117032170145
6.265,0.23241585813229,119.64223165483207,0,100,1.0,5,0.834499636729348
6.27,0.26842527782774417,125.1719099748606,0,100,1.0,5,0.9439982173239723
6.275,0.30321927900592993,128.0,0,100,1.0,5,1.0
6.28,0.3350163137995362,127.6101393237791,0,100,1.0,5,0.992279986609487
6.285,0.3620352400956416,124.10010403781507,0,100,1.0,5,0.9227743373824767
6.29,0.3826586036805073,118.15277378027952,0,100,1.0,5,0.8050054213916736
6.295,0.39559233134833227,110.8299379581053,0,100,1.0,5,0.6599987714476298
6.3,0.4,103.27489006078626,0,100,1.0,5,0.510393862589827
6.305,0.39559233134833227,96.43814350154825,0,100,1.0,5,0.3750127426049159
6.31,0.3826586036805073,90.9137835998359,0,100,1.0,5,0.26561947722447316
6.315,0.3620352400956416,86.9136909261355,0,100,1.0,5,0.1864097213096139
6.32,0.3350163137995362,84.34894125219122,0,100,1.0,5,0.13562259905329158
6.325,0.3032192790059296,82.95851223358169,0,100,1.0,5,0.10808935116003339
6.33,0.26842527782774417,82.42961246934831,0,100,1.0,5,0.09761608850194681
6.335,0.23241585813229,82.47825904809713,0,100,1.0,5,0.09857938709103227
6.34,0.19682662652900276,82.88510695734854,0,100,1.0,5,0.10663578133363447
6.345,0.16303381314489318,83.49817142324218,0,100,1.0,5,0.11877567174736997
6.35,0.13208310477486307,84.218703403949,0,100,1.0,5,0.1330436317613662
6.355,0.10466285982723562,84.98313005843968,0,100,1.0,5,0.14818079323642938
6.36,0.08111733445917907,85.74806308660983,0,100,1.0,5,0.163327981913066
6.365,0.06149084917398798,86.48049615879853,0,100,1.0,5,0.17783160710492138
6.37,0.04559141333598128,87.1526196872008,0,100,1.0,5,0.19114098390496628
6.375,0.03306217087257399,87.73979816955085,0,100,1.0,5,0.20276828058516538
6.38,0.02345067901074276,88.22034613356011,0,100,1.0,5,0.2122840818526755
6.385,0.016268788896435526,88.57613991279077,0,100,1.0,5,0.2193295032235795
6.39,0.011039026374860051,88.79347868239333,0,100,1.0,5,0.22363324123551145
6.395,0.007326255555493689,88.86386439984123,0,100,1.0,5,0.2250270178186383
6.4,0.0047556414315231815,88.78452238775425,0,100,1.0,5,0.22345588886642082
6.405,0.0030193390635632803,88.55857365850133,0,100,1.0,5,0.21898165660398675
6.41,0.001874953127946523,88.19482866332193,0,100,1.0,5,0.2117787854123154
6.415,0.0011387927410965778,87.70721657209255,0,100,1.0,5,0.2021231004374762
6.42,0.0006765107634274089,87.11390019357708,0,100,1.0,5,0.1903742612589521
6.425,0.00039307957404427924,86.43615452975533,0,100,1.0,5,0.17695355504465995
6.43,0.00022338910511776318,85.6971052748557,0,100,1.0,5,0.16231891633377626
6.435,0.00012417073320013317,84.92043109401514,0,100,1.0,5,0.14693922958445826
6.44,6.750753468904987e-05,84.12913009206147,0,100,1.0,5,0.13126990281309847
6.445,3.5897234866245036e-05,83.3444376315581,0,100,1.0,5,0.11573143824867513
6.45,1.8670050400879738e-05,82.58496182074326,0,100,1.0,5,0.10069231328204475
6.455,9.497421874143672e-06,81.86607755524824,0,100,1.0,5,0.08645698129204434
6.46,4.725434140340885e-06,81.1995932352933,0,100,1.0,5,0.07325927198600607
6.465,2.299606063738814e-06,80.59367928154045,0,100,1.0,5,0.061260975872088036
6.47,1.0945633976635486e-06,80.05302685084085,0,100,1.0,5,0.05055498714536339
6.475,5.095703414287532e-07,79.5791903812813,0,100,1.0,5,0.041172086758045415
6.48,2.3202944964797243e-07,79.17105949996414,0,100,1.0,5,0.03309028712800286
6.485,1.0333746954038608e-07,78.82540422739977,0,100,1.0,5,0.026245628265342033
6.49,4.501406988770349e-08,78.53744138964515,0,100,1.0,5,0.02054339385435946
6.495,0.0,78.30137828670698,0,100,1.0,5,0.01586887696449461
6.5,0.0,78.11090032048983,0,100,1.0,5,0.012097036049303622
6.505,0.0,77.95958084176635,0,100,1.0,5,0.009100610728046602
6.51,0.0,77.84120254425764,0,100,1.0,5,0.006756486024903777
6.515,0.0,77.74998928072644,0,100,1.0,5,0.004950282786662154
6.52,0.0,77.68075457337353,0,100,1.0,5,0.0035792984826442343
6.525,0.0,77.62897810246339,0,100,1.0,5,0.0025540218309582667
6.53,0.0,77.59082417329567,0,100,1.0,5,0.0017984984811024256
6.535,0.0,77.56311690651798,0,100,1.0,5,0.0012498397330292315
6.54,0.0,77.54328612787634,0,100,1.0,5,0.0008571510470562883
6.545,0.0,77.52929615012752,0,100,1.0,5,0.0005801217847033963
6.55,0.0,77.51956731102686,0,100,1.0,5,0.00038747150548240573
6.555,0.0,77.51289764815891,0,100,1.0,5,0.00025539897344380267
6.56,0.0,77.5083897435128,0,100,1.0,5,0.00016613353490680706
6.565,0.0,77.5053857429786,0,100,1.0,5,0.00010664837581393074
6.57,0.0,77.50341193968492,0,100,1.0,5,6.756316207769271e-05
6.575,0.0,77.50213312275217,0,100,1.0,5,4.224005449841435e-05
6.58,0.0,77.50131610073626,0,100,1.0,5,2.606140071804367e-05
6.585,0.0,77.5008013480742,0,100,1.0,5,1.586827869713002e-05
6.59,0.0,77.50048151746557,0,100,1.0,5,9.53499931828185e-06
6.595,0.0,77.5002855365269,0,100,1.0,5,5.654188651540086e-06
6.6,0.0,77.50016709755003,0,100,1.0,5,3.3088623768948633e-06
6.605,0.0,77.50009650221315,0,100,1.0,5,1.910934913937153e-06
6.61,0.0,77.50005500007046,0,100,1.0,5,1.0891103061517737e-06
6.615,0.0,77.50003093484894,0,100,1.0,5,6.125712660728949e-07
6.62,0.0,77.50001717083974,0,100,1.0,5,3.400166285205565e-07
6.625,0.0,77.5000094057591,0,100,1.0,5,1.862526554723805e-07
6.63,0.0,77.50000508457842,0,100,1.0,5,1.0068472116328471e-07
6.635,0.001684486749771458,77.50000271253174,0,100,1.0,5,5.371349977782068e-08
6.64,0.00456624331333666,77.50000142808314,0,100,1.0,5,2.8278874019138535e-08
6.645,0.011079731271581421,77.50000074197783,0,100,1.0,5,1.4692630267547591e-08
6.65,0.024064571490409,77.50000038044087,0,100,1.0,5,7.533482502286362e-09
6.655,0.046784906529573234,77.50000019250507,0,100,1.0,5,3.811981577479792e-09
6.66,0.08141644351188804,77.50000009612934,0,100,1.0,5,1.9035513055809637e-09
6.665,0.12682276464025305,77.50000004737274,0,100,1.0,5,9.38073996918986e-10
6.67,0.1768320708657512,77.5000000230388,0,100,1.0,5,4.562137422512348e-10
6.675,0.22070063230473494,77.50000001105732,0,100,1.0,5,2.1895690980894113e-10
6.68,0.24656126505113576,77.5000000052372,0,100,1.0,5,1.0370687806865288e-10
6.685,0.24656126505724016,77.50000000244798,0,100,1.0,5,4.8474773150404206e-11
6.69,0.220700632329898,77.50000000112921,0,100,1.0,5,2.2360568842072603e-11
6.695,0.17683207093748562,77.50000000051404,0,100,1.0,5,1.0178911618975978e-11
6.7,0.12682276483597799,77.50000000023093,0,100,1.0,5,4.5727997845947045e-12
6.705,0.08141644409447898,77.50000000010237,0,100,1.0,5,2.0272276706597077e-12
6.71,0.04678490952598309,77.50000000004479,0,100,1.0,5,8.869824566795389e-13
6.715,0.024064605020532023,77.50000000001934,0,100,1.0,5,3.829895696512857e-13
6.72,0.011080171739334697,77.50000000000824,0,100,1.0,5,1.632137769270725e-13
6.725,0.004571212771509492,77.50000000000347,0,100,1.0,5,6.86623475348374e-14
6.73,0.0017299316936037438,77.50000000000144,0,100,1.0,5,2.842170943040401e-14
6.735,0.0008899431850697582,77.50000000000058,0,100,1.0,5,1.1537525610362024e-14
6.74,0.002128806368910263,77.50000000000024,0,100,1.0,5,4.783852082345229e-15
6.745,0.009309664818487698,77.5000000000001,0,100,1.0,5,1.969821445671565e-15
6.75,0.03503263543368747,77.50000000000004,0,100,1.0,5,8.442091910020992e-16
6.755,0.10606267793605692,77.50000000000001,0,100,1.0,5,2.814030636673664e-16
6.76,0.25734927343160535,77.5,0,100,1.0,5,0.0
6.765,0.5003202479539708,77.5,0,100,1.0,5,0.0
6.77,0.7793067891790435,77.5,0,100,1.0,5,0.0
6.775,0.9720477407234077,77.50000295860458,1,100,1.0,5,5.8586229359585414e-08
6.78,0.967267334488097,77.50000607194025,0,100,1.0,5,1.2023644056189188e-07
6.785,0.7505869905515209,77.50001345273148,0,100,1.0,5,2.663907223742883e-07
6.79,0.4028369574773956,77.5000335974731,0,100,1.0,5,6.65296497145121e-07
6.795,0.04553881263121314,77.5000952391376,0,100,1.0,5,1.8859235166978084e-06
6.8,-0.189138810908105,77.50029396174413,0,100,1.0,5,5.821024636320949e-06
6.805,-0.22868072635956738,77.50093256649718,0,100,1.0,5,1.8466663310573943e-05
6.81,-0.14104670682394166,77.5029100232732,0,100,1.0,5,5.762422323172278e-05
6.815,-0.051158381651102834,77.50870714352278,0,100,1.0,5,0.00017241868361948757
6.82,-0.008206426846427752,77.5246562773498,0,100,1.0,5,0.00048824311583773423
6.825,0.005350271385530505,77.56565066778992,0,100,1.0,5,0.0013000132235628605
6.83,0.01084668799215426,77.66383990810884,0,100,1.0,5,0.0032443546160166505
6.835,0.016256859896386415,77.88262038992832,0,100,1.0,5,0.007576641384719209
6.84,0.02345021205790711,78.33545183145863,0,100,1.0,5,0.016543600622943112
6.845,0.0330621597308209,79.20484989603223,0,100,1.0,5,0.03375940388182632
6.85,0.04559141319943196,80.75054676642503,0,100,1.0,5,0.06436726270148578
6.855,0.06149084917446989,83.28992906835192,0,100,1.0,5,0.11465206075944404
6.86,0.08111733445924295,87.13394030962314,0,100,1.0,5,0.19077109524006222
6.865,0.1046628598272375,92.47378991953458,0,100,1.0,5,0.2965106914759323
6.87,0.1320831047748631,99.23955414039685,0,100,1.0,5,0.43048622060191777
6.875,0.16303381314489318,106.98246625036123,0,100,1.0,5,0.5838112128784402
6.88,0.19682662652900276,114.8494723141842,0,100,1.0,5,0.7395935111719643
6.885,0.23241585813229,121.70177762100317,0,100,1.0,5,0.8752827251683797
6.89,0.26842527782774417,126.37413972136399,0,100,1.0,5,0.9678047469577027
6.895,0.30321927900592993,128.0,0,100,1.0,5,1.0
6.9,0.3350163137995362,126.27952255457706,0,100,1.0,5,0.9659311396945952
6.905,0.3620352400956416,121.57753056726469,0,100,1.0,5,0.8728223874705879
6.91,0.3826586036805073,114.80819134861454,0,100,1.0,5,0.7387760663091989
6.915,0.39559233134833227,107.1570555269131,0,100,1.0,5,0.5872684262755069
6.92,0.4,99.75682326894582,0,100,1.0,5,0.44072917364249153
6.925,0.39559233134833227,93.437628290086,0,100,1.0,5,0.3155965998036831
6.93,0.3826586036805073,88.6210265304858,0,100,1.0,5,0.2202183471383328
6.935,0.3620352400956416,85.35521064557099,0,100,1.0,5,0.15554872565487113
6.94,0.3350163137995362,83.43676931776182,0,100,1.0,5,0.11755978847053099
6.945,0.3032192790059296,82.55078966163666,0,100,1.0,5,0.1000156368640922
6.95,0.26842527782774417,82.37990978446584,0,100,1.0,5,0.0966318769201156
6.955,0.23241585813229,82.66385053700031,0,100,1.0,5,0.10225446607921415
6.96,0.19682662652900276,83.21572546574443,0,100,1.0,5,0.11318268248998865
6.965,0.16303381314489318,83.91239791841033,0,100,1.0,5,0.12697817660218486
6.97,0.13208310477486307,84.67546318988141,0,100,1.0,5,0.14208837999765173
6.975,0.10466285982723562,85.45331282711224,0,100,1.0,5,0.1574913431111335
6.98,0.08111733445917907,86.20847512306442,0,100,1.0,5,0.17244505194186965
6.985,0.06149084917398798,86.91043201717129,0,100,1.0,5,0.1863451884588374
6.99,0.04559141333598128,87.53247338289246,0,100,1.0,5,0.19866283926519726
6.995,0.03306217087257399,88.0509704560115,0,100,1.0,5,0.20893010803983164
7.0,0.02345067901074276,88.44584531855038,0,100,1.0,5,0.21674941224852243
7.005,0.016268788896435526,88.70146811501344,0,100,1.0,5,0.22181124980224634
7.01,0.011039026374860051,88.80754517288817,0,100,1.0,5,0.2239117856017459
7.015,0.007326255555493689,88.75976200907462,0,100,1.0,5,0.22296558433811128
7.02,0.0047556414315231815,88.56006114259078,0,100,1.0,5,0.21901111173447094
7.025,0.0030193390635632803,88.21650740561338,0,100,1.0,5,0.2122080674378888
7.03,0.001874953127946523,87.74274663539316,0,100,1.0,5,0.20282666604738933
7.035,0.0011387927410965778,87.15710631316468,0,100,1.0,5,0.19122982798345892
7.04,0.0006765107634274089,86.48142019658886,0,100,1.0,5,0.17784990488294766
7.045,0.00039307957404427924,85.73968176817759,0,100,1.0,5,0.16316201521143742
7.05,0.00022338910511776318,84.95664182706211,0,100,1.0,5,0.14765627380321017
7.055,0.00012417073320013317,84.15646337911748,0,100,1.0,5,0.13181115602212837
7.06,6.750753468904987e-05,83.36153323734182,0,100,1.0,5,0.11606996509587757
7.065,3.5897234866245036e-05,82.59150690834363,0,100,1.0,5,0.10082191897710163
7.07,1.8670050400879738e-05,81.86263483969579,0,100,1.0,5,0.08638880870684726
7.075,9.497421874143672e-06,81.18738775969096,0,100,1.0,5,0.07301757939982106
7.08,4.725434140340885e-06,80.57437030471705,0,100,1.0,5,0.06087861989538713
7.085,2.299606063738814e-06,80.02848839135753,0,100,1.0,5,0.0500690770565847
7.09,1.0945633976635486e-06,79.55131885537037,0,100,1.0,5,0.040620175353868686
7.095,5.095703414287532e-07,79.14162062723075,0,100,1.0,5,0.03250733915308417
7.1,2.3202944964797243e-07,78.79592494440962,0,100,1.0,5,0.025661880087319212
7.105,1.0333746954038608e-07,78.50914673365939,0,100,1.0,5,0.019983103636819648
7.11,4.501406988770349e-08,78.2751686651716,0,100,1.0,5,0.015349874557853577
7.115,0.0,78.08736155817212,0,100,1.0,5,0.01163092194400237
7.12,0.0,77.93901792246764,0,100,1.0,5,0.008693424207280032
7.125,0.0,77.82368785280029,0,100,1.0,5,0.0064096604514908995
7.13,0.0,77.73541708275205,0,100,1.0,5,0.004661724410931694
7.135,0.0,77.66889506741865,0,100,1.0,5,0.0033444567805672436
7.14,0.0,77.61952627338034,0,100,1.0,5,0.0023668568986206853
7.145,0.0,77.583440560487,0,100,1.0,5,0.0016522883264753596
7.15,0.0,77.55745905335685,0,100,1.0,5,0.0011378030367693284
7.155,0.0,77.53903077198105,0,100,1.0,5,0.0007728865738821098
7.16,0.0,77.52615310372167,0,100,1.0,5,0.0005178832420132368
7.165,0.0,77.51728648731061,0,100,1.0,5,0.00034230667941809016
7.17,0.0,77.51127087641395,0,100,1.0,5,0.00022318567156327782
7.175,0.0,77.50724896569103,0,100,1.0,5,0.0001435438750699704
7.18,0.0,77.50459898318086,0,100,1.0,5,9.10689738783267e-05
7.185,0.0,77.50287816056776,0,100,1.0,5,5.699327856952082e-05
7.19,0.0,77.50177678810005,0,100,1.0,5,3.518392277317274e-05
7.195,0.0,77.50108199106754,0,100,1.0,5,2.1425565693793897e-05
7.2,0.0,77.5006499487824,0,100,1.0,5,1.2870272918730328e-05
7.205,0.0,77.50038512526845,0,100,1.0,5,7.626242939628661e-06
7.21,0.0,77.50022510871771,0,100,1.0,5,4.457598370580323e-06
7.215,0.0,77.5001297926306,0,100,1.0,5,2.5701511010358426e-06
7.22,0.0,77.50007382019291,0,100,1.0,5,1.4617859982094934e-06
7.225,0.0,77.50004141596045,0,100,1.0,5,8.201180287752583e-07
7.23,0.0,77.50002292069169,0,100,1.0,6,4.5387508299598373e-07
7.235,0.0,77.50001251281783,0,100,1.0,6,2.477785709414651e-07
7.24,0.0,77.50000673829383,0,100,1.0,6,1.334315610696793e-07
7.245,0.001684486749771458,77.50000357941612,0,100,1.0,6,7.087952705732466e-08
7.25,0.00456624331333666,77.50000187560704,0,100,1.0,6,3.714073347221682e-08
7.255,0.011079731271581421,77.50000096948018,0,100,1.0,6,1.919762739096696e-08
7.26,0.024064571490409,77.5000004943146,0,100,1.0,6,9.788408024718646e-09
7.265,0.046784906529573234,77.5000002486196,0,100,1.0,6,4.923160387610695e-09
7.27,0.08141644351188804,77.50000012334874,0,100,1.0,6,2.442549326714119e-09
7.275,0.12682276464025305,77.50000006036726,0,100,1.0,6,1.1953912095609352e-09
7.28,0.1768320708657512,77.5000000291431,0,100,1.0,6,5.770909910556793e-10
7.285,0.22070063230473494,77.50000001387833,0,100,1.0,6,2.748185133806137e-10
7.29,0.24656126505113576,77.50000000651939,0,100,1.0,6,1.290967508911047e-10
7.295,0.24656126505724016,77.50000000302094,0,100,1.0,6,5.982066327440875e-11
7.3,0.220700632329898,77.50000000138085,0,100,1.0,6,2.7343654293494327e-11
7.305,0.17683207093748562,77.5000000006226,0,100,1.0,6,1.2328831025394658e-11
7.31,0.12682276483597799,77.50000000027693,0,100,1.0,6,5.4837015016859696e-12
7.315,0.08141644409447898,77.50000000012149,0,100,1.0,6,2.4057147912923155e-12
7.32,0.04678490952598309,77.50000000005258,0,100,1.0,6,1.0411913355692557e-12
7.325,0.024064605020532023,77.50000000002245,0,100,1.0,6,4.446168405944389e-13
7.33,0.011080171739334697,77.50000000000945,0,100,1.0,6,1.8713303733879865e-13
7.335,0.004571212771509492,77.50000000000392,0,100,1.0,6,7.766724557219314e-14
7.34,0.0017299316936037438,77.5000000000016,0,100,1.0,6,3.179854619441241e-14
7.345,0.0008899431850697582,77.50000000000065,0,100,1.0,6,1.2944540928698855e-14
7.35,0.002128806368910263,77.50000000000026,0,100,1.0,6,5.065255146012595e-15
7.355,0.009309664818487698,77.5000000000001,0,100,1.0,6,1.969821445671565e-15
7.36,0.03503263543368747,77.50000000000004,0,100,1.0,6,8.442091910020992e-16
7.365,0.10606267793605692,77.50000000000001,0,100,1.0,6,2.814030636673664e-16
7.37,0.25734927343160535,77.5,0,100,1.0,6,0.0
7.375,0.5003202479539708,77.5,0,100,1.0,6,0.0
7.38,0.7793067891790435,77.5,0,100,1.0,6,0.0
7.385,0.9720477407234077,77.50000295858521,1,100,1.0,6,5.858584580720963e-08
7.39,0.967267334488097,77.50000627158161,0,100,1.0,6,1.2418973487865964e-07
7.395,0.7505869905515209,77.50001448202111,0,100,1.0,6,2.867726953417611e-07
7.4,0.4028369574773956,77.5000381880034,0,100,1.0,6,7.56198087153937e-07
7.405,0.04553881263121314,77.50011515393722,0,100,1.0,6,2.2802759844742666e-06
7.41,-0.189138810908105,77.5003768133724,0,100,1.0,6,7.461650938574905e-06
7.415,-0.22868072635956738,77.50125530195008,0,100,1.0,6,2.4857464358047304e-05
7.42,-0.14104670682394166,77.50407161723201,0,100,1.0,6,8.062608380226824e-05
7.425,-0.051158381651102834,77.5125498908563,0,100,1.0,6,0.00024851269022388076
7.43,-0.008206426846427752,77.53632357375037,0,100,1.0,6,0.0007192786881260548
7.435,0.005350271385530505,77.59816032657108,0,100,1.0,6,0.0019437688429916036
7.44,0.01084668799215426,77.74699421583978,0,100,1.0,6,0.004890974571084695
7.445,0.016256859896386415,78.0778955905149,0,100,1.0,6,0.011443477039898991
7.45,0.02345021205790711,78.75638253739591,0,100,1.0,6,0.024878862126651635
7.455,0.0330621597308209,80.03714578164362,0,100,1.0,6,0.050240510527596365
7.46,0.04559141319943196,82.2581074321164,0,100,1.0,6,0.09421994915081988
7.465,0.06149084917446989,85.78593960996649,0,100,1.0,6,0.16407801207854436
7.47,0.08111733445924295,90.89811556558197,0,100,1.0,6,0.26530921912043515
7.475,0.1046628598272375,97.61546592808551,0,100,1.0,6,0.39832605798189136
7.48,0.1320831047748631,105.5415466537269,0,100,1.0,6,0.5552781515589484
7.485,0.16303381314489318,113.79708988561208,0,100,1.0,6,0.7187542551606353
7.49,0.19682662652900276,121.12822094684294,0,100,1.0,6,0.8639251672642168
7.495,0.23241585813229,126.20143333597863,0,100,1.0,6,0.9643848185342304
7.5,0.26842527782774417,128.0,0,100,1.0,6,1.0
7.505,0.30321927900592993,126.16275066678318,0,100,1.0,6,0.9636188250848154
7.51,0.3350163137995362,121.1116044575634,0,100,1.0,6,0.8635961278725426
7.515,0.3620352400956416,113.90717007869759,0,100,1.0,6,0.7209340609643087
7.52,0.3826586036805073,105.90088318147954,0,100,1.0,6,0.5623937263659315
7.525,0.39559233134833227,98.34046706321053,0,100,1.0,6,0.41268251610317874
7.53,0.4,92.08499814602648,0,100,1.0,6,0.28881184447577185
7.535,0.39559233134833227,87.50864038323002,0,100,1.0,6,0.1981908986778221
7.54,0.3826586036805073,84.57442275691706,0,100,1.0,6,0.14008757934489227
7.545,0.3620352400956416,82.99710802083918,0,100,1.0,6,0.10885362417503323
7.55,0.3350163137995362,82.40804661099806,0,100,1.0,6,0.09718904180194171
7.555,0.3032192790059296,82.46851319639717,0,100,1.0,6,0.0983863999286568
7.56,0.26842527782774417,82.92004890238644,0,100,1.0,6,0.10732770103735526
7.565,0.23241585813229,83.58796849171559,0,100,1.0,6,0.12055383151912051
7.57,0.19682662652900276,84.36197804515345,0,100,1.0,6,0.13588075336937525
7.575,0.16303381314489318,85.17248310799981,0,100,1.0,6,0.15193035857425366
7.58,0.13208310477486307,85.97196310008664,0,100,1.0,6,0.1677616455462701
7.585,0.10466285982723562,86.72363196440325,0,100,1.0,6,0.18264617751293571
7.59,0.08111733445917907,87.39605351764324,0,100,1.0,6,0.1959614557949156
7.595,0.06149084917398798,87.9615095120021,0,100,1.0,6,0.20715860419806129
7.6,0.04559141333598128,88.39629447802281,0,100,1.0,6,0.2157682074856002
7.605,0.03306217087257399,88.6817572080628,0,100,1.0,6,0.22142093481312486
7.61,0.02345067901074276,88.80541912343043,0,100,1.0,6,0.2238696856124837
7.615,0.016268788896435526,88.761813641984,0,100,1.0,6,0.22300621073235655
7.62,0.011039026374860051,88.55286824522712,0,100,1.0,6,0.21886867812330923
7.625,0.007326255555493689,88.18775826412227,0,100,1.0,6,0.2116387775073716
7.63,0.0047556414315231815,87.68223746822366,0,100,1.0,6,0.20162846471730023
7.635,0.0030193390635632803,87.05751062541435,0,100,1.0,6,0.18925763614681884
7.64,0.001874953127946523,86.33875969754904,0,100,1.0,6,0.17502494450592151
7.645,0.0011387927410965778,85.55346606508107,0,100,1.0,6,0.15947457554615976
7.65,0.0006765107634274089,84.72968388537797,0,100,1.0,6,0.14316205713619734
7.655,0.00039307957404427924,83.8944140290608,0,100,1.0,6,0.12662205998140194
7.66,0.00022338910511776318,83.07220603434823,0,100,1.0,6,0.11034071355145003
7.665,0.00012417073320013317,82.2840812711329,0,100,1.0,6,0.09473428259669119
7.67,6.750753468904987e-05,81.54682943609703,0,100,1.0,6,0.08013523635835698
7.675,3.5897234866245036e-05,80.87268841585063,0,100,1.0,6,0.06678590922476499
7.68,1.8670050400879738e-05,80.26937973963246,0,100,1.0,6,0.054839202764999116
7.685,9.497421874143672e-06,79.7404423296401,0,100,1.0,6,0.04436519464633868
7.69,4.725434140340885e-06,79.28578839837682,0,100,1.0,6,0.03536214650251135
7.695,2.299606063738814e-06,78.90239771037702,0,100,1.0,6,0.02777025169063399
7.7,1.0945633976635486e-06,78.58506900977153,0,100,1.0,6,0.021486515044980795
7.705,5.095703414287532e-07,78.32715803895881,0,100,1.0,6,0.016379367108095323
7.71,2.3202944964797243e-07,78.12124742111936,0,100,1.0,6,0.012301929131076509
7.715,1.0333746954038608e-07,77.95971182173484,0,100,1.0,6,0.009103204390788959
7.72,4.501406988770349e-08,77.83515963913185,0,100,1.0,6,0.006636824537264261
7.725,0.0,77.74074802073012,0,100,1.0,6,0.004767287539210363
7.73,0.0,77.67038003596295,0,100,1.0,6,0.003373862098276232
7.735,0.0,77.61880087924757,0,100,1.0,6,0.0023524926583677777
7.74,0.0,77.5816141709287,0,100,1.0,6,0.001616122196607968
7.745,0.0,77.5552403549693,0,100,1.0,6,0.0010938684152336571
7.75,0.0,77.53683768391573,0,100,1.0,6,0.0007294590874402959
7.755,0.0,77.52420321967791,0,100,1.0,6,0.00047927167679039497
7.76,0.0,77.51566747236087,0,100,1.0,6,0.0003102469774430597
7.765,0.0,77.50999239747283,0,100,1.0,6,0.00019786925688769166
7.77,0.0,77.50627892699517,0,100,1.0,6,0.00012433518802307088
7.775,0.0,77.50388728278739,0,100,1.0,6,7.697589677997649e-05
7.78,0.0,77.50237111056772,0,100,1.0,6,4.695268450935074e-05
7.785,0.0,77.50142495925365,0,100,1.0,6,2.8217014923849084e-05
7.79,0.0,77.5008437194384,0,100,1.0,6,1.6707315611742756e-05
7.795,0.0,77.50049219662667,0,100,1.0,6,9.746467854781015e-06
7.8,0.0,77.50028289428887,0,100,1.0,6,5.601867106388634e-06
7.805,0.0,77.500160197117,0,100,1.0,6,3.172220138565373e-06
7.81,0.0,77.50008937790716,0,100,1.0,6,1.769859547701092e-06
7.815,0.0,77.50004913043793,0,100,1.0,6,9.728799590006794e-07
7.82,0.0,77.50002660823445,0,100,1.0,6,5.268957316743446e-07
7.825,0.0,77.50001419797643,0,100,1.0,6,2.811480480503822e-07
7.83,0.001684486749771458,77.50000746417498,0,100,1.0,6,1.4780544524280167e-07
7.835,0.00456624331333666,77.50000386618065,0,100,1.0,6,7.6558032643865e-08
7.84,0.011079731271581421,77.50000197300162,0,100,1.0,6,3.906933893676528e-08
7.845,0.024064571490409,77.5000009920138,0,100,1.0,6,1.9643837535707885e-08
7.85,0.046784906529573234,77.50000049142014,0,100,1.0,6,9.731091848710877e-09
7.855,0.08141644351188804,77.50000023984637,0,100,1.0,6,4.749433110821946e-09
7.86,0.12682276464025305,77.50000011533426,0,100,1.0,6,2.2838467223006982e-09
7.865,0.1768320708657512,77.50000005464224,0,100,1.0,6,1.0820246085257727e-09
7.87,0.22070063230473494,77.50000002550607,0,100,1.0,6,5.050706607620992e-10
7.875,0.24656126505113576,77.50000001173015,0,100,1.0,6,2.3228021926133627e-10
7.88,0.24656126505724016,77.50000000531507,0,100,1.0,6,1.0524896685755005e-10
7.885,0.220700632329898,77.50000000237279,0,100,1.0,6,4.698586954054017e-11
7.89,0.17683207093748562,77.50000000104365,0,100,1.0,6,2.066624099573139e-11
7.895,0.12682276483597799,77.50000000045226,0,100,1.0,6,8.955652501213936e-12
7.9,0.08141644409447898,77.5000000001931,0,100,1.0,6,3.823704829112175e-12
7.905,0.04678490952598309,77.50000000008123,0,100,1.0,6,1.6084999119226663e-12
7.91,0.024064605020532023,77.50000000003367,0,100,1.0,6,6.66643857827991e-13
7.915,0.011080171739334697,77.50000000001374,0,100,1.0,6,2.7211676256634333e-13
7.92,0.004571212771509492,77.50000000000553,0,100,1.0,6,1.0946579176660553e-13
7.925,0.0017299316936037438,77.50000000000219,0,100,1.0,6,4.333607180477443e-14
7.93,0.0008899431850697582,77.50000000000085,0,100,1.0,6,1.6884183820041984e-14
7.935,0.002128806368910263,77.50000000000033,0,100,1.0,6,6.472270464349428e-15
7.94,0.009309664818487698,77.50000000000013,0,100,1.0,6,2.5326275730062976e-15
7.945,0.03503263543368747,77.50000000000004,0,100,1.0,6,8.442091910020992e-16
7.95,0.10606267793605692,77.50000000000001,0,100,1.0,6,2.814030636673664e-16
7.955,0.25734927343160535,77.5,0,100,1.0,6,0.0
7.96,0.5003202479539708,77.5,0,100,1.0,6,0.0
7.965,0.7793067891790435,77.5,0,100,1.0,6,0.0
7.97,0.9720477407234077,77.50000295863553,1,100,1.0,6,5.8586842255458086e-08
7.975,0.967267334488097,77.50000589453069,0,100,1.0,6,1.1672337995159888e-07
7.98,0.7505869905515209,77.50001258016395,0,100,1.0,6,2.491121575071747e-07
7.985,0.4028369574773956,77.50002991887783,0,100,1.0,6,5.924530263079156e-07
7.99,0.04553881263121314,77.50008014574549,0,100,1.0,6,1.5870444650601604e-06
7.995,-0.189138810908105,77.50023413902163,0,100,1.0,6,4.636416269875662e-06
8.0,-0.22868072635956738,77.50070857773588,0,100,1.0,6,1.4031242294617421e-05
8.005,-0.14104670682394166,77.50212862812675,0,100,1.0,6,4.2151052014949724e-05
8.01,-0.051158381651102834,77.50618263287807,0,100,1.0,6,0.0001224283738230776
8.015,-0.008206426846427752,77.51711785807466,0,100,1.0,6,0.0003389674866268436
8.02,0.005350271385530505,77.5448517347519,0,100,1.0,6,0.0008881531634039905
8.025,0.01084668799215426,77.61080692902989,0,100,1.0,6,0.0021941966144532954
8.03,0.016256859896386415,77.75762785478521,0,100,1.0,6,0.005101541678915102
8.035,0.02345021205790711,78.06315289436618,0,100,1.0,6,0.0111515424626967
8.04,0.0330621597308209,78.65673830666799,0,100,1.0,6,0.022905709042930485
8.045,0.04559141319943196,79.73198134472196,0,100,1.0,6,0.04419765039053384
8.05,0.06149084917446989,81.54501227311613,0,100,1.0,6,0.08009925293299265
8.055,0.08111733445924295,84.38464209821635,0,100,1.0,6,0.1363295464993336
8.06,0.1046628598272375,88.50403246526267,0,100,1.0,6,0.2179016329754984
8.065,0.1320831047748631,94.01656472183686,0,100,1.0,6,0.3270606875611259
8.07,0.16303381314489318,100.77994101177725,0,100,1.0,6,0.46098893092628224
8.075,0.19682662652900276,108.31363751867889,0,100,1.0,6,0.6101710399738394
8.08,0.23241585813229,115.8015723972912,0,100,1.0,6,0.758446978164182
8.085,0.26842527782774417,122.21250830998903,0,100,1.0,6,0.8853962041581986
8.09,0.30321927900592993,126.52603826050846,0,100,1.0,6,0.9708126388219497
8.095,0.3350163137995362,128.0,0,100,1.0,6,1.0
8.1,0.3620352400956416,126.38406092367941,0,100,1.0,6,0.9680012064094934
8.105,0.3826586036805073,121.99556843228333,0,100,1.0,6,0.8811003649957097
8.11,0.39559233134833227,115.6266452242233,0,100,1.0,6,0.7549830737469959
8.115,0.4,108.32036261160054,0,100,1.0,6,0.6103042101307038
8.12,0.39559233134833227,101.10323179979561,0,100,1.0,6,0.4673907287088239
8.125,0.3826586036805073,94.76777473766506,0,100,1.0,6,0.34193613341911017
8.13,0.3620352400956416,89.76439299076465,0,100,1.0,6,0.24285926714385442
8.135,0.3350163137995362,86.20926627172703,0,100,1.0,6,0.17246071825202042
8.14,0.3032192790059296,83.97243167283402,0,100,1.0,6,0.12816696381849543
8.145,0.26842527782774417,82.7938264487047,0,100,1.0,6,0.10482824650900409
8.15,0.23241585813229,82.38399391622505,0,100,1.0,6,0.09671275081633765
8.155,0.19682662652900276,82.48788123894413,0,100,1.0,6,0.09876992552364607
8.16,0.16303381314489318,82.91091906123887,0,100,1.0,6,0.10714691210374003
8.165,0.13208310477486307,83.51852879694448,0,100,1.0,6,0.11917878805830653
8.17,0.10466285982723562,84.22272355972284,0,100,1.0,6,0.13312323880639282
8.175,0.08111733445917907,84.96617934772094,0,100,1.0,6,0.14784513559843443
8.18,0.06149084917398798,85.70924651097013,0,100,1.0,6,0.16255933685089372
8.185,0.04559141333598128,86.42147052118344,0,100,1.0,6,0.17666278259769183
8.19,0.03306217087257399,87.0770715748847,0,100,1.0,6,0.18964498168088512
8.195,0.02345067901074276,87.65314650117571,0,100,1.0,6,0.2010524059638755
8.2,0.016268788896435526,88.12943966856027,0,100,1.0,6,0.21048395383287657
8.205,0.011039026374860051,88.4888612734019,0,100,1.0,6,0.21760121333469098
8.21,0.007326255555493689,88.71824516685794,0,100,1.0,6,0.2221434686506523
8.215,0.0047556414315231815,88.80905557187164,0,100,1.0,6,0.2239416944925077
8.22,0.0030193390635632803,88.75788298162304,0,100,1.0,6,0.22292837587372358
8.225,0.001874953127946523,88.56664693700436,0,100,1.0,6,0.2191415235050369
8.23,0.0011387927410965778,88.24247373671773,0,100,1.0,6,0.21272225221223223
8.235,0.0006765107634274089,87.79725494129089,0,100,1.0,6,0.2039060384414037
8.24,0.00039307957404427924,87.24692328910454,0,100,1.0,6,0.19300838196246622
8.245,0.00022338910511776318,86.6105070604557,0,100,1.0,6,0.18040608040506342
8.25,0.00012417073320013317,85.90904096345788,0,100,1.0,6,0.16651566264273035
8.255,6.750753468904987e-05,85.1644201722591,0,100,1.0,6,0.1517706964803782
8.26,3.5897234866245036e-05,84.39828384642226,0,100,1.0,6,0.13659968012717347
8.265,1.8670050400879738e-05,83.63100589666291,0,100,1.0,6,0.12140605735966165
8.27,9.497421874143672e-06,82.8808554478679,0,100,1.0,6,0.10655159302708715
8.275,4.725434140340885e-06,82.16336957323678,0,100,1.0,6,0.09234395194528273
8.28,2.299606063738814e-06,81.49095896483546,0,100,1.0,6,0.07902889039278133
8.285,1.0945633976635486e-06,80.87274578396709,0,100,1.0,6,0.0667870452270711
8.29,5.095703414287532e-07,80.31461418365399,0,100,1.0,6,0.05573493432978192
8.295,2.3202944964797243e-07,79.81943952585937,0,100,1.0,6,0.0459294955615716
8.3,1.0333746954038608e-07,79.38745303383412,0,100,1.0,6,0.037375307600675645
8.305,4.501406988770349e-08,79.01669470924061,0,100,1.0,6,0.030033558598823968
8.31,0.0,78.70350835049594,0,100,1.0,6,0.023831848524672027
8.315,0.0,78.44303749859628,0,100,1.0,6,0.01867400987319372
8.32,0.0,78.22968889112258,0,100,1.0,6,0.014449284972724314
8.325,0.0,78.05753922233096,0,100,1.0,6,0.011040380640217014
8.33,0.0,77.92067047657592,0,100,1.0,6,0.008330108447047947
8.335,0.0,77.81342783305934,0,100,1.0,6,0.0062064917437492295
8.34,0.0,77.73060143463216,0,100,1.0,6,0.004566365042221053
8.345,0.0,77.66753878732776,0,100,1.0,6,0.0033175997490644984
8.35,0.0,77.62019811267334,0,100,1.0,6,0.0023801606469967484
8.355,0.0,77.58515474396656,0,100,1.0,6,0.0016862325537931723
8.36,0.0,77.55957293052953,0,100,1.0,6,0.001179661990683693
8.365,0.0,77.54115456349685,0,100,1.0,6,0.0008149418514226972
8.37,0.0,77.52807475357761,0,100,1.0,6,0.0005559357144081764
8.375,0.0,77.51891223363421,0,100,1.0,6,0.00037449967592496843
8.38,0.0,77.51258052061632,0,100,1.0,6,0.00024911922012524703
8.385,0.0,77.50826386704453,0,100,1.0,6,0.00016364093157491906
8.39,0.0,77.50536039689462,0,100,1.0,6,0.00010614647316071911
8.395,0.0,77.50343351928187,0,100,1.0,6,6.799048082911267e-05
8.4,0.0,77.50217175561201,0,100,1.0,6,4.30050616239779e-05
8.405,0.0,77.50135647355782,0,100,1.0,6,2.6860862531088745e-05
8.41,0.0,77.50083664386412,0,100,1.0,6,1.656720523007859e-05
8.415,0.0,77.50050956412707,0,100,1.0,6,1.0090378753888541e-05
8.42,0.0,77.50030646859729,0,100,1.0,6,6.068685094798711e-06
8.425,0.0,77.5001820128428,0,100,1.0,6,3.604214708898911e-06
8.43,0.0,77.50010674486768,0,100,1.0,6,2.1137597560248262e-06
8.435,0.0,77.50006181884571,0,100,1.0,7,1.2241355585785532e-06
8.44,0.0,77.50003535279038,0,100,1.0,7,7.000552549884965e-07
8.445,0.0,77.50001996436139,0,100,1.0,7,3.9533388881990153e-07
8.45,0.0,77.50001113309885,0,100,1.0,7,2.204574030039823e-07
8.455,0.0,77.50000613063735,0,100,1.0,7,1.2139875931358919e-07
8.46,0.0,77.5000033336815,0,100,1.0,7,6.601349514987828e-08
8.465,0.001684486749771458,77.50000179007613,0,100,1.0,7,3.544705200871285e-08
8.47,0.00456624331333666,77.50000094917833,0,100,1.0,7,1.8795610471762742e-08
8.475,0.011079731271581421,77.50000049699618,0,100,1.0,7,9.841508501429615e-09
8.48,0.024064571490409,77.50000025697283,0,100,1.0,7,5.088570796852755e-09
8.485,0.046784906529573234,77.50000013120497,0,100,1.0,7,2.59811822661054e-09
8.49,0.08141644351188804,77.50000006615188,0,100,1.0,7,1.3099382964481824e-09
8.495,0.12682276464025305,77.50000003293542,0,100,1.0,7,6.521864940290164e-10
8.5,0.1768320708657512,77.50000001619246,0,100,1.0,7,3.20642751074335e-10
8.505,0.22070063230473494,77.50000000786125,0,100,1.0,7,1.5566823517789575e-10
8.51,0.24656126505113576,77.50000000376876,0,100,1.0,7,7.462893669377658e-11
8.515,0.24656126505724016,77.50000000178417,0,100,1.0,7,3.533015464343785e-11
8.52,0.220700632329898,77.50000000083406,0,100,1.0,7,1.6516108612765068e-11
8.525,0.17683207093748562,77.50000000038503,0,100,1.0,7,7.624334607003625e-12
8.53,0.12682276483597799,77.50000000017552,0,100,1.0,7,3.4756092393556427e-12
8.535,0.08141644409447898,77.50000000007901,0,100,1.0,7,1.5646010339905572e-12
8.54,0.04678490952598309,77.50000000003512,0,100,1.0,7,6.953469703220624e-13
8.545,0.024064605020532023,77.50000000001542,0,100,1.0,7,3.0532232407909255e-13
8.55,0.011080171739334697,77.50000000000668,0,100,1.0,7,1.322594399236622e-13
8.555,0.004571212771509492,77.50000000000286,0,100,1.0,7,5.656201579714065e-14
8.56,0.0017299316936037438,77.50000000000121,0,100,1.0,7,2.3919260411726144e-14
8.565,0.0008899431850697582,77.5000000000005,0,100,1.0,7,9.849107228357824e-15
