Time,ECG,Pressure,R_Peaks,mean_hr,hrv_scale,Phase_Bin,Normalized_Pressure
0.0,0.001684486749771458,77.5,0,100,1.0,0,0.0
0.005,0.00456624331333666,77.5,0,100,1.0,0,0.0
0.01,0.011079731271581421,77.5,0,100,1.0,0,0.0
0.015,0.024064571490409,77.5,0,100,1.0,0,0.0
0.02,0.046784906529573234,77.5,0,100,1.0,0,0.0
0.025,0.08141644351188804,77.5,0,100,1.0,0,0.0
0.03,0.12682276464025305,77.5,0,100,1.0,0,0.0
0.035,0.1768320708657512,77.5,0,100,1.0,0,0.0
0.04,0.22070063230473494,77.5,0,100,1.0,0,0.0
0.045,0.24656126505113576,77.5,0,100,1.0,0,0.0
0.05,0.24656126505724016,77.5,0,100,1.0,0,0.0
0.055,0.220700632329898,77.5,0,100,1.0,0,0.0
0.06,0.17683207093748562,77.5,0,100,1.0,0,0.0
0.065,0.12682276483597799,77.5,0,100,1.0,0,0.0
0.07,0.08141644409447898,77.5,0,100,1.0,0,0.0
0.075,0.04678490952598309,77.5,0,100,1.0,0,0.0
0.08,0.024064605020532023,77.5,0,100,1.0,0,0.0
0.085,0.011080171739334697,77.5,0,100,1.0,0,0.0
0.09,0.004571212771509492,77.5,0,100,1.0,0,0.0
0.095,0.0017299316936037438,77.5,0,100,1.0,0,0.0
0.1,0.0008899431850697582,77.5,0,100,1.0,0,0.0
0.105,0.002128806368910263,77.5,0,100,1.0,0,0.0
0.11,0.009309664818487698,77.5,0,100,1.0,0,0.0
0.115,0.03503263543368747,77.5,0,100,1.0,0,0.0
0.12,0.10606267793605692,77.5,0,100,1.0,0,0.0
0.125,0.25734927343160535,77.5,0,100,1.0,0,0.0
0.13,0.5003202479539708,77.5,0,100,1.0,0,0.0
0.135,0.7793067891790435,77.5,0,100,1.0,0,0.0
0.14,0.9720477407234077,77.5,0,100,1.0,0,0.0
0.145,0.967267334488097,77.5,0,100,1.0,0,0.0
0.15,0.7505869905515209,77.5,0,100,1.0,0,0.0
0.155,0.4028369574773956,77.5,0,100,1.0,0,0.0
0.16,0.04553881263121314,77.5,0,100,1.0,0,0.0
0.165,-0.189138810908105,77.5,0,100,1.0,0,0.0
0.17,-0.22868072635956738,77.5,0,100,1.0,0,0.0
0.175,-0.14104670682394166,77.5,0,100,1.0,0,0.0
0.18,-0.051158381651102834,77.5,0,100,1.0,0,0.0
0.185,-0.008206426846427752,77.5,0,100,1.0,0,0.0
0.19,0.005350271385530505,77.5,0,100,1.0,0,0.0
0.195,0.01084668799215426,77.5,0,100,1.0,0,0.0
0.2,0.016256859896386415,77.5,0,100,1.0,0,0.0
0.205,0.02345021205790711,77.5,0,100,1.0,0,0.0
0.21,0.0330621597308209,77.5,0,100,1.0,0,0.0
0.215,0.04559141319943196,77.5,0,100,1.0,0,0.0
0.22,0.06149084917446989,77.5,0,100,1.0,0,0.0
0.225,0.08111733445924295,77.5,0,100,1.0,0,0.0
0.23,0.1046628598272375,77.5,0,100,1.0,0,0.0
0.235,0.1320831047748631,77.5,0,100,1.0,0,0.0
0.24,0.16303381314489318,77.5,0,100,1.0,0,0.0
0.245,0.19682662652900276,77.5,0,100,1.0,0,0.0
0.25,0.23241585813229,77.5,0,100,1.0,0,0.0
0.255,0.26842527782774417,77.5,0,100,1.0,0,0.0
0.26,0.30321927900592993,77.5,0,100,1.0,0,0.0
0.265,0.3350163137995362,77.5,0,100,1.0,0,0.0
0.27,0.3620352400956416,77.5,0,100,1.0,0,0.0
0.275,0.3826586036805073,77.5,0,100,1.0,0,0.0
0.28,0.39559233134833227,77.5,0,100,1.0,0,0.0
0.285,0.4,77.5,0,100,1.0,0,0.0
0.29,0.39559233134833227,77.5,0,100,1.0,0,0.0
0.295,0.3826586036805073,77.5,0,100,1.0,0,0.0
0.3,0.3620352400956416,77.5,0,100,1.0,0,0.0
0.305,0.3350163137995362,77.5,0,100,1.0,0,0.0
0.31,0.3032192790059296,77.5,0,100,1.0,0,0.0
0.315,0.26842527782774417,77.5,0,100,1.0,0,0.0
0.32,0.23241585813229,77.5,0,100,1.0,0,0.0
0.325,0.19682662652900276,77.5,0,100,1.0,0,0.0
0.33,0.16303381314489318,77.5,0,100,1.0,0,0.0
0.335,0.13208310477486307,77.5,0,100,1.0,0,0.0
0.34,0.10466285982723562,77.5,0,100,1.0,0,0.0
0.345,0.08111733445917907,77.5,0,100,1.0,0,0.0
0.35,0.06149084917398798,77.5,0,100,1.0,0,0.0
0.355,0.04559141333598128,77.5,0,100,1.0,0,0.0
0.36,0.03306217087257399,77.5,0,100,1.0,0,0.0
0.365,0.02345067901074276,77.5,0,100,1.0,0,0.0
0.37,0.016268788896435526,77.5,0,100,1.0,0,0.0
0.375,0.011039026374860051,77.5,0,100,1.0,0,0.0
0.38,0.007326255555493689,77.5,0,100,1.0,0,0.0
0.385,0.0047556414315231815,77.5,0,100,1.0,0,0.0
0.39,0.0030193390635632803,77.5,0,100,1.0,0,0.0
0.395,0.001874953127946523,77.5,0,100,1.0,0,0.0
0.4,0.0011387927410965778,77.5,0,100,1.0,0,0.0
0.405,0.0006765107634274089,77.5,0,100,1.0,0,0.0
0.41,0.00039307957404427924,77.5,0,100,1.0,0,0.0
0.415,0.00022338910511776318,77.5,0,100,1.0,0,0.0
0.42,0.00012417073320013317,77.5,0,100,1.0,0,0.0
0.425,6.750753468904987e-05,77.5,0,100,1.0,0,0.0
0.43,3.5897234866245036e-05,77.5,0,100,1.0,0,0.0
0.435,1.8670050400879738e-05,77.5,0,100,1.0,0,0.0
0.44,9.497421874143672e-06,77.5,0,100,1.0,0,0.0
0.445,4.725434140340885e-06,77.5,0,100,1.0,0,0.0
0.45,2.299606063738814e-06,77.5,0,100,1.0,0,0.0
0.455,1.0945633976635486e-06,77.5,0,100,1.0,0,0.0
0.46,5.095703414287532e-07,77.5,0,100,1.0,0,0.0
0.465,2.3202944964797243e-07,77.5,0,100,1.0,0,0.0
0.47,1.0333746954038608e-07,77.5,0,100,1.0,0,0.0
0.475,4.501406988770349e-08,77.5,0,100,1.0,0,0.0
0.48,0.0,77.5,0,100,1.0,0,0.0
0.485,0.0,77.5,0,100,1.0,0,0.0
0.49,0.0,77.5,0,100,1.0,0,0.0
0.495,0.0,77.5,0,100,1.0,0,0.0
0.5,0.0,77.5,0,100,1.0,0,0.0
0.505,0.0,77.5,0,100,1.0,0,0.0
0.51,0.0,77.5,0,100,1.0,0,0.0
0.515,0.0,77.5,0,100,1.0,0,0.0
0.52,0.0,77.5,0,100,1.0,0,0.0
0.525,0.0,77.5,0,100,1.0,0,0.0
0.53,0.0,77.5,0,100,1.0,0,0.0
0.535,0.0,77.5,0,100,1.0,0,0.0
0.54,0.0,77.5,0,100,1.0,0,0.0
0.545,0.0,77.5,0,100,1.0,0,0.0
0.55,0.0,77.5,0,100,1.0,0,0.0
0.555,0.0,77.5,0,100,1.0,0,0.0
0.56,0.0,77.5,0,100,1.0,0,0.0
0.565,0.0,77.5,0,100,1.0,0,0.0
0.57,0.0,77.5,0,100,1.0,0,0.0
0.575,0.0,77.5,0,100,1.0,0,0.0
0.58,0.0,77.5,0,100,1.0,0,0.0
0.585,0.0,77.5,0,100,1.0,0,0.0
0.59,0.0,77.5,0,100,1.0,0,0.0
0.595,0.0,77.5,0,100,1.0,0,0.0
0.6,0.0,77.5,0,100,1.0,0,0.0
0.605,0.0,77.5,0,100,1.0,0,0.0
0.61,0.0,77.5,0,100,1.0,0,0.0
0.615,0.001684486749771458,77.5,0,100,1.0,0,0.0
0.62,0.00456624331333666,77.5,0,100,1.0,0,0.0
0.625,0.011079731271581421,77.5,0,100,1.0,0,0.0
0.63,0.024064571490409,77.5,0,100,1.0,0,0.0
0.635,0.046784906529573234,77.5,0,100,1.0,0,0.0
0.64,0.08141644351188804,77.5,0,100,1.0,0,0.0
0.645,0.12682276464025305,77.5,0,100,1.0,0,0.0
0.65,0.1768320708657512,77.5,0,100,1.0,0,0.0
0.655,0.22070063230473494,77.5,0,100,1.0,0,0.0
0.66,0.24656126505113576,77.5,0,100,1.0,0,0.0
0.665,0.24656126505724016,77.5,0,100,1.0,0,0.0
0.67,0.220700632329898,77.5,0,100,1.0,0,0.0
0.675,0.17683207093748562,77.5,0,100,1.0,0,0.0
0.68,0.12682276483597799,77.5,0,100,1.0,0,0.0
0.685,0.08141644409447898,77.5,0,100,1.0,0,0.0
0.69,0.04678490952598309,77.5,0,100,1.0,0,0.0
0.695,0.024064605020532023,77.5,0,100,1.0,0,0.0
0.7,0.011080171739334697,77.5,0,100,1.0,0,0.0
0.705,0.004571212771509492,77.5,0,100,1.0,0,0.0
0.71,0.0017299316936037438,77.5,0,100,1.0,0,0.0
0.715,0.0008899431850697582,77.5,0,100,1.0,0,0.0
0.72,0.002128806368910263,77.5,0,100,1.0,0,0.0
0.725,0.009309664818487698,77.5,0,100,1.0,0,0.0
0.73,0.03503263543368747,77.5,0,100,1.0,0,0.0
0.735,0.10606267793605692,77.5,0,100,1.0,0,0.0
0.74,0.25734927343160535,77.5,0,100,1.0,0,0.0
0.745,0.5003202479539708,77.5,0,100,1.0,0,0.0
0.75,0.7793067891790435,77.5,0,100,1.0,0,0.0
0.755,0.9720477407234077,77.50000297094563,1,100,1.0,0,5.8830606533747686e-08
0.76,0.967267334488097,77.50000585321456,0,100,1.0,0,1.1590523881480268e-07
0.765,0.7505869905515209,77.50001231859999,0,100,1.0,0,2.4393267297833374e-07
0.77,0.4028369574773956,77.5000287685175,0,100,1.0,0,5.696736137690438e-07
0.775,0.04553881263121314,77.50007544225073,0,100,1.0,0,1.493905955103941e-06
0.78,-0.189138810908105,77.50021580677046,0,100,1.0,0,4.2734013951609664e-06
0.785,-0.22868072635956738,77.50064122197105,0,100,1.0,0,1.2697464773291268e-05
0.79,-0.14104670682394166,77.50189764285709,0,100,1.0,0,3.7577086278971173e-05
0.795,-0.051158381651102834,77.50544678588247,0,100,1.0,0,0.00010785714618751257
0.8,-0.008206426846427752,77.51494354533021,0,100,1.0,0,0.00029591178871706545
0.805,0.005350271385530505,77.53889317447089,0,100,1.0,0,0.0007701618707106056
0.81,0.01084668799215426,77.59565760011441,0,100,1.0,0,0.0018942099032555873
0.815,0.016256859896386415,77.72188223512214,0,100,1.0,0,0.004393707626180944
0.82,0.02345021205790711,77.98486749911095,0,100,1.0,0,0.00960133661605837
0.825,0.0330621597308209,78.4976358334839,0,100,1.0,0,0.01975516501948312
0.83,0.04559141319943196,79.43210578788607,0,100,1.0,0,0.03825952055219946
0.835,0.06149084917446989,81.02144467284691,0,100,1.0,0,0.06973157768013685
0.84,0.08111733445924295,83.53943824352314,0,100,1.0,0,0.11959283650540864
0.845,0.1046628598272375,87.24612635035874,0,100,1.0,0,0.1929926009972027
0.85,0.1320831047748631,92.29836240213126,0,100,1.0,0,0.29303687925012395
0.855,0.16303381314489318,98.6415242177682,0,100,1.0,0,0.41864404391620186
0.86,0.19682662652900276,105.91856224009601,0,100,1.0,0,0.5627438067345745
0.865,0.23241585813229,113.44355699129795,0,100,1.0,0,0.7117536037880783
0.87,0.26842527782774417,120.27731578487735,0,100,1.0,0,0.8470755600965811
0.875,0.30321927900592993,125.40886924748625,0,100,1.0,0,0.9486904801482426
0.88,0.3350163137995362,128.0,0,100,1.0,0,1.0
0.885,0.3620352400956416,127.61297446918879,0,100,1.0,0,0.9923361281027482
0.89,0.3826586036805073,124.33696161207922,0,100,1.0,0,0.9274645863778064
0.895,0.39559233134833227,118.76344665656188,0,100,1.0,0,0.8170979535952848
0.9,0.4,111.82039289833824,0,100,1.0,0,0.6796117405611533
0.905,0.39559233134833227,104.52944873576625,0,100,1.0,0,0.5352366086290347
0.91,0.3826586036805073,97.77357003237384,0,100,1.0,0,0.40145683232423446
0.915,0.3620352400956416,92.14593155860807,0,100,1.0,0,0.2900184467051103
0.92,0.3350163137995362,87.90825613345055,0,100,1.0,0,0.20610408185050594
0.925,0.3032192790059296,85.04198682162858,0,100,1.0,0,0.1493462736956155
0.93,0.26842527782774417,83.34911037832367,0,100,1.0,0,0.11582396788759747
0.935,0.23241585813229,82.55716877843483,0,100,1.0,0,0.10014195600861046
0.94,0.19682662652900276,82.39818228678223,0,100,1.0,0,0.09699370864915308
0.945,0.16303381314489318,82.65144010719679,0,100,1.0,0,0.10200871499399586
0.95,0.13208310477486307,83.15544646601765,0,100,1.0,0,0.11198903893104259
0.955,0.10466285982723562,83.80098496712186,0,100,1.0,0,0.12477197954696759
0.96,0.08111733445917907,84.51679817502719,0,100,1.0,0,0.13894649851538993
0.965,0.06149084917398798,85.25545908263547,0,100,1.0,0,0.15357344718090035
0.97,0.04559141333598128,85.98282074337618,0,100,1.0,0,0.16797664838368673
0.975,0.03306217087257399,86.67155747492474,0,100,1.0,0,0.1816149995034602
0.98,0.02345067901074276,87.29795930335597,0,100,1.0,0,0.19401899610605874
0.985,0.016268788896435526,87.84083911807926,0,100,1.0,0,0.20476909144711405
0.99,0.011039026374860051,88.28160151207733,0,100,1.0,0,0.21349705964509563
0.995,0.007326255555493689,88.60482836895572,0,100,1.0,0,0.21989759146446974
1.0,0.0047556414315231815,88.79899114489746,0,100,1.0,0,0.22374239890886052
1.005,0.0030193390635632803,88.85706779854773,0,100,1.0,0,0.22489243165441053
1.01,0.001874953127946523,88.77694250763581,0,100,1.0,0,0.22330579223041205
1.015,0.0011387927410965778,88.56152685954629,0,100,1.0,0,0.21904013583259982
1.02,0.0006765107634274089,88.21858228046267,0,100,1.0,0,0.2122491540685677
1.025,0.00039307957404427924,87.76025532372388,0,100,1.0,0,0.20317337274700756
1.03,0.00022338910511776318,87.20236355807309,0,100,1.0,0,0.19212601105095226
1.035,0.00012417073320013317,86.5634902866797,0,100,1.0,0,0.17947505518177614
1.04,6.750753468904987e-05,85.86396018771272,0,100,1.0,0,0.16562297401411327
1.045,3.5897234866245036e-05,85.12477432033205,0,100,1.0,0,0.15098563010558516
1.05,1.8670050400879738e-05,84.36658158555097,0,100,1.0,0,0.13597191258516783
1.055,9.497421874143672e-06,83.60875530007408,0,100,1.0,0,0.12096545148661544
1.06,4.725434140340885e-06,82.86862941840498,0,100,1.0,0,0.10630949343376195
1.065,2.299606063738814e-06,82.1609310518812,0,100,1.0,0,0.09229566439368726
1.07,1.0945633976635486e-06,81.49742647014536,0,100,1.0,0,0.07915695980485854
1.075,5.095703414287532e-07,80.88677888145745,0,100,1.0,0,0.06706492834569198
1.08,2.3202944964797243e-07,80.33459982381898,0,100,1.0,0,0.05613068958057379
1.085,1.0333746954038608e-07,79.84366331563119,0,100,1.0,0,0.04640917456695426
1.09,4.501406988770349e-08,79.4142437702478,0,100,1.0,0,0.03790581723262958
1.095,0.0,79.04453522094083,0,100,1.0,0,0.030584855860214453
1.1,0.0,78.73111024024065,0,100,1.0,0,0.024378420598824817
1.105,0.0,78.46938127165673,0,100,1.0,0,0.01919566874567781
1.11,0.0,78.25403387991976,0,100,1.0,0,0.014931363958807127
1.115,0.0,78.07940954909407,0,100,1.0,0,0.011473456417704283
1.12,0.0,77.93982406759571,0,100,1.0,0,0.00870938747714274
1.125,0.0,77.8298153669202,0,100,1.0,0,0.006530997364756453
1.13,0.0,77.74432130323292,0,100,1.0,0,0.004838045608572724
1.135,0.0,77.67879292921928,0,100,1.0,0,0.0035404540439462227
1.14,0.0,77.62925218591911,0,100,1.0,0,0.00255944922612107
1.145,0.0,77.59230474085237,0,100,1.0,0,0.0018278166505419813
1.15,0.0,77.56511914230262,0,100,1.0,0,0.0012894879663885247
1.155,0.0,77.54538286297166,0,100,1.0,0,0.0008986705538943354
1.16,0.0,77.5312445059329,0,100,1.0,0,0.0006187030877802698
1.165,0.0,77.52124975792847,0,100,1.0,0,0.00042078728571233557
1.17,0.0,77.51427686543666,0,100,1.0,0,0.00028271020666646127
1.175,0.0,77.50947567810488,0,100,1.0,0,0.00018763719019558933
1.18,0.0,77.50621278444058,0,100,1.0,0,0.0001230254344668898
1.185,0.0,77.50402402644141,0,100,1.0,0,7.968369190918322e-05
1.19,0.0,77.50257474319895,0,100,1.0,0,5.098501384056795e-05
1.195,0.0,77.50162744217775,0,100,1.0,0,3.222657777721924e-05
1.2,0.0,77.50101619199279,0,100,1.0,0,2.0122613718605393e-05
1.205,0.0,77.50062682242242,0,100,1.0,1,1.2412325196408455e-05
1.21,0.0,77.50038195467684,0,100,1.0,1,7.56345894732215e-06
1.215,0.0,77.50022992049958,0,100,1.0,1,4.552881179760973e-06
1.22,0.0,77.50013672316726,0,100,1.0,1,2.7073894506708647e-06
1.225,0.0,77.50008031655649,0,100,1.0,1,1.5904268612230947e-06
1.23,0.0,77.50004660865855,0,100,1.0,1,9.22943733672078e-07
1.235,0.0,77.50002671939872,0,100,1.0,1,5.29097004325852e-07
1.24,0.0,77.500015131616,0,100,1.0,1,2.996359603119993e-07
1.245,0.0,77.50000846530277,0,100,1.0,1,1.67629757819362e-07
1.25,0.0,77.50000467840951,0,100,1.0,1,9.264177248438176e-08
1.255,0.0,77.50000255418604,0,100,1.0,1,5.057794137743744e-08
1.26,0.001684486749771458,77.50000137754365,0,100,1.0,1,2.7278092163511912e-08
1.265,0.00456624331333666,77.5000007339336,0,100,1.0,1,1.4533338686521915e-08
1.27,0.011079731271581421,77.500000386284,0,100,1.0,1,7.649188125586728e-09
1.275,0.024064571490409,77.50000020084232,0,100,1.0,1,3.9770756896782906e-09
1.28,0.046784906529573234,77.50000010315784,0,100,1.0,1,2.0427296026310154e-09
1.285,0.08141644351188804,77.5000000523417,0,100,1.0,1,1.0364693921609173e-09
1.29,0.12682276464025305,77.50000002623567,0,100,1.0,1,5.195181754538455e-10
1.295,0.1768320708657512,77.50000001299077,0,100,1.0,1,2.57242922233141e-10
1.3,0.22070063230473494,77.50000000635443,0,100,1.0,1,1.2583022412805389e-10
1.305,0.24656126505113576,77.50000000307055,0,100,1.0,1,6.080304136967153e-11
1.31,0.24656126505724016,77.50000000146574,0,100,1.0,1,2.9024474792779507e-11
1.315,0.220700632329898,77.50000000069117,0,100,1.0,1,1.36866008075897e-11
1.32,0.17683207093748562,77.50000000032198,0,100,1.0,1,6.3757492135115204e-12
1.325,0.12682276483597799,77.50000000014816,0,100,1.0,1,2.9339083417959623e-12
1.33,0.08141644409447898,77.50000000006736,0,100,1.0,1,1.3338505217833169e-12
1.335,0.04678490952598309,77.50000000003025,0,100,1.0,1,5.991071225478231e-13
1.34,0.024064605020532023,77.50000000001342,0,100,1.0,1,2.656444921019939e-13
1.345,0.011080171739334697,77.50000000000588,0,100,1.0,1,1.165008683582897e-13
1.35,0.004571212771509492,77.50000000000254,0,100,1.0,1,5.037114839645859e-14
1.355,0.0017299316936037438,77.5000000000011,0,100,1.0,1,2.1668035902387214e-14
1.36,0.0008899431850697582,77.50000000000045,0,100,1.0,1,9.004898037355725e-15
1.365,0.002128806368910263,77.50000000000018,0,100,1.0,1,3.6582398276757634e-15
1.37,0.009309664818487698,77.50000000000009,0,100,1.0,1,1.6884183820041984e-15
1.375,0.03503263543368747,77.50000000000003,0,100,1.0,1,5.628061273347328e-16
1.38,0.10606267793605692,77.50000000000001,0,100,1.0,1,2.814030636673664e-16
1.385,0.25734927343160535,77.5,0,100,1.0,1,0.0
1.39,0.5003202479539708,77.5,0,100,1.0,1,0.0
1.395,0.7793067891790435,77.5,0,100,1.0,1,0.0
1.4,0.9720477407234077,77.50000295860458,1,100,1.0,1,5.8586229359585414e-08
1.405,0.967267334488097,77.50000607194025,0,100,1.0,1,1.2023644056189188e-07
1.41,0.7505869905515209,77.50001345273148,0,100,1.0,1,2.663907223742883e-07
1.415,0.4028369574773956,77.5000335974731,0,100,1.0,1,6.65296497145121e-07
1.42,0.04553881263121314,77.5000952391376,0,100,1.0,1,1.8859235166978084e-06
1.425,-0.189138810908105,77.50029396174413,0,100,1.0,1,5.821024636320949e-06
1.43,-0.22868072635956738,77.50093256649718,0,100,1.0,1,1.8466663310573943e-05
1.435,-0.14104670682394166,77.5029100232732,0,100,1.0,1,5.762422323172278e-05
1.44,-0.051158381651102834,77.50870714352278,0,100,1.0,1,0.00017241868361948757
1.445,-0.008206426846427752,77.5246562773498,0,100,1.0,1,0.00048824311583773423
1.45,0.005350271385530505,77.56565066778992,0,100,1.0,1,0.0013000132235628605
1.455,0.01084668799215426,77.66383990810884,0,100,1.0,1,0.0032443546160166505
1.46,0.016256859896386415,77.88262038992832,0,100,1.0,1,0.007576641384719209
1.465,0.02345021205790711,78.33545183145863,0,100,1.0,1,0.016543600622943112
1.47,0.0330621597308209,79.20484989603223,0,100,1.0,1,0.03375940388182632
1.475,0.04559141319943196,80.75054676642503,0,100,1.0,1,0.06436726270148578
1.48,0.06149084917446989,83.28992906835192,0,100,1.0,1,0.11465206075944404
1.485,0.08111733445924295,87.13394030962314,0,100,1.0,1,0.19077109524006222
1.49,0.1046628598272375,92.47378991953458,0,100,1.0,1,0.2965106914759323
1.495,0.1320831047748631,99.23955414039685,0,100,1.0,1,0.43048622060191777
1.5,0.16303381314489318,106.98246625036123,0,100,1.0,1,0.5838112128784402
1.505,0.19682662652900276,114.8494723141842,0,100,1.0,1,0.7395935111719643
1.51,0.23241585813229,121.70177762100317,0,100,1.0,1,0.8752827251683797
1.515,0.26842527782774417,126.37413972136399,0,100,1.0,1,0.9678047469577027
1.52,0.30321927900592993,128.0,0,100,1.0,1,1.0
1.525,0.3350163137995362,126.27952255457706,0,100,1.0,1,0.9659311396945952
1.53,0.3620352400956416,121.57753056726469,0,100,1.0,1,0.8728223874705879
1.535,0.3826586036805073,114.80819134861454,0,100,1.0,1,0.7387760663091989
1.54,0.39559233134833227,107.1570555269131,0,100,1.0,1,0.5872684262755069
1.545,0.4,99.75682326894582,0,100,1.0,1,0.44072917364249153
1.55,0.39559233134833227,93.437628290086,0,100,1.0,1,0.3155965998036831
1.555,0.3826586036805073,88.6210265304858,0,100,1.0,1,0.2202183471383328
1.56,0.3620352400956416,85.35521064557099,0,100,1.0,1,0.15554872565487113
1.565,0.3350163137995362,83.43676931776182,0,100,1.0,1,0.11755978847053099
1.57,0.3032192790059296,82.55078966163666,0,100,1.0,1,0.1000156368640922
1.575,0.26842527782774417,82.37990978446584,0,100,1.0,1,0.0966318769201156
1.58,0.23241585813229,82.66385053700031,0,100,1.0,1,0.10225446607921415
1.585,0.19682662652900276,83.21572546574443,0,100,1.0,1,0.11318268248998865
1.59,0.16303381314489318,83.91239791841033,0,100,1.0,1,0.12697817660218486
1.595,0.13208310477486307,84.67546318988141,0,100,1.0,1,0.14208837999765173
1.6,0.10466285982723562,85.45331282711224,0,100,1.0,1,0.1574913431111335
1.605,0.08111733445917907,86.20847512306442,0,100,1.0,1,0.17244505194186965
1.61,0.06149084917398798,86.91043201717129,0,100,1.0,1,0.1863451884588374
1.615,0.04559141333598128,87.53247338289246,0,100,1.0,1,0.19866283926519726
1.62,0.03306217087257399,88.0509704560115,0,100,1.0,1,0.20893010803983164
1.625,0.02345067901074276,88.44584531855038,0,100,1.0,1,0.21674941224852243
1.63,0.016268788896435526,88.70146811501344,0,100,1.0,1,0.22181124980224634
1.635,0.011039026374860051,88.80754517288817,0,100,1.0,1,0.2239117856017459
1.64,0.007326255555493689,88.75976200907462,0,100,1.0,1,0.22296558433811128
1.645,0.0047556414315231815,88.56006114259078,0,100,1.0,1,0.21901111173447094
1.65,0.0030193390635632803,88.21650740561338,0,100,1.0,1,0.2122080674378888
1.655,0.001874953127946523,87.74274663539316,0,100,1.0,1,0.20282666604738933
1.66,0.0011387927410965778,87.15710631316468,0,100,1.0,1,0.19122982798345892
1.665,0.0006765107634274089,86.48142019658886,0,100,1.0,1,0.17784990488294766
1.67,0.00039307957404427924,85.73968176817759,0,100,1.0,1,0.16316201521143742
1.675,0.00022338910511776318,84.95664182706211,0,100,1.0,1,0.14765627380321017
1.68,0.00012417073320013317,84.15646337911748,0,100,1.0,1,0.13181115602212837
1.685,6.750753468904987e-05,83.36153323734182,0,100,1.0,1,0.11606996509587757
1.69,3.5897234866245036e-05,82.59150690834363,0,100,1.0,1,0.10082191897710163
1.695,1.8670050400879738e-05,81.86263483969579,0,100,1.0,1,0.08638880870684726
1.7,9.497421874143672e-06,81.18738775969096,0,100,1.0,1,0.07301757939982106
1.705,4.725434140340885e-06,80.57437030471705,0,100,1.0,1,0.06087861989538713
1.71,2.299606063738814e-06,80.02848839135753,0,100,1.0,1,0.0500690770565847
1.715,1.0945633976635486e-06,79.55131885537037,0,100,1.0,1,0.040620175353868686
1.72,5.095703414287532e-07,79.14162062723075,0,100,1.0,1,0.03250733915308417
1.725,2.3202944964797243e-07,78.79592494440962,0,100,1.0,1,0.025661880087319212
1.73,1.0333746954038608e-07,78.50914673365939,0,100,1.0,1,0.019983103636819648
1.735,4.501406988770349e-08,78.2751686651716,0,100,1.0,1,0.015349874557853577
1.74,0.0,78.08736155817212,0,100,1.0,1,0.01163092194400237
1.745,0.0,77.93901792246764,0,100,1.0,1,0.008693424207280032
1.75,0.0,77.82368785280029,0,100,1.0,1,0.0064096604514908995
1.755,0.0,77.73541708275205,0,100,1.0,1,0.004661724410931694
1.76,0.0,77.66889506741865,0,100,1.0,1,0.0033444567805672436
1.765,0.0,77.61952627338034,0,100,1.0,1,0.0023668568986206853
1.77,0.0,77.583440560487,0,100,1.0,1,0.0016522883264753596
1.775,0.0,77.55745905335685,0,100,1.0,1,0.0011378030367693284
1.78,0.0,77.53903077198105,0,100,1.0,1,0.0007728865738821098
1.785,0.0,77.52615310372167,0,100,1.0,1,0.0005178832420132368
1.79,0.0,77.51728648731061,0,100,1.0,1,0.00034230667941809016
1.795,0.0,77.51127087641395,0,100,1.0,1,0.00022318567156327782
1.8,0.0,77.50724896569103,0,100,1.0,1,0.0001435438750699704
1.805,0.0,77.50459898318086,0,100,1.0,1,9.10689738783267e-05
1.81,0.0,77.50287816056776,0,100,1.0,1,5.699327856952082e-05
1.815,0.0,77.50177678810005,0,100,1.0,1,3.518392277317274e-05
1.82,0.0,77.50108199106754,0,100,1.0,1,2.1425565693793897e-05
1.825,0.0,77.5006499487824,0,100,1.0,1,1.2870272918730328e-05
1.83,0.0,77.50038512526845,0,100,1.0,1,7.626242939628661e-06
1.835,0.0,77.50022510871771,0,100,1.0,1,4.457598370580323e-06
1.84,0.0,77.5001297926306,0,100,1.0,1,2.5701511010358426e-06
1.845,0.0,77.50007382019291,0,100,1.0,1,1.4617859982094934e-06
1.85,0.0,77.50004141596045,0,100,1.0,1,8.201180287752583e-07
1.855,0.0,77.50002292069169,0,100,1.0,1,4.5387508299598373e-07
1.86,0.0,77.50001251281783,0,100,1.0,1,2.477785709414651e-07
1.865,0.0,77.50000673829383,0,100,1.0,1,1.334315610696793e-07
1.87,0.001684486749771458,77.50000357941612,0,100,1.0,1,7.087952705732466e-08
1.875,0.00456624331333666,77.50000187560704,0,100,1.0,1,3.714073347221682e-08
1.88,0.011079731271581421,77.50000096948018,0,100,1.0,1,1.919762739096696e-08
1.885,0.024064571490409,77.5000004943146,0,100,1.0,1,9.788408024718646e-09
1.89,0.046784906529573234,77.5000002486196,0,100,1.0,1,4.923160387610695e-09
1.895,0.08141644351188804,77.50000012334874,0,100,1.0,1,2.442549326714119e-09
1.9,0.12682276464025305,77.50000006036726,0,100,1.0,1,1.1953912095609352e-09
1.905,0.1768320708657512,77.5000000291431,0,100,1.0,1,5.770909910556793e-10
1.91,0.22070063230473494,77.50000001387833,0,100,1.0,1,2.748185133806137e-10
1.915,0.24656126505113576,77.50000000651939,0,100,1.0,1,1.290967508911047e-10
1.92,0.24656126505724016,77.50000000302094,0,100,1.0,1,5.982066327440875e-11
1.925,0.220700632329898,77.50000000138085,0,100,1.0,1,2.7343654293494327e-11
1.93,0.17683207093748562,77.5000000006226,0,100,1.0,1,1.2328831025394658e-11
1.935,0.12682276483597799,77.50000000027693,0,100,1.0,1,5.4837015016859696e-12
1.94,0.08141644409447898,77.50000000012149,0,100,1.0,1,2.4057147912923155e-12
1.945,0.04678490952598309,77.50000000005258,0,100,1.0,1,1.0411913355692557e-12
1.95,0.024064605020532023,77.50000000002245,0,100,1.0,1,4.446168405944389e-13
1.955,0.011080171739334697,77.50000000000945,0,100,1.0,1,1.8713303733879865e-13
1.96,0.004571212771509492,77.50000000000392,0,100,1.0,1,7.766724557219314e-14
1.965,0.0017299316936037438,77.5000000000016,0,100,1.0,1,3.179854619441241e-14
1.97,0.0008899431850697582,77.50000000000065,0,100,1.0,1,1.2944540928698855e-14
1.975,0.002128806368910263,77.50000000000026,0,100,1.0,1,5.065255146012595e-15
1.98,0.009309664818487698,77.5000000000001,0,100,1.0,1,1.969821445671565e-15
1.985,0.03503263543368747,77.50000000000004,0,100,1.0,1,8.442091910020992e-16
1.99,0.10606267793605692,77.50000000000001,0,100,1.0,1,2.814030636673664e-16
1.995,0.25734927343160535,77.5,0,100,1.0,1,0.0
2.0,0.5003202479539708,77.5,0,100,1.0,1,0.0
2.005,0.7793067891790435,77.5,0,100,1.0,1,0.0
2.01,0.9720477407234077,77.50000295858521,1,100,1.0,1,5.858584580720963e-08
2.015,0.967267334488097,77.50000627158161,0,100,1.0,1,1.2418973487865964e-07
2.02,0.7505869905515209,77.50001448202111,0,100,1.0,1,2.867726953417611e-07
2.025,0.4028369574773956,77.5000381880034,0,100,1.0,1,7.56198087153937e-07
2.03,0.04553881263121314,77.50011515393722,0,100,1.0,1,2.2802759844742666e-06
2.035,-0.189138810908105,77.5003768133724,0,100,1.0,1,7.461650938574905e-06
2.04,-0.22868072635956738,77.50125530195008,0,100,1.0,1,2.4857464358047304e-05
2.045,-0.14104670682394166,77.50407161723201,0,100,1.0,1,8.062608380226824e-05
2.05,-0.051158381651102834,77.5125498908563,0,100,1.0,1,0.00024851269022388076
2.055,-0.008206426846427752,77.53632357375037,0,100,1.0,1,0.0007192786881260548
2.06,0.005350271385530505,77.59816032657108,0,100,1.0,1,0.0019437688429916036
2.065,0.01084668799215426,77.74699421583978,0,100,1.0,1,0.004890974571084695
2.07,0.016256859896386415,78.0778955905149,0,100,1.0,1,0.011443477039898991
2.075,0.02345021205790711,78.75638253739591,0,100,1.0,1,0.024878862126651635
2.08,0.0330621597308209,80.03714578164362,0,100,1.0,1,0.050240510527596365
2.085,0.04559141319943196,82.2581074321164,0,100,1.0,1,0.09421994915081988
2.09,0.06149084917446989,85.78593960996649,0,100,1.0,1,0.16407801207854436
2.095,0.08111733445924295,90.89811556558197,0,100,1.0,1,0.26530921912043515
2.1,0.1046628598272375,97.61546592808551,0,100,1.0,1,0.39832605798189136
2.105,0.1320831047748631,105.5415466537269,0,100,1.0,1,0.5552781515589484
2.11,0.16303381314489318,113.79708988561208,0,100,1.0,1,0.7187542551606353
2.115,0.19682662652900276,121.12822094684294,0,100,1.0,1,0.8639251672642168
2.12,0.23241585813229,126.20143333597863,0,100,1.0,1,0.9643848185342304
2.125,0.26842527782774417,128.0,0,100,1.0,1,1.0
2.13,0.30321927900592993,126.16275066678318,0,100,1.0,1,0.9636188250848154
2.135,0.3350163137995362,121.1116044575634,0,100,1.0,1,0.8635961278725426
2.14,0.3620352400956416,113.90717007869759,0,100,1.0,1,0.7209340609643087
2.145,0.3826586036805073,105.90088318147954,0,100,1.0,1,0.5623937263659315
2.15,0.39559233134833227,98.34046706321053,0,100,1.0,1,0.41268251610317874
2.155,0.4,92.08499814602648,0,100,1.0,1,0.28881184447577185
2.16,0.39559233134833227,87.50864038323002,0,100,1.0,1,0.1981908986778221
2.165,0.3826586036805073,84.57442275691706,0,100,1.0,1,0.14008757934489227
2.17,0.3620352400956416,82.99710802083918,0,100,1.0,1,0.10885362417503323
2.175,0.3350163137995362,82.40804661099806,0,100,1.0,1,0.09718904180194171
2.18,0.3032192790059296,82.46851319639717,0,100,1.0,1,0.0983863999286568
2.185,0.26842527782774417,82.92004890238644,0,100,1.0,1,0.10732770103735526
2.19,0.23241585813229,83.58796849171559,0,100,1.0,1,0.12055383151912051
2.195,0.19682662652900276,84.36197804515345,0,100,1.0,1,0.13588075336937525
2.2,0.16303381314489318,85.17248310799981,0,100,1.0,1,0.15193035857425366
2.205,0.13208310477486307,85.97196310008664,0,100,1.0,1,0.1677616455462701
2.21,0.10466285982723562,86.72363196440325,0,100,1.0,1,0.18264617751293571
2.215,0.08111733445917907,87.39605351764324,0,100,1.0,1,0.1959614557949156
2.22,0.06149084917398798,87.9615095120021,0,100,1.0,1,0.20715860419806129
2.225,0.04559141333598128,88.39629447802281,0,100,1.0,1,0.2157682074856002
2.23,0.03306217087257399,88.6817572080628,0,100,1.0,1,0.22142093481312486
2.235,0.02345067901074276,88.80541912343043,0,100,1.0,1,0.2238696856124837
2.24,0.016268788896435526,88.761813641984,0,100,1.0,1,0.22300621073235655
2.245,0.011039026374860051,88.55286824522712,0,100,1.0,1,0.21886867812330923
2.25,0.007326255555493689,88.18775826412227,0,100,1.0,1,0.2116387775073716
2.255,0.0047556414315231815,87.68223746822366,0,100,1.0,1,0.20162846471730023
2.26,0.0030193390635632803,87.05751062541435,0,100,1.0,1,0.18925763614681884
2.265,0.001874953127946523,86.33875969754904,0,100,1.0,1,0.17502494450592151
2.27,0.0011387927410965778,85.55346606508107,0,100,1.0,1,0.15947457554615976
2.275,0.0006765107634274089,84.72968388537797,0,100,1.0,1,0.14316205713619734
2.28,0.00039307957404427924,83.8944140290608,0,100,1.0,1,0.12662205998140194
2.285,0.00022338910511776318,83.07220603434823,0,100,1.0,1,0.11034071355145003
2.29,0.00012417073320013317,82.2840812711329,0,100,1.0,1,0.09473428259669119
2.295,6.750753468904987e-05,81.54682943609703,0,100,1.0,1,0.08013523635835698
2.3,3.5897234866245036e-05,80.87268841585063,0,100,1.0,1,0.06678590922476499
2.305,1.8670050400879738e-05,80.26937973963246,0,100,1.0,1,0.054839202764999116
2.31,9.497421874143672e-06,79.7404423296401,0,100,1.0,1,0.04436519464633868
2.315,4.725434140340885e-06,79.28578839837682,0,100,1.0,1,0.03536214650251135
2.32,2.299606063738814e-06,78.90239771037702,0,100,1.0,1,0.02777025169063399
2.325,1.0945633976635486e-06,78.58506900977153,0,100,1.0,1,0.021486515044980795
2.33,5.095703414287532e-07,78.32715803895881,0,100,1.0,1,0.016379367108095323
2.335,2.3202944964797243e-07,78.12124742111936,0,100,1.0,1,0.012301929131076509
2.34,1.0333746954038608e-07,77.95971182173484,0,100,1.0,1,0.009103204390788959
2.345,4.501406988770349e-08,77.83515963913185,0,100,1.0,1,0.006636824537264261
2.35,0.0,77.74074802073012,0,100,1.0,1,0.004767287539210363
2.355,0.0,77.67038003596295,0,100,1.0,1,0.003373862098276232
2.36,0.0,77.61880087924757,0,100,1.0,1,0.0023524926583677777
2.365,0.0,77.5816141709287,0,100,1.0,1,0.001616122196607968
2.37,0.0,77.5552403549693,0,100,1.0,1,0.0010938684152336571
2.375,0.0,77.53683768391573,0,100,1.0,1,0.0007294590874402959
2.38,0.0,77.52420321967791,0,100,1.0,1,0.00047927167679039497
2.385,0.0,77.51566747236087,0,100,1.0,1,0.0003102469774430597
2.39,0.0,77.50999239747283,0,100,1.0,1,0.00019786925688769166
2.395,0.0,77.50627892699517,0,100,1.0,1,0.00012433518802307088
2.4,0.0,77.50388728278739,0,100,1.0,1,7.697589677997649e-05
2.405,0.0,77.50237111056772,0,100,1.0,1,4.695268450935074e-05
2.41,0.0,77.50142495925365,0,100,1.0,2,2.8217014923849084e-05
2.415,0.0,77.5008437194384,0,100,1.0,2,1.6707315611742756e-05
2.42,0.0,77.50049219662667,0,100,1.0,2,9.746467854781015e-06
2.425,0.0,77.50028289428887,0,100,1.0,2,5.601867106388634e-06
2.43,0.0,77.500160197117,0,100,1.0,2,3.172220138565373e-06
2.435,0.0,77.50008937790716,0,100,1.0,2,1.769859547701092e-06
2.44,0.0,77.50004913043793,0,100,1.0,2,9.728799590006794e-07
2.445,0.0,77.50002660823445,0,100,1.0,2,5.268957316743446e-07
2.45,0.0,77.50001419797643,0,100,1.0,2,2.811480480503822e-07
2.455,0.001684486749771458,77.50000746417498,0,100,1.0,2,1.4780544524280167e-07
2.46,0.00456624331333666,77.50000386618065,0,100,1.0,2,7.6558032643865e-08
2.465,0.011079731271581421,77.50000197300162,0,100,1.0,2,3.906933893676528e-08
2.47,0.024064571490409,77.5000009920138,0,100,1.0,2,1.9643837535707885e-08
2.475,0.046784906529573234,77.50000049142014,0,100,1.0,2,9.731091848710877e-09
2.48,0.08141644351188804,77.50000023984637,0,100,1.0,2,4.749433110821946e-09
2.485,0.12682276464025305,77.50000011533426,0,100,1.0,2,2.2838467223006982e-09
2.49,0.1768320708657512,77.50000005464224,0,100,1.0,2,1.0820246085257727e-09
2.495,0.22070063230473494,77.50000002550607,0,100,1.0,2,5.050706607620992e-10
2.5,0.24656126505113576,77.50000001173015,0,100,1.0,2,2.3228021926133627e-10
2.505,0.24656126505724016,77.50000000531507,0,100,1.0,2,1.0524896685755005e-10
2.51,0.220700632329898,77.50000000237279,0,100,1.0,2,4.698586954054017e-11
2.515,0.17683207093748562,77.50000000104365,0,100,1.0,2,2.066624099573139e-11
2.52,0.12682276483597799,77.50000000045226,0,100,1.0,2,8.955652501213936e-12
2.525,0.08141644409447898,77.5000000001931,0,100,1.0,2,3.823704829112175e-12
2.53,0.04678490952598309,77.50000000008123,0,100,1.0,2,1.6084999119226663e-12
2.535,0.024064605020532023,77.50000000003367,0,100,1.0,2,6.66643857827991e-13
2.54,0.011080171739334697,77.50000000001374,0,100,1.0,2,2.7211676256634333e-13
2.545,0.004571212771509492,77.50000000000553,0,100,1.0,2,1.0946579176660553e-13
2.55,0.0017299316936037438,77.50000000000219,0,100,1.0,2,4.333607180477443e-14
2.555,0.0008899431850697582,77.50000000000085,0,100,1.0,2,1.6884183820041984e-14
2.56,0.002128806368910263,77.50000000000033,0,100,1.0,2,6.472270464349428e-15
2.565,0.009309664818487698,77.50000000000013,0,100,1.0,2,2.5326275730062976e-15
2.57,0.03503263543368747,77.50000000000004,0,100,1.0,2,8.442091910020992e-16
2.575,0.10606267793605692,77.50000000000001,0,100,1.0,2,2.814030636673664e-16
2.58,0.25734927343160535,77.5,0,100,1.0,2,0.0
2.585,0.5003202479539708,77.5,0,100,1.0,2,0.0
2.59,0.7793067891790435,77.5,0,100,1.0,2,0.0
2.595,0.9720477407234077,77.5000029754369,1,100,1.0,2,5.8919542565004434e-08
2.6,0.967267334488097,77.50000599695579,0,100,1.0,2,1.1875159984946108e-07
2.605,0.7505869905515209,77.50001298600604,0,100,1.0,2,2.571486344784194e-07
2.61,0.4028369574773956,77.50003147504462,0,100,1.0,2,6.232682103405516e-07
2.615,0.04553881263121314,77.50008619286392,0,100,1.0,2,1.7067893845188057e-06
2.62,-0.189138810908105,77.50025730044038,0,100,1.0,2,5.095058225374532e-06
2.625,-0.22868072635956738,77.5007933249374,0,100,1.0,2,1.570940470108524e-05
2.63,-0.14104670682394166,77.50241950076978,0,100,1.0,2,4.791090633219001e-05
2.635,-0.051158381651102834,77.50711144306592,0,100,1.0,2,0.00014082065477076427
2.64,-0.008206426846427752,77.51986871228921,0,100,1.0,2,0.0003934398473110814
2.645,0.005350271385530505,77.55240190738294,0,100,1.0,2,0.0010376615323355166
2.65,0.01084668799215426,77.63001002590855,0,100,1.0,2,0.0025744559585850857
2.655,0.016256859896386415,77.80289200489227,0,100,1.0,2,0.0059978614830152755
2.66,0.02345021205790711,78.16202929152928,0,100,1.0,2,0.013109490921371869
2.665,0.0330621597308209,78.85684044003119,0,100,1.0,2,0.02686812752537014
2.67,0.04559141319943196,80.10689364457848,0,100,1.0,2,0.05162165632828668
2.675,0.06149084917446989,82.19454731190469,0,100,1.0,2,0.09296133290900367
2.68,0.08111733445924295,85.42322629870154,0,100,1.0,2,0.15689557027131754
2.685,0.1046628598272375,90.03220955939476,0,100,1.0,2,0.24816256553256946
2.69,0.1320831047748631,96.0763779834986,0,100,1.0,2,0.36784906898017034
2.695,0.16303381314489318,103.30485469372982,0,100,1.0,2,0.5109872216580162
2.7,0.19682662652900276,111.0935870574871,0,100,1.0,2,0.6652195456928138
2.705,0.23241585813229,118.48679998058978,0,100,1.0,2,0.8116198015958372
2.71,0.26842527782774417,124.3703389478431,0,100,1.0,2,0.9281255237196653
2.715,0.30321927900592993,127.74334061454307,0,100,1.0,2,0.994917635931546
2.72,0.3350163137995362,128.0,0,100,1.0,2,1.0
2.725,0.3620352400956416,125.11330099463837,0,100,1.0,2,0.9428376434581854
2.73,0.3826586036805073,119.64481297500973,0,100,1.0,2,0.8345507519803906
2.735,0.39559233134833227,112.57637305393439,0,100,1.0,2,0.6945816446323642
2.74,0.4,105.03340955907804,0,100,1.0,2,0.5452160308728324
2.745,0.39559233134833227,98.00714308426187,0,100,1.0,2,0.4060820412725123
2.75,0.3826586036805073,92.16807227358933,0,100,1.0,2,0.29045687670473924
2.755,0.3620352400956416,87.8106625064421,0,100,1.0,2,0.20417153478103167
2.76,0.3350163137995362,84.91128351654942,0,100,1.0,2,0.14675808943662214
2.765,0.3032192790059296,83.24627791934817,0,100,1.0,2,0.11378768157125096
2.77,0.26842527782774417,82.51389380055394,0,100,1.0,2,0.09928502575354345
2.775,0.23241585813229,82.42351586481769,0,100,1.0,2,0.0974953636597562
2.78,0.19682662652900276,82.74137651779043,0,100,1.0,2,0.10378963401565204
2.785,0.16303381314489318,83.30063613325049,0,100,1.0,2,0.1148640818465444
2.79,0.13208310477486307,83.99100308268714,0,100,1.0,2,0.1285347145086563
2.795,0.10466285982723562,84.74151848915058,0,100,1.0,2,0.14339640572575404
2.8,0.08111733445917907,85.50482196555724,0,100,1.0,2,0.15851132605063845
2.805,0.06149084917398798,86.24611874995509,0,100,1.0,2,0.17319047029614035
2.81,0.04559141333598128,86.93688968311473,0,100,1.0,2,0.1868691026359352
2.815,0.03306217087257399,87.552095598575,0,100,1.0,2,0.19905139799158403
2.82,0.02345067901074276,88.06949801926329,0,100,1.0,2,0.20929699048046124
2.825,0.016268788896435526,88.47004810840187,0,100,1.0,2,0.2172286754138984
2.83,0.011039026374860051,88.73867645530594,0,100,1.0,2,0.2225480486199195
2.835,0.007326255555493689,88.86509801461254,0,100,1.0,2,0.22505144583391173
2.84,0.0047556414315231815,88.84442009521223,0,100,1.0,2,0.22464198208341046
2.845,0.0030193390635632803,88.6774424986801,0,100,1.0,2,0.2213354950233682
2.85,0.001874953127946523,88.37060213916769,0,100,1.0,2,0.21525944830035024
2.855,0.0011387927410965778,87.93556017778981,0,100,1.0,2,0.20664475599583781
2.86,0.0006765107634274089,87.38846637634401,0,100,1.0,2,0.19581121537314877
2.865,0.00039307957404427924,86.74896474048299,0,100,1.0,2,0.18314781664322752
2.87,0.00022338910511776318,86.03902558407252,0,100,1.0,2,0.16908961552618848
2.875,0.00012417073320013317,85.2817005402186,0,100,1.0,2,0.1540930800043286
2.88,6.750753468904987e-05,84.49989815970547,0,100,1.0,2,0.1386118447466429
2.885,3.5897234866245036e-05,83.71526910843023,0,100,1.0,2,0.1230746358104997
2.89,1.8670050400879738e-05,82.94727325500796,0,100,1.0,2,0.10786679712887044
2.895,9.497421874143672e-06,82.21247863298953,0,100,1.0,2,0.0933164085740501
2.9,4.725434140340885e-06,81.52411733001249,0,100,1.0,2,0.07968549168341559
2.905,2.299606063738814e-06,80.89189878152109,0,100,1.0,2,0.06716631250536817
2.91,1.0945633976635486e-06,80.32205933831581,0,100,1.0,2,0.05588236313496654
2.915,5.095703414287532e-07,79.8176102712143,0,100,1.0,2,0.045893272697313
2.92,2.3202944964797243e-07,79.3787356692764,0,100,1.0,2,0.03720268652032466
2.925,1.0333746954038608e-07,79.00328721222063,0,100,1.0,2,0.02976806360832925
2.93,4.501406988770349e-08,78.68732401962978,0,100,1.0,2,0.023511366725342264
2.935,0.0,78.425651592325,0,100,1.0,2,0.018329734501485076
2.94,0.0,78.21232282339807,0,100,1.0,2,0.014105402443526104
2.945,0.0,78.04107463502996,0,100,1.0,2,0.010714349208514011
2.95,0.0,77.90568457847962,0,100,1.0,2,0.008033357989695492
2.955,0.0,77.8002415759474,0,100,1.0,2,0.005945377741532598
2.96,0.0,77.71933309720917,0,100,1.0,2,0.004343229647706395
2.965,0.0,77.658157036978,0,100,1.0,2,0.0031318225144157776
2.97,0.0,77.61257031386367,0,100,1.0,2,0.002229115126013285
2.975,0.0,77.57908793610137,0,100,1.0,2,0.0015660977445816565
2.98,0.0,77.55484633547951,0,100,1.0,2,0.0010860660490992148
2.985,0.0,77.53754360721969,0,100,1.0,2,0.0007434377667265164
2.99,0.0,77.52536736675137,0,100,1.0,2,0.0005023240940864967
2.995,0.0,77.51691865312054,0,100,1.0,2,0.0003350228340701226
3.0,0.0,77.51113799947356,0,100,1.0,2,0.00022055444502101825
3.005,0.0,77.50723768383935,0,100,1.0,2,0.0001433204720663273
3.01,0.0,77.50464240506564,0,100,1.0,2,9.19288131809584e-05
3.015,0.0,77.50293925633632,0,100,1.0,2,5.820309576869035e-05
3.02,0.0,77.5018368889561,0,100,1.0,2,3.637403873477245e-05
3.025,0.0,77.50113312899164,0,100,1.0,2,2.2438197854254743e-05
3.03,0.0,77.50068996459827,0,100,1.0,2,1.3662665312191021e-05
3.035,0.0,77.50041469163281,0,100,1.0,2,8.211715501237458e-06
3.04,0.0,77.50024602245387,0,100,1.0,2,4.8717317597065364e-06
3.045,0.0,77.50014407055438,0,100,1.0,2,2.8528822650347895e-06
3.05,0.0,77.50008327731553,0,100,1.0,2,1.6490557529755503e-06
3.055,0.0,77.50004751483387,0,100,1.0,2,9.40887799337775e-07
3.06,0.0,77.50002675979127,0,100,1.0,2,5.298968567961373e-07
3.065,0.0,77.50001487603653,0,100,1.0,2,2.9457498080413606e-07
3.07,0.0,77.50000816286773,0,100,1.0,2,1.6164094513487276e-07
3.075,0.0,77.50000442129294,0,100,1.0,2,8.755035529554e-08
3.08,0.001684486749771458,77.50000236377878,0,100,1.0,2,4.680750052021623e-08
3.085,0.00456624331333666,77.50000124742768,0,100,1.0,2,2.4701538135073267e-08
3.09,0.011079731271581421,77.50000064979285,0,100,1.0,2,1.2867185196318141e-08
3.095,0.024064571490409,77.50000033410694,0,100,1.0,2,6.61597906932146e-09
3.1,0.046784906529573234,77.50000016956923,0,100,1.0,2,3.3578066004248277e-09
3.105,0.08141644351188804,77.50000008494926,0,100,1.0,2,1.682163636108064e-09
3.11,0.12682276464025305,77.50000004200716,0,100,1.0,2,8.318249235731621e-10
3.115,0.1768320708657512,77.50000002050396,0,100,1.0,2,4.060190335756956e-10
3.12,0.22070063230473494,77.50000000987878,0,100,1.0,2,1.9561930952981544e-10
3.125,0.24656126505113576,77.50000000469808,0,100,1.0,2,9.3031290042304e-11
3.13,0.24656126505724016,77.5000000022054,0,100,1.0,2,4.367122285360226e-11
3.135,0.220700632329898,77.50000000102189,0,100,1.0,2,2.023541290525665e-11
3.14,0.17683207093748562,77.50000000046738,0,100,1.0,2,9.255065360956014e-12
3.145,0.12682276483597799,77.500000000211,0,100,1.0,2,4.178272689333056e-12
3.15,0.08141644409447898,77.50000000009403,0,100,1.0,2,1.8620440722869634e-12
3.155,0.04678490952598309,77.50000000004135,0,100,1.0,2,8.188829152720362e-13
3.16,0.024064605020532023,77.50000000001796,0,100,1.0,2,3.5569347247555116e-13
3.165,0.011080171739334697,77.5000000000077,0,100,1.0,2,1.525204605077126e-13
3.17,0.004571212771509492,77.50000000000325,0,100,1.0,2,6.44413015798269e-14
3.175,0.0017299316936037438,77.50000000000136,0,100,1.0,2,2.7014694112067174e-14
3.18,0.0008899431850697582,77.50000000000055,0,100,1.0,2,1.097471948302729e-14
3.185,0.002128806368910263,77.50000000000023,0,100,1.0,2,4.502449018677863e-15
3.19,0.009309664818487698,77.50000000000009,0,100,1.0,2,1.6884183820041984e-15
3.195,0.03503263543368747,77.50000000000003,0,100,1.0,2,5.628061273347328e-16
3.2,0.10606267793605692,77.50000000000001,0,100,1.0,2,2.814030636673664e-16
3.205,0.25734927343160535,77.5,0,100,1.0,2,0.0
3.21,0.5003202479539708,77.5,0,100,1.0,2,0.0
3.215,0.7793067891790435,77.5,0,100,1.0,2,0.0
3.22,0.9720477407234077,77.5000029632167,1,100,1.0,2,5.867755844249559e-08
3.225,0.967267334488097,77.50000611949993,0,100,1.0,2,1.2117821641611342e-07
3.23,0.7505869905515209,77.5000136661605,0,100,1.0,2,2.706170395714874e-07
3.235,0.4028369574773956,77.50003448761683,0,100,1.0,2,6.829231055424244e-07
3.24,0.04553881263121314,77.50009893563154,0,100,1.0,2,1.9591214166635243e-06
3.245,-0.189138810908105,77.50030887479707,0,100,1.0,2,6.1163326152625205e-06
3.25,-0.22868072635956738,77.50098936987865,0,100,1.0,2,1.9591482745598493e-05
3.255,-0.14104670682394166,77.50311109919818,0,100,1.0,2,6.160592471641763e-05
3.26,-0.051158381651102834,77.50936430658398,0,100,1.0,2,0.00018543181354407307
3.265,-0.008206426846427752,77.52663503308537,0,100,1.0,2,0.0005274263977300939
3.27,0.005350271385530505,77.57113795423459,0,100,1.0,2,0.0014086723610809244
3.275,0.01084668799215426,77.67785621339104,0,100,1.0,2,0.003521905215664127
3.28,0.016256859896386415,77.9156022259755,0,100,1.0,2,0.008229747049019897
3.285,0.02345021205790711,78.4069380257099,0,100,1.0,2,0.017959168825938725
3.29,0.0330621597308209,79.34748987799968,0,100,1.0,2,0.036583957980191636
3.295,0.04559141319943196,81.01228362930992,0,100,1.0,2,0.06955017087742416
3.3,0.06149084917446989,83.73079902637203,0,100,1.0,2,0.12338215893805991
3.305,0.08111733445924295,87.81367872264438,0,100,1.0,2,0.20423126183454224
3.31,0.1046628598272375,93.4288216152286,0,100,1.0,2,0.3154222102025465
3.315,0.1320831047748631,100.45351412056698,0,100,1.0,2,0.4545250320904352
3.32,0.16303381314489318,108.36134960751014,0,100,1.0,2,0.6111158338120819
3.325,0.19682662652900276,116.21652194472324,0,100,1.0,2,0.7666638008856087
3.33,0.23241585813229,122.82360122088085,0,100,1.0,2,0.8974970538788286
3.335,0.26842527782774417,127.01713839847308,0,100,1.0,2,0.9805373940291698
3.34,0.30321927900592993,128.0,0,100,1.0,2,1.0
3.345,0.3350163137995362,125.59701682575721,0,100,1.0,2,0.9524161747674694
3.35,0.3620352400956416,120.3140247604608,0,100,1.0,2,0.8478024705041742
3.355,0.3826586036805073,113.17578272521496,0,100,1.0,2,0.7064511430735635
3.36,0.39559233134833227,105.41460450461524,0,100,1.0,2,0.5527644456359454
3.365,0.4,98.1397912084383,0,100,1.0,2,0.40870873680075837
3.37,0.39559233134833227,92.10783014594557,0,100,1.0,2,0.2892639632860509
3.375,0.3826586036805073,87.64951021194136,0,100,1.0,2,0.2009804002364626
3.38,0.3620352400956416,84.73520644729147,0,100,1.0,2,0.143271414797851
3.385,0.3350163137995362,83.11302488416099,0,100,1.0,2,0.11114900760714837
3.39,0.3032192790059296,82.45012180045974,0,100,1.0,2,0.09802221387048991
3.395,0.26842527782774417,82.43311100444015,0,100,1.0,2,0.09768536642455743
3.4,0.23241585813229,82.8162323398421,0,100,1.0,2,0.10527192752162579
3.405,0.19682662652900276,83.42866618321837,0,100,1.0,2,0.11739933036075977
3.41,0.16303381314489318,84.1600622480566,0,100,1.0,2,0.13188242075359613
3.415,0.13208310477486307,84.940236624999,0,100,1.0,2,0.14733141831681193
3.42,0.10466285982723562,85.72195777553705,0,100,1.0,2,0.1628110450601396
3.425,0.08111733445917907,86.4696633299647,0,100,1.0,2,0.1776170956428654
3.43,0.06149084917398798,87.15353818842898,0,100,1.0,2,0.19115917204809865
3.435,0.04559141333598128,87.74725089071974,0,100,1.0,2,0.2029158592221731
3.44,0.03306217087257399,88.22774168238095,0,100,1.0,2,0.21243052836397924
3.445,0.02345067901074276,88.57593914149084,0,100,1.0,2,0.21932552755427395
3.45,0.016268788896435526,88.77773137510404,0,100,1.0,2,0.2233214133683968
3.455,0.011039026374860051,88.82481855964929,0,100,1.0,2,0.22425383286434233
3.46,0.007326255555493689,88.71524935893723,0,100,1.0,2,0.22208414572152926
3.465,0.0047556414315231815,88.45354650959632,0,100,1.0,2,0.21690191108111528
3.47,0.0030193390635632803,88.05039484238684,0,100,1.0,2,0.20891870975023438
3.475,0.001874953127946523,87.52191701266186,0,100,1.0,2,0.1984538022309279
3.48,0.0011387927410965778,86.88860404516025,0,100,1.0,2,0.18591295138931188
3.485,0.0006765107634274089,86.17399918548756,0,100,1.0,2,0.17176236010866455
3.49,0.00039307957404427924,85.40325259759987,0,100,1.0,2,0.15650005143762127
3.495,0.00022338910511776318,84.60166988532686,0,100,1.0,2,0.14062712644211597
3.5,0.00012417073320013317,83.79336949573046,0,100,1.0,2,0.12462117813327643
3.505,6.750753468904987e-05,83.00014467233905,0,100,1.0,2,0.10891375588790192
3.51,3.5897234866245036e-05,82.2405979846216,0,100,1.0,2,0.09387322741824954
3.515,1.8670050400879738e-05,81.52958456421845,0,100,1.0,2,0.07979375374690006
3.52,9.497421874143672e-06,80.8779681711764,0,100,1.0,2,0.06689045883517634
3.525,4.725434140340885e-06,80.29266578507671,0,100,1.0,2,0.05530031257577638
3.53,2.299606063738814e-06,79.77693434234938,0,100,1.0,2,0.045087808759393624
3.535,1.0945633976635486e-06,79.33083911757771,0,100,1.0,2,0.03625423995203387
3.54,5.095703414287532e-07,78.95183743607637,0,100,1.0,2,0.028749256159928207
3.545,2.3202944964797243e-07,78.63541317800785,0,100,1.0,2,0.022483429267482213
3.55,1.0333746954038608e-07,78.3757053491493,0,100,1.0,2,0.017340699983154448
3.555,4.501406988770349e-08,78.16608584846017,0,100,1.0,2,0.013189818781389513
3.56,0.0,77.99965535153865,0,100,1.0,2,0.00989416537700296
3.565,0.0,77.86964004284735,0,100,1.0,2,0.007319604808858435
3.57,0.0,77.7696842680522,0,100,1.0,2,0.005340282535687178
3.575,0.0,77.69404405685896,0,100,1.0,2,0.0038424565714644857
3.58,0.0,77.63769342762592,0,100,1.0,2,0.0027266025272459243
3.585,0.0,77.59635942692422,0,100,1.0,2,0.0019081074638460122
3.59,0.0,77.56650332172448,0,100,1.0,2,0.0013168974598907444
3.595,0.0,77.54526479938636,0,100,1.0,2,0.0008963326611160258
3.6,0.0,77.53038407321809,0,100,1.0,2,0.0006016648161997493
3.605,0.0,77.52011404975813,0,100,1.0,2,0.0003982980150125725
3.61,0.0,77.51313170683527,0,100,1.0,2,0.0002600337987181626
3.615,0.0,77.50845494854985,0,100,1.0,3,0.0001674247237594887
3.62,0.0,77.5053686969771,0,100,1.0,3,0.00010631083122971762
3.625,0.0,77.50336197861758,0,100,1.0,3,6.6573834011411e-05
3.63,0.0,77.50207629536354,0,100,1.0,3,4.1114759673998586e-05
3.635,0.0,77.5012645949802,0,100,1.0,3,2.5041484756421046e-05
3.64,0.0,77.50075959466382,0,100,1.0,3,1.5041478491465937e-05
3.645,0.0,77.50044996681824,0,100,1.0,3,8.910234024507182e-06
3.65,0.0,77.50026287374051,0,100,1.0,3,5.205420604165783e-06
3.655,0.0,77.50015145445519,0,100,1.0,3,2.9990981226213685e-06
3.66,0.0,77.5000860567684,0,100,1.0,3,1.7040944236790586e-06
3.665,0.0,77.50004822321333,0,100,1.0,3,9.549151153769704e-07
3.67,0.0,77.50002664988816,0,100,1.0,3,5.277205575409182e-07
3.675,0.0,77.50001452455274,0,100,1.0,3,2.87614905726802e-07
3.68,0.0,77.50000780689389,0,100,1.0,3,1.545919582269454e-07
3.685,0.001684486749771458,77.5000041382995,0,100,1.0,3,8.194652479579589e-08
3.69,0.00456624331333666,77.5000021633844,0,100,1.0,3,4.2839294936507795e-08
3.695,0.011079731271581421,77.50000111535623,0,100,1.0,3,2.2086261919461736e-08
3.7,0.024064571490409,77.50000056710259,0,100,1.0,3,1.1229754235419834e-08
3.705,0.046784906529573234,77.5000002843661,0,100,1.0,3,5.631011784469881e-09
3.71,0.08141644351188804,77.50000014062486,0,100,1.0,3,2.784650749811473e-09
3.715,0.12682276464025305,77.5000000685827,0,100,1.0,3,1.3580731346976763e-09
3.72,0.1768320708657512,77.5000000329864,0,100,1.0,3,6.53196168221455e-10
3.725,0.22070063230473494,77.50000001564673,0,100,1.0,3,3.0983631062338077e-10
3.73,0.24656126505113576,77.50000000731949,0,100,1.0,3,1.4494030618170475e-10
3.735,0.24656126505724016,77.5000000033768,0,100,1.0,3,6.686727739170327e-11
3.74,0.220700632329898,77.50000000153638,0,100,1.0,3,3.042332942226998e-11
3.745,0.17683207093748562,77.50000000068938,0,100,1.0,3,1.3651144021567612e-11
3.75,0.12682276483597799,77.50000000030506,0,100,1.0,3,6.0408795677473545e-12
3.755,0.08141644409447898,77.50000000013313,0,100,1.0,3,2.6361839004358887e-12
3.76,0.04678490952598309,77.5000000000573,0,100,1.0,3,1.1346171527068214e-12
3.765,0.024064605020532023,77.50000000002431,0,100,1.0,3,4.81480641934864e-13
3.77,0.011080171739334697,77.50000000001017,0,100,1.0,3,2.0148459358583435e-13
3.775,0.004571212771509492,77.5000000000042,0,100,1.0,3,8.329530684554046e-14
3.78,0.0017299316936037438,77.5000000000017,0,100,1.0,3,3.376836764008397e-14
3.785,0.0008899431850697582,77.50000000000068,0,100,1.0,3,1.3507347056033587e-14
3.79,0.002128806368910263,77.50000000000027,0,100,1.0,3,5.346658209679962e-15
3.795,0.009309664818487698,77.5000000000001,0,100,1.0,3,1.969821445671565e-15
3.8,0.03503263543368747,77.50000000000004,0,100,1.0,3,8.442091910020992e-16
3.805,0.10606267793605692,77.50000000000001,0,100,1.0,3,2.814030636673664e-16
3.81,0.25734927343160535,77.5,0,100,1.0,3,0.0
3.815,0.5003202479539708,77.5,0,100,1.0,3,0.0
3.82,0.7793067891790435,77.5,0,100,1.0,3,0.0
3.825,0.9720477407234077,77.50000296085867,1,100,1.0,3,5.863086466933514e-08
3.83,0.967267334488097,77.50000571035189,0,100,1.0,3,1.1307627496174937e-07
3.835,0.7505869905515209,77.50001170443171,0,100,1.0,3,2.3177092502199158e-07
3.84,0.4028369574773956,77.50002641304063,0,100,1.0,3,5.230305075116067e-07
3.845,0.04553881263121314,77.5000665252307,0,100,1.0,3,1.3173313008526675e-06
3.85,-0.189138810908105,77.50018274192149,0,100,1.0,3,3.61865191073118e-06
3.855,-0.22868072635956738,77.50052387318846,0,100,1.0,3,1.0373726504079932e-05
3.86,-0.14104670682394166,77.50150521745815,0,100,1.0,3,2.9806286299912477e-05
3.865,-0.051158381651102834,77.50421964861579,0,100,1.0,3,8.355739833243008e-05
3.87,-0.008206426846427752,77.51136598535467,0,100,1.0,3,0.00022506901692420094
3.875,0.005350271385530505,77.52917765399178,0,100,1.0,3,0.0005777753265699112
3.88,0.01084668799215426,77.57108134476782,0,100,1.0,3,0.001407551381540973
3.885,0.016256859896386415,77.6639647333306,0,100,1.0,3,0.0032468264025861697
3.89,0.02345021205790711,77.85769648779382,0,100,1.0,3,0.0070830987681943895
3.895,0.0330621597308209,78.23750275866202,0,100,1.0,3,0.014604015023010253
3.9,0.04559141319943196,78.93660609869892,0,100,1.0,3,0.02844764551879043
3.905,0.06149084917446989,80.14329255035945,0,100,1.0,3,0.05234242673979104
3.91,0.08111733445924295,82.09338400003853,0,100,1.0,3,0.09095809901066389
3.915,0.1046628598272375,85.03822258680947,0,100,1.0,3,0.14927173439226668
3.92,0.1320831047748631,89.18250782082993,0,100,1.0,3,0.23133678853128567
3.925,0.16303381314489318,94.59721442119522,0,100,1.0,3,0.3385587014098063
3.93,0.19682662652900276,101.12843122811438,0,100,1.0,3,0.46788972728939365
3.935,0.23241585813229,108.33679106398483,0,100,1.0,3,0.6106295260195016
3.94,0.26842527782774417,115.50495517696805,0,100,1.0,3,0.7525733698409516
3.945,0.30321927900592993,121.73545376717152,0,100,1.0,3,0.8759495795479509
3.95,0.3350163137995362,126.12938694554578,0,100,1.0,3,0.9629581573375401
3.955,0.3620352400956416,128.0,0,100,1.0,3,1.0
3.96,0.3826586036805073,127.05213378267595,0,100,1.0,3,0.9812303719341773
3.965,0.39559233134833227,123.46342393853134,0,100,1.0,3,0.9101668106639869
3.97,0.4,117.83691169866654,0,100,1.0,3,0.7987507267062681
3.975,0.39559233134833227,111.0428157522503,0,100,1.0,3,0.6642141733118873
3.98,0.3826586036805073,104.00689074025422,0,100,1.0,3,0.5248889255495885
3.985,0.3620352400956416,97.51613742161487,0,100,1.0,3,0.3963591568636608
3.99,0.3350163137995362,92.09620566947218,0,100,1.0,3,0.28903377563311256
3.995,0.3032192790059296,87.98016572790874,0,100,1.0,3,0.20752803421601468
4.0,0.26842527782774417,85.15367330456162,0,100,1.0,3,0.151557887219042
4.005,0.23241585813229,83.44129238271697,0,100,1.0,3,0.11764935411320726
4.01,0.19682662652900276,82.59709159381332,0,100,1.0,3,0.10093250680818451
4.015,0.16303381314489318,82.37439505741156,0,100,1.0,3,0.09652267440418934
4.02,0.13208310477486307,82.56552256721031,0,100,1.0,3,0.10030737756852096
4.025,0.10466285982723562,83.01490925964377,0,100,1.0,3,0.10920612395334203
4.03,0.08111733445917907,83.6149898322029,0,100,1.0,3,0.12108890756837415
4.035,0.06149084917398798,84.29448016479837,0,100,1.0,3,0.13454416167917568
4.04,0.04559141333598128,85.00585406562266,0,100,1.0,3,0.14863077357668628
4.045,0.03306217087257399,85.71541498624035,0,100,1.0,3,0.16268148487604647
4.05,0.02345067901074276,86.3968221508936,0,100,1.0,3,0.17617469605729896
4.055,0.016268788896435526,87.02758541113411,0,100,1.0,3,0.18866505764622005
4.06,0.011039026374860051,87.58761854591343,0,100,1.0,3,0.19975482269135503
4.065,0.007326255555493689,88.05900895677816,0,100,1.0,3,0.2090892862728348
4.07,0.0047556414315231815,88.42639340038534,0,100,1.0,3,0.21636422575020467
4.075,0.0030193390635632803,88.6775522319961,0,100,1.0,3,0.22133766796031887
4.08,0.001874953127946523,88.8039936388506,0,100,1.0,3,0.22384145819506138
4.085,0.0011387927410965778,88.80139813628098,0,100,1.0,3,0.22379006210457386
4.09,0.0006765107634274089,88.66985288048312,0,100,1.0,3,0.2211852055541212
4.095,0.00039307957404427924,88.41384349586936,0,100,1.0,3,0.21611571278949224
4.1,0.00022338910511776318,88.04199915217103,0,100,1.0,3,0.20875245845883228
4.105,0.00012417073320013317,87.56660940207883,0,100,1.0,3,0.19933880004116486
4.11,6.750753468904987e-05,87.00294999195195,0,100,1.0,3,0.18817722756340496
4.115,3.5897234866245036e-05,86.36846906118626,0,100,1.0,3,0.1756132487363616
4.12,1.8670050400879738e-05,85.68189406124547,0,100,1.0,3,0.16201770418307868
4.125,9.497421874143672e-06,84.96232284202596,0,100,1.0,3,0.1477687691490288
4.13,4.725434140340885e-06,84.22835970510592,0,100,1.0,3,0.1332348456456617
4.135,2.299606063738814e-06,83.49734943647044,0,100,1.0,3,0.11875939478159295
4.14,1.0945633976635486e-06,82.78475053823685,0,100,1.0,3,0.10464852550964059
4.145,5.095703414287532e-07,82.10367455593006,0,100,1.0,3,0.09116187239465456
4.15,2.3202944964797243e-07,81.46460316387433,0,100,1.0,3,0.07850699334404614
4.155,1.0333746954038608e-07,80.87528008464052,0,100,1.0,3,0.06683722939882222
4.16,4.501406988770349e-08,80.34076230091587,0,100,1.0,3,0.05625271883001722
4.165,0.0,79.86360532746926,0,100,1.0,3,0.04680406589048037
4.17,0.0,79.44415107473705,0,100,1.0,3,0.03849804108390198
4.175,0.0,79.08088414773357,0,100,1.0,3,0.031304636588783574
4.18,0.0,78.77082299540983,0,100,1.0,3,0.025164811790293663
4.185,0.0,78.5099155754286,0,100,1.0,3,0.019998328226308773
4.19,0.0,78.2934143679769,0,100,1.0,3,0.015711175603502846
4.195,0.0,78.11621183743308,0,100,1.0,3,0.012202214602635337
4.2,0.0,77.97312402094234,0,100,1.0,3,0.009368792493907646
4.205,0.0,77.85911615682538,0,100,1.0,3,0.00711121102624514
4.21,0.0,77.76946966133801,0,100,1.0,3,0.005336032897782325
4.215,0.0,77.6998940161644,0,100,1.0,3,0.0039582973497899595
4.22,0.0,77.64659011856614,0,100,1.0,3,0.00290277462507204
4.225,0.0,77.6062734021177,0,100,1.0,3,0.0021044238043107654
4.23,0.0,77.57616570333117,0,100,1.0,3,0.0015082317491320926
4.235,0.0,77.55396464383686,0,100,1.0,3,0.0010686068086507624
4.24,0.0,77.537798464583,0,100,1.0,3,0.0007484844471882257
4.245,0.0,77.52617302906836,0,100,1.0,3,0.0005182778033338646
4.25,0.0,77.51791631962661,0,100,1.0,3,0.0003547786064674742
4.255,0.0,77.5121243538018,0,100,1.0,3,0.0002400862138969306
4.26,0.0,77.50811116779626,0,100,1.0,3,0.0001606171840843208
4.265,0.0,77.50536442472783,0,100,1.0,3,0.00010622623223425628
4.27,0.0,77.5035073403457,0,100,1.0,3,6.945228407339032e-05
4.275,0.0,77.50226697980659,0,100,1.0,3,4.489068923944479e-05
4.28,0.0,77.50144854628769,0,100,1.0,3,2.868408490476303e-05
4.285,0.0,77.5009150231643,0,100,1.0,3,1.8119270580123923e-05
4.29,0.0,77.50057140861654,0,100,1.0,3,1.131502210964214e-05
4.295,0.0,77.5003527576711,0,100,1.0,3,6.985300417724856e-06
4.3,0.0,77.50021528864964,0,100,1.0,3,4.263141577065752e-06
4.305,0.0,77.50012989151612,0,100,1.0,3,2.572109230184219e-06
4.31,0.0,77.50007747390087,0,100,1.0,3,1.5341366509567318e-06
4.315,0.0,77.50004568199337,0,100,1.0,3,9.045939281246446e-07
4.32,0.0,77.50002662868097,0,100,1.0,3,5.273006132767369e-07
4.325,0.0,77.50001534508321,0,100,1.0,3,3.0386303392063356e-07
4.33,0.0,77.50000874185959,0,100,1.0,3,1.7310613045965782e-07
4.335,0.0,77.50000492326701,0,100,1.0,3,9.749043591333553e-08
4.34,0.0,77.50000274105619,0,100,1.0,3,5.427834044930572e-08
4.345,0.0,77.50000150868118,0,100,1.0,3,2.9874874851182284e-08
4.35,0.001684486749771458,77.50000082090328,0,100,1.0,3,1.6255510521803824e-08
4.355,0.00456624331333666,77.50000044157197,0,100,1.0,3,8.743999407922481e-09
4.36,0.011079731271581421,77.50000023481508,0,100,1.0,3,4.6498034817427695e-09
4.365,0.024064571490409,77.50000012344272,0,100,1.0,3,2.4444102451741513e-09
4.37,0.046784906529573234,77.50000006415344,0,100,1.0,3,1.270365146410768e-09
4.375,0.08141644351188804,77.50000003296016,0,100,1.0,3,6.526764167628613e-10
4.38,0.12682276464025305,77.5000000167407,0,100,1.0,3,3.3149899986755834e-10
4.385,0.1768320708657512,77.50000000840569,0,100,1.0,3,1.664493493531199e-10
4.39,0.22070063230473494,77.50000000417242,0,100,1.0,3,8.262219071724812e-11
4.395,0.24656126505113576,77.50000000204747,0,100,1.0,3,4.0543990607066817e-11
4.4,0.24656126505724016,77.50000000099325,0,100,1.0,3,1.966838573196691e-11
4.405,0.220700632329898,77.50000000047635,0,100,1.0,3,9.432630694130123e-12
4.41,0.17683207093748562,77.50000000022584,0,100,1.0,3,4.472057487801787e-12
4.415,0.12682276483597799,77.50000000010584,0,100,1.0,3,2.095890018194545e-12
4.42,0.08141644409447898,77.50000000004904,0,100,1.0,3,9.711219727160816e-13
4.425,0.04678490952598309,77.50000000002247,0,100,1.0,3,4.448982436581063e-13
4.43,0.024064605020532023,77.50000000001017,0,100,1.0,3,2.0148459358583435e-13
4.435,0.011080171739334697,77.50000000000455,0,100,1.0,3,9.004898037355726e-14
4.44,0.004571212771509492,77.50000000000202,0,100,1.0,3,3.995923504076603e-14
4.445,0.0017299316936037438,77.50000000000088,0,100,1.0,3,1.7446989947376717e-14
4.45,0.0008899431850697582,77.50000000000038,0,100,1.0,3,7.597882719018894e-15
4.455,0.002128806368910263,77.50000000000016,0,100,1.0,3,3.0954337003410305e-15
4.46,0.009309664818487698,77.50000000000007,0,100,1.0,3,1.4070153183368321e-15
4.465,0.03503263543368747,77.50000000000003,0,100,1.0,3,5.628061273347328e-16
4.47,0.10606267793605692,77.50000000000001,0,100,1.0,3,2.814030636673664e-16
4.475,0.25734927343160535,77.5,0,100,1.0,3,0.0
4.48,0.5003202479539708,77.5,0,100,1.0,3,0.0
4.485,0.7793067891790435,77.5,0,100,1.0,3,0.0
4.49,0.9720477407234077,77.500002961856,1,100,1.0,3,5.865061381774638e-08
4.495,0.967267334488097,77.500006041423,0,100,1.0,3,1.1963213873878877e-07
4.5,0.7505869905515209,77.50001328138595,0,100,1.0,3,2.629977415165173e-07
4.505,0.4028369574773956,77.50003283321637,0,100,1.0,3,6.501627003199426e-07
4.51,0.04553881263121314,77.50009198824264,0,100,1.0,3,1.8215493592959877e-06
4.515,-0.189138810908105,77.50028074560149,0,100,1.0,3,5.559318841314602e-06
4.52,-0.22868072635956738,77.50088215537116,0,100,1.0,3,1.7468423191256096e-05
4.525,-0.14104670682394166,77.5027317136506,0,100,1.0,3,5.409333961592487e-05
4.53,-0.051158381651102834,77.50812515206187,0,100,1.0,3,0.00016089410023495125
4.535,-0.008206426846427752,77.52290585167412,0,100,1.0,3,0.0004535812212697967
4.54,0.005350271385530505,77.5607994860294,0,100,1.0,3,0.0012039502184038745
4.545,0.01084668799215426,77.65144697964095,0,100,1.0,3,0.0029989500919000286
4.55,0.016256859896386415,77.85343089561607,0,100,1.0,3,0.00699863159635785
4.555,0.02345021205790711,78.27206809920676,0,100,1.0,3,0.015288477212015105
4.56,0.0330621597308209,79.07802187804528,0,100,1.0,3,0.031247957981094594
4.565,0.04559141319943196,80.51693895137673,0,100,1.0,3,0.05974136537379663
4.57,0.06149084917446989,82.89454088046219,0,100,1.0,3,0.10682259169232054
4.575,0.08111733445924295,86.52074732919208,0,100,1.0,3,0.17862865998400151
4.58,0.1046628598272375,91.60628022891433,0,100,1.0,3,0.2793322817606798
4.585,0.1320831047748631,98.12800786254579,0,100,1.0,3,0.40847540321872844
4.59,0.16303381314489318,105.70840989696592,0,100,1.0,3,0.5585823741973449
4.595,0.19682662652900276,113.57344353324595,0,100,1.0,3,0.7143256145197218
4.6,0.23241585813229,120.64276888442222,0,100,1.0,3,0.8543122551370738
4.605,0.26842527782774417,125.75956336367835,0,100,1.0,3,0.9556349180926407
4.61,0.30321927900592993,128.0,0,100,1.0,3,1.0
4.615,0.3350163137995362,126.95061745029365,0,100,1.0,3,0.9792201475305673
4.62,0.3620352400956416,122.84001560912182,0,100,1.0,3,0.897822091269739
4.625,0.3826586036805073,116.46801010317881,0,100,1.0,3,0.7716437644193824
4.63,0.39559233134833227,108.96296573740314,0,100,1.0,3,0.6230290245030324
4.635,0.4,101.46881286087532,0,100,1.0,3,0.4746299576410954
4.64,0.39559233134833227,94.88053871179497,0,100,1.0,3,0.34416908340188057
4.645,0.3826586036805073,89.70779311233117,0,100,1.0,3,0.24173847747190444
4.65,0.3620352400956416,86.07956026661839,0,100,1.0,3,0.1698922825072948
4.655,0.3350163137995362,83.84687409322002,0,100,1.0,3,0.1256806751132678
4.66,0.3032192790059296,82.7187027867249,0,100,1.0,3,0.10334064924207731
4.665,0.26842527782774417,82.37771688222631,0,100,1.0,3,0.09658845311339226
4.67,0.23241585813229,82.55072048744152,0,100,1.0,3,0.10001426707804997
4.675,0.19682662652900276,83.03453037589074,0,100,1.0,3,0.1095946609087275
4.68,0.16303381314489318,83.69208055632127,0,100,1.0,3,0.12261545656081728
4.685,0.13208310477486307,84.43544696634281,0,100,1.0,3,0.1373355834919368
4.69,0.10466285982723562,85.20760297898806,0,100,1.0,3,0.15262580156412006
4.695,0.08111733445917907,85.96850260217812,0,100,1.0,3,0.1676931208352103
4.7,0.06149084917398798,86.6865931944108,0,100,1.0,3,0.18191273652298623
4.705,0.04559141333598128,87.33469336179016,0,100,1.0,3,0.19474640320376552
4.71,0.03306217087257399,87.88866412777621,0,100,1.0,3,0.20571612134210315
4.715,0.02345067901074276,88.32756689971691,0,100,1.0,3,0.21440726534092897
4.72,0.016268788896435526,88.63444229094094,0,100,1.0,3,0.22048400576120672
4.725,0.011039026374860051,88.7972016808272,0,100,1.0,3,0.22370696397677625
4.73,0.007326255555493689,88.80935150413694,0,100,1.0,3,0.22394755453736517
4.735,0.0047556414315231815,88.67040269484706,0,100,1.0,3,0.22119609296726842
4.74,0.0030193390635632803,88.38589749796584,0,100,1.0,3,0.21556232669239292
4.745,0.001874953127946523,87.96704111602165,0,100,1.0,3,0.20726814091131976
4.75,0.0011387927410965778,87.42996910265714,0,100,1.0,3,0.19663305153776514
4.755,0.0006765107634274089,86.79471636674512,0,100,1.0,3,0.18405378944049744
4.76,0.00039307957404427924,86.08397933237504,0,100,1.0,3,0.16997978875990172
4.765,0.00022338910511776318,85.32177758289465,0,100,1.0,3,0.15488668480979514
4.77,0.00012417073320013317,84.53212429988861,0,100,1.0,3,0.13924998613640807
4.775,6.750753468904987e-05,83.7378064113005,0,100,1.0,3,0.1235209190356534
4.78,3.5897234866245036e-05,82.95935736032456,0,100,1.0,3,0.1081060863430606
4.785,1.8670050400879738e-05,82.21428063285789,0,100,1.0,3,0.09335209173976025
4.79,9.497421874143672e-06,81.51655406697313,0,100,1.0,3,0.0795357240984778
4.795,4.725434140340885e-06,80.8764170164331,0,100,1.0,3,0.06685974289966524
4.8,2.299606063738814e-06,80.30041774319758,0,100,1.0,3,0.05545381669698188
4.805,1.0945633976635486e-06,79.7916792805792,0,100,1.0,3,0.04537978773424164
4.81,5.095703414287532e-07,79.35032975682887,0,100,1.0,3,0.03664019320453208
4.815,2.3202944964797243e-07,78.97403808767992,0,100,1.0,3,0.029188873023364655
4.82,1.0333746954038608e-07,78.65859741440458,0,100,1.0,4,0.022942523057516477
4.825,4.501406988770349e-08,78.39850537991533,0,100,1.0,4,0.01779218574089772
4.83,0.0,78.1875006071592,0,100,1.0,4,0.01361387340909295
4.835,0.0,78.01902678123402,0,100,1.0,4,0.010277758044237983
4.84,0.0,77.8866079019436,0,100,1.0,4,0.007655602018685262
4.845,0.0,77.78412926151917,0,100,1.0,4,0.0056263220102805754
4.85,0.0,77.70602763440992,0,100,1.0,4,0.004079755136830114
4.855,0.0,77.64740060525696,0,100,1.0,4,0.002918823866474497
4.86,0.0,77.604048862077,0,100,1.0,4,0.0020603735064751187
4.865,0.0,77.57246689949535,0,100,1.0,4,0.0014349881088188759
4.87,0.0,77.54979735814472,0,100,1.0,4,0.000986086299895357
4.875,0.0,77.53376270259416,0,100,1.0,4,0.0006685683682011887
4.88,0.0,77.52258563891289,0,100,1.0,4,0.000447240374512603
4.885,0.0,77.51490705436474,0,100,1.0,4,0.0002951891953414091
4.89,0.0,77.50970768257822,0,100,1.0,4,0.00019223133818265054
4.895,0.0,77.50623739972342,0,100,1.0,4,0.000123512865810248
4.9,0.0,77.50395417479393,0,100,1.0,4,7.830049096895945e-05
4.905,0.0,77.50247327511215,0,100,1.0,4,4.8975744795087046e-05
4.91,0.0,77.50152634696913,0,100,1.0,4,3.0224692458002417e-05
4.915,0.0,77.50092939083888,0,100,1.0,4,1.840377898766332e-05
4.92,0.0,77.50055835162344,0,100,1.0,4,1.1056467790881876e-05
4.925,0.0,77.50033096453323,0,100,1.0,4,6.553753133339972e-06
4.93,0.0,77.50019356169078,0,100,1.0,4,3.832904767894361e-06
4.935,0.0,77.50011169188872,0,100,1.0,4,2.2117205686966075e-06
4.94,0.0,77.50006358989972,0,100,1.0,4,1.2592059351395573e-06
4.945,0.0,77.5000357206146,0,100,1.0,4,7.07338903067007e-07
4.95,0.0,77.50001979766552,0,100,1.0,4,3.920329805119349e-07
4.955,0.0,77.50001082613204,0,100,1.0,4,2.1437885228950486e-07
4.96,0.0,77.50000584113084,0,100,1.0,4,1.156659572873173e-07
4.965,0.001684486749771458,77.50000310945893,0,100,1.0,4,6.157344416513495e-08
4.97,0.00456624331333666,77.50000163319106,0,100,1.0,4,3.234041705942254e-08
4.975,0.011079731271581421,77.50000084635671,0,100,1.0,4,1.6759538865618098e-08
4.98,0.024064571490409,77.5000004327471,0,100,1.0,4,8.569249512400364e-09
4.985,0.046784906529573234,77.50000021831278,0,100,1.0,4,4.323025299671295e-09
4.99,0.08141644351188804,77.5000001086647,0,100,1.0,4,2.151776103832757e-09
4.995,0.12682276464025305,77.50000005336567,0,100,1.0,4,1.0567458899134695e-09
5.0,0.1768320708657512,77.50000002585828,0,100,1.0,4,5.120452356950949e-10
5.005,0.22070063230473494,77.50000001236238,0,100,1.0,4,2.447995601608337e-10
5.01,0.24656126505113576,77.50000000583134,0,100,1.0,4,1.154720587575218e-10
5.015,0.24656126505724016,77.50000000271393,0,100,1.0,4,5.374123148693897e-11
5.02,0.220700632329898,77.50000000124622,0,100,1.0,4,2.4677641668309697e-11
5.025,0.17683207093748562,77.50000000056461,0,100,1.0,4,1.1180425122568135e-11
5.03,0.12682276483597799,77.50000000025238,0,100,1.0,4,4.997718410732428e-12
5.035,0.08141644409447898,77.50000000011131,0,100,1.0,4,2.204230197706481e-12
5.04,0.04678490952598309,77.50000000004844,0,100,1.0,4,9.59303044042052e-13
5.045,0.024064605020532023,77.5000000000208,0,100,1.0,4,4.1197408520902444e-13
5.05,0.011080171739334697,77.50000000000881,0,100,1.0,4,1.7446989947376718e-13
5.055,0.004571212771509492,77.50000000000368,0,100,1.0,4,7.28833934898479e-14
5.06,0.0017299316936037438,77.50000000000152,0,100,1.0,4,3.011012781240821e-14
5.065,0.0008899431850697582,77.50000000000061,0,100,1.0,4,1.2100331737696755e-14
5.07,0.002128806368910263,77.50000000000024,0,100,1.0,4,4.783852082345229e-15
5.075,0.009309664818487698,77.5000000000001,0,100,1.0,4,1.969821445671565e-15
5.08,0.03503263543368747,77.50000000000004,0,100,1.0,4,8.442091910020992e-16
5.085,0.10606267793605692,77.50000000000001,0,100,1.0,4,2.814030636673664e-16
5.09,0.25734927343160535,77.5,0,100,1.0,4,0.0
5.095,0.5003202479539708,77.5,0,100,1.0,4,0.0
5.1,0.7793067891790435,77.5,0,100,1.0,4,0.0
5.105,0.9720477407234077,77.5000029632167,1,100,1.0,4,5.867755844249559e-08
5.11,0.967267334488097,77.50000611949993,0,100,1.0,4,1.2117821641611342e-07
5.115,0.7505869905515209,77.5000136661605,0,100,1.0,4,2.706170395714874e-07
5.12,0.4028369574773956,77.50003448761683,0,100,1.0,4,6.829231055424244e-07
5.125,0.04553881263121314,77.50009893563154,0,100,1.0,4,1.9591214166635243e-06
5.13,-0.189138810908105,77.50030887479707,0,100,1.0,4,6.1163326152625205e-06
5.135,-0.22868072635956738,77.50098936987865,0,100,1.0,4,1.9591482745598493e-05
5.14,-0.14104670682394166,77.50311109919818,0,100,1.0,4,6.160592471641763e-05
5.145,-0.051158381651102834,77.50936430658398,0,100,1.0,4,0.00018543181354407307
5.15,-0.008206426846427752,77.52663503308537,0,100,1.0,4,0.0005274263977300939
5.155,0.005350271385530505,77.57113795423459,0,100,1.0,4,0.0014086723610809244
5.16,0.01084668799215426,77.67785621339104,0,100,1.0,4,0.003521905215664127
5.165,0.016256859896386415,77.9156022259755,0,100,1.0,4,0.008229747049019897
5.17,0.02345021205790711,78.4069380257099,0,100,1.0,4,0.017959168825938725
5.175,0.0330621597308209,79.34748987799968,0,100,1.0,4,0.036583957980191636
5.18,0.04559141319943196,81.01228362930992,0,100,1.0,4,0.06955017087742416
5.185,0.06149084917446989,83.73079902637203,0,100,1.0,4,0.12338215893805991
5.19,0.08111733445924295,87.81367872264438,0,100,1.0,4,0.20423126183454224
5.195,0.1046628598272375,93.4288216152286,0,100,1.0,4,0.3154222102025465
5.2,0.1320831047748631,100.45351412056698,0,100,1.0,4,0.4545250320904352
5.205,0.16303381314489318,108.36134960751014,0,100,1.0,4,0.6111158338120819
5.21,0.19682662652900276,116.21652194472324,0,100,1.0,4,0.7666638008856087
5.215,0.23241585813229,122.82360122088085,0,100,1.0,4,0.8974970538788286
5.22,0.26842527782774417,127.01713839847308,0,100,1.0,4,0.9805373940291698
5.225,0.30321927900592993,128.0,0,100,1.0,4,1.0
5.23,0.3350163137995362,125.59701682575721,0,100,1.0,4,0.9524161747674694
5.235,0.3620352400956416,120.3140247604608,0,100,1.0,4,0.8478024705041742
5.24,0.3826586036805073,113.17578272521496,0,100,1.0,4,0.7064511430735635
5.245,0.39559233134833227,105.41460450461524,0,100,1.0,4,0.5527644456359454
5.25,0.4,98.1397912084383,0,100,1.0,4,0.40870873680075837
5.255,0.39559233134833227,92.10783014594557,0,100,1.0,4,0.2892639632860509
5.26,0.3826586036805073,87.64951021194136,0,100,1.0,4,0.2009804002364626
5.265,0.3620352400956416,84.73520644729147,0,100,1.0,4,0.143271414797851
5.27,0.3350163137995362,83.11302488416099,0,100,1.0,4,0.11114900760714837
5.275,0.3032192790059296,82.45012180045974,0,100,1.0,4,0.09802221387048991
5.28,0.26842527782774417,82.43311100444015,0,100,1.0,4,0.09768536642455743
5.285,0.23241585813229,82.8162323398421,0,100,1.0,4,0.10527192752162579
5.29,0.19682662652900276,83.42866618321837,0,100,1.0,4,0.11739933036075977
5.295,0.16303381314489318,84.1600622480566,0,100,1.0,4,0.13188242075359613
5.3,0.13208310477486307,84.940236624999,0,100,1.0,4,0.14733141831681193
5.305,0.10466285982723562,85.72195777553705,0,100,1.0,4,0.1628110450601396
5.31,0.08111733445917907,86.4696633299647,0,100,1.0,4,0.1776170956428654
5.315,0.06149084917398798,87.15353818842898,0,100,1.0,4,0.19115917204809865
5.32,0.04559141333598128,87.74725089071974,0,100,1.0,4,0.2029158592221731
5.325,0.03306217087257399,88.22774168238095,0,100,1.0,4,0.21243052836397924
5.33,0.02345067901074276,88.57593914149084,0,100,1.0,4,0.21932552755427395
5.335,0.016268788896435526,88.77773137510404,0,100,1.0,4,0.2233214133683968
5.34,0.011039026374860051,88.82481855964929,0,100,1.0,4,0.22425383286434233
5.345,0.007326255555493689,88.71524935893723,0,100,1.0,4,0.22208414572152926
5.35,0.0047556414315231815,88.45354650959632,0,100,1.0,4,0.21690191108111528
5.355,0.0030193390635632803,88.05039484238684,0,100,1.0,4,0.20891870975023438
5.36,0.001874953127946523,87.52191701266186,0,100,1.0,4,0.1984538022309279
5.365,0.0011387927410965778,86.88860404516025,0,100,1.0,4,0.18591295138931188
5.37,0.0006765107634274089,86.17399918548756,0,100,1.0,4,0.17176236010866455
5.375,0.00039307957404427924,85.40325259759987,0,100,1.0,4,0.15650005143762127
5.38,0.00022338910511776318,84.60166988532686,0,100,1.0,4,0.14062712644211597
5.385,0.00012417073320013317,83.79336949573046,0,100,1.0,4,0.12462117813327643
5.39,6.750753468904987e-05,83.00014467233905,0,100,1.0,4,0.10891375588790192
5.395,3.5897234866245036e-05,82.2405979846216,0,100,1.0,4,0.09387322741824954
5.4,1.8670050400879738e-05,81.52958456421845,0,100,1.0,4,0.07979375374690006
5.405,9.497421874143672e-06,80.8779681711764,0,100,1.0,4,0.06689045883517634
5.41,4.725434140340885e-06,80.29266578507671,0,100,1.0,4,0.05530031257577638
5.415,2.299606063738814e-06,79.77693434234938,0,100,1.0,4,0.045087808759393624
5.42,1.0945633976635486e-06,79.33083911757771,0,100,1.0,4,0.03625423995203387
5.425,5.095703414287532e-07,78.95183743607637,0,100,1.0,4,0.028749256159928207
5.43,2.3202944964797243e-07,78.63541317800785,0,100,1.0,4,0.022483429267482213
5.435,1.0333746954038608e-07,78.3757053491493,0,100,1.0,4,0.017340699983154448
5.44,4.501406988770349e-08,78.16608584846017,0,100,1.0,4,0.013189818781389513
5.445,0.0,77.99965535153865,0,100,1.0,4,0.00989416537700296
5.45,0.0,77.86964004284735,0,100,1.0,4,0.007319604808858435
5.455,0.0,77.7696842680522,0,100,1.0,4,0.005340282535687178
5.46,0.0,77.69404405685896,0,100,1.0,4,0.0038424565714644857
5.465,0.0,77.63769342762592,0,100,1.0,4,0.0027266025272459243
5.47,0.0,77.59635942692422,0,100,1.0,4,0.0019081074638460122
5.475,0.0,77.56650332172448,0,100,1.0,4,0.0013168974598907444
5.48,0.0,77.54526479938636,0,100,1.0,4,0.0008963326611160258
5.485,0.0,77.53038407321809,0,100,1.0,4,0.0006016648161997493
5.49,0.0,77.52011404975813,0,100,1.0,4,0.0003982980150125725
5.495,0.0,77.51313170683527,0,100,1.0,4,0.0002600337987181626
5.5,0.0,77.50845494854985,0,100,1.0,4,0.0001674247237594887
5.505,0.0,77.5053686969771,0,100,1.0,4,0.00010631083122971762
5.51,0.0,77.50336197861758,0,100,1.0,4,6.6573834011411e-05
5.515,0.0,77.50207629536354,0,100,1.0,4,4.1114759673998586e-05
5.52,0.0,77.5012645949802,0,100,1.0,4,2.5041484756421046e-05
5.525,0.0,77.50075959466382,0,100,1.0,4,1.5041478491465937e-05
5.53,0.0,77.50044996681824,0,100,1.0,4,8.910234024507182e-06
5.535,0.0,77.50026287374051,0,100,1.0,4,5.205420604165783e-06
5.54,0.0,77.50015145445519,0,100,1.0,4,2.9990981226213685e-06
5.545,0.0,77.5000860567684,0,100,1.0,4,1.7040944236790586e-06
5.55,0.0,77.50004822321333,0,100,1.0,4,9.549151153769704e-07
5.555,0.0,77.50002664988816,0,100,1.0,4,5.277205575409182e-07
5.56,0.0,77.50001452455274,0,100,1.0,4,2.87614905726802e-07
5.565,0.0,77.50000780689389,0,100,1.0,4,1.545919582269454e-07
5.57,0.001684486749771458,77.5000041382995,0,100,1.0,4,8.194652479579589e-08
5.575,0.00456624331333666,77.5000021633844,0,100,1.0,4,4.2839294936507795e-08
5.58,0.011079731271581421,77.50000111535623,0,100,1.0,4,2.2086261919461736e-08
5.585,0.024064571490409,77.50000056710259,0,100,1.0,4,1.1229754235419834e-08
5.59,0.046784906529573234,77.5000002843661,0,100,1.0,4,5.631011784469881e-09
5.595,0.08141644351188804,77.50000014062486,0,100,1.0,4,2.784650749811473e-09
5.6,0.12682276464025305,77.5000000685827,0,100,1.0,4,1.3580731346976763e-09
5.605,0.1768320708657512,77.5000000329864,0,100,1.0,4,6.53196168221455e-10
5.61,0.22070063230473494,77.50000001564673,0,100,1.0,4,3.0983631062338077e-10
5.615,0.24656126505113576,77.50000000731949,0,100,1.0,4,1.4494030618170475e-10
5.62,0.24656126505724016,77.5000000033768,0,100,1.0,4,6.686727739170327e-11
5.625,0.220700632329898,77.50000000153638,0,100,1.0,4,3.042332942226998e-11
5.63,0.17683207093748562,77.50000000068938,0,100,1.0,4,1.3651144021567612e-11
5.635,0.12682276483597799,77.50000000030506,0,100,1.0,4,6.0408795677473545e-12
5.64,0.08141644409447898,77.50000000013313,0,100,1.0,4,2.6361839004358887e-12
5.645,0.04678490952598309,77.5000000000573,0,100,1.0,4,1.1346171527068214e-12
5.65,0.024064605020532023,77.50000000002431,0,100,1.0,4,4.81480641934864e-13
5.655,0.011080171739334697,77.50000000001017,0,100,1.0,4,2.0148459358583435e-13
5.66,0.004571212771509492,77.5000000000042,0,100,1.0,4,8.329530684554046e-14
5.665,0.0017299316936037438,77.5000000000017,0,100,1.0,4,3.376836764008397e-14
5.67,0.0008899431850697582,77.50000000000068,0,100,1.0,4,1.3507347056033587e-14
5.675,0.002128806368910263,77.50000000000027,0,100,1.0,4,5.346658209679962e-15
5.68,0.009309664818487698,77.5000000000001,0,100,1.0,4,1.969821445671565e-15
5.685,0.03503263543368747,77.50000000000004,0,100,1.0,4,8.442091910020992e-16
5.69,0.10606267793605692,77.50000000000001,0,100,1.0,4,2.814030636673664e-16
5.695,0.25734927343160535,77.5,0,100,1.0,4,0.0
5.7,0.5003202479539708,77.5,0,100,1.0,4,0.0
5.705,0.7793067891790435,77.5,0,100,1.0,4,0.0
5.71,0.9720477407234077,77.50000296249844,1,100,1.0,4,5.866333548744865e-08
5.715,0.967267334488097,77.50000623791465,0,100,1.0,4,1.2352306231771917e-07
5.72,0.7505869905515209,77.50001428061503,0,100,1.0,4,2.827844561111441e-07
5.725,0.4028369574773956,77.50003723221408,0,100,1.0,4,7.372715660071348e-07
5.73,0.04553881263121314,77.5001108437001,0,100,1.0,4,2.194924754443455e-06
5.735,-0.189138810908105,77.5003583964972,0,100,1.0,4,7.096960340696019e-06
5.74,-0.22868072635956738,77.501182171344,0,100,1.0,4,2.340933354452597e-05
5.745,-0.14104670682394166,77.50380467824786,0,100,1.0,4,7.534016332396512e-05
5.75,-0.051158381651102834,77.51165782593294,0,100,1.0,4,0.00023084803827609813
5.755,-0.008206426846427752,77.5335966224769,0,100,1.0,4,0.0006652796530080524
5.76,0.005350271385530505,77.59053331272185,0,100,1.0,4,0.0017927388657791189
5.765,0.01084668799215426,77.72746904695667,0,100,1.0,4,0.00450433756349843
5.77,0.016256859896386415,78.03213843050357,0,100,1.0,4,0.01053739466343693
5.775,0.02345021205790711,78.65824858789371,0,100,1.0,4,0.022935615601855627
5.78,0.0330621597308209,79.8447054890364,0,100,1.0,4,0.04642981166408713
5.785,0.04559141319943196,81.91361678160214,0,100,1.0,4,0.08739835211093355
5.79,0.06149084917446989,85.22452481350312,0,100,1.0,4,0.15296088739610145
5.795,0.08111733445924295,90.06880030306164,0,100,1.0,4,0.2488871347140918
5.8,0.1046628598272375,96.51294300837715,0,100,1.0,4,0.37649392095796336
5.805,0.1320831047748631,104.23854785834601,0,100,1.0,4,0.5294761952147725
5.81,0.16303381314489318,112.45984400219734,0,100,1.0,4,0.6922741386573731
5.815,0.19682662652900276,119.9980053094794,0,100,1.0,4,0.8415446595936514
5.82,0.23241585813229,125.53757473601254,0,100,1.0,4,0.9512391036834167
5.825,0.26842527782774417,128.0,0,100,1.0,4,1.0
5.83,0.30321927900592993,126.89180836635488,0,100,1.0,4,0.9780556112149481
5.835,0.3350163137995362,122.4744115695857,0,100,1.0,4,0.8905824073185287
5.84,0.3620352400956416,115.6764248123543,0,100,1.0,4,0.7559688081654317
5.845,0.3826586036805073,107.78956631187174,0,100,1.0,4,0.5997933923142919
5.85,0.39559233134833227,100.08516728784107,0,100,1.0,4,0.4472310354027935
5.855,0.4,93.50661991231735,0,100,1.0,4,0.3169627705409376
5.86,0.39559233134833227,88.53287890241118,0,100,1.0,4,0.21847284955269672
5.865,0.3826586036805073,85.21553134284277,0,100,1.0,4,0.15278279886817359
5.87,0.3620352400956416,83.32232502267858,0,100,1.0,4,0.1152935648055165
5.875,0.3350163137995362,82.50166604103804,0,100,1.0,4,0.09904289190174327
5.88,0.3032192790059296,82.40734321991523,0,100,1.0,4,0.09717511326564819
5.885,0.26842527782774417,82.76277175392498,0,100,1.0,4,0.1042133020579204
5.89,0.23241585813229,83.37479852576797,0,100,1.0,4,0.1163326440746133
5.895,0.19682662652900276,84.11928489680142,0,100,1.0,4,0.1310749484515132
5.9,0.16303381314489318,84.91824422362451,0,100,1.0,4,0.14689592522028738
5.905,0.13208310477486307,85.71996481329595,0,100,1.0,4,0.16277158046130585
5.91,0.10466285982723562,86.48593626724252,0,100,1.0,4,0.1779393320246044
5.915,0.08111733445917907,87.18404127410177,0,100,1.0,4,0.19176319354656976
5.92,0.06149084917398798,87.78600746918313,0,100,1.0,4,0.20368331622144817
5.925,0.04559141333598128,88.26721388243585,0,100,1.0,4,0.2132121560878387
5.93,0.03306217087257399,88.60753321720543,0,100,1.0,4,0.2199511528159491
5.935,0.02345067901074276,88.79243107822423,0,100,1.0,4,0.22361249659849952
5.94,0.016268788896435526,88.81389846101516,0,100,1.0,4,0.22403759328742884
5.945,0.011039026374860051,88.67099812814219,0,100,1.0,4,0.22120788372558786
5.95,0.007326255555493689,88.36992451308627,0,100,1.0,4,0.21524602996210446
5.955,0.0047556414315231815,87.92355634630057,0,100,1.0,4,0.20640705636238757
5.96,0.0030193390635632803,87.35054249369495,0,100,1.0,4,0.1950602473998999
5.965,0.001874953127946523,86.67401021165833,0,100,1.0,4,0.18166356854768964
5.97,0.0011387927410965778,85.92002012496754,0,100,1.0,4,0.16673307178153537
5.975,0.0006765107634274089,85.11591134258094,0,100,1.0,4,0.15081012559566226
5.98,0.00039307957404427924,84.28868206654177,0,100,1.0,4,0.13442934785231223
5.985,0.00022338910511776318,83.46353675053035,0,100,1.0,4,0.11808983664416539
5.99,0.00012417073320013317,82.66270333596,0,100,1.0,4,0.10223174922693076
5.995,6.750753468904987e-05,81.90458788413636,0,100,1.0,4,0.08721956206210617
6.0,3.5897234866245036e-05,81.20329432496659,0,100,1.0,4,0.07333256089042757
6.005,1.8670050400879738e-05,80.5684992351286,0,100,1.0,4,0.06076236109165541
6.01,9.497421874143672e-06,80.00563985868109,0,100,1.0,4,0.04961663086497214
6.015,4.725434140340885e-06,79.51635092389155,0,100,1.0,4,0.03992774106715943
6.02,2.299606063738814e-06,79.0990735069262,0,100,1.0,4,0.03166482191933075
6.025,1.0945633976635486e-06,78.74975699852942,0,100,1.0,5,0.024747663337216248
6.03,5.095703414287532e-07,78.46258162434901,0,100,1.0,5,0.0190610222643369
6.035,2.3202944964797243e-07,78.23064160050076,0,100,1.0,5,0.014468150504965555
6.04,1.0333746954038608e-07,78.0465451756297,0,100,1.0,5,0.01082267674514263
6.045,4.501406988770349e-08,77.9029049232077,0,100,1.0,5,0.007978315311043564
6.05,0.0,77.792707549016,0,100,1.0,5,0.005796189089425757
6.055,0.0,77.70956565642611,0,100,1.0,5,0.004149814978734806
6.06,0.0,77.64786355410972,0,100,1.0,5,0.0029279911704894867
6.065,0.0,77.60281512541162,0,100,1.0,5,0.0020359430774578983
6.07,0.0,77.57045433470391,0,100,1.0,5,0.0013951353406714971
6.075,0.0,77.54757877616558,0,100,1.0,5,0.0009421539834768215
6.08,0.0,77.5316645744132,0,100,1.0,5,0.0006270212755088895
6.085,0.0,77.5207677230544,0,100,1.0,5,0.00041124204068128704
6.09,0.0,77.51342328935382,0,100,1.0,5,0.00026580770997671236
6.095,0.0,77.50855034936433,0,100,1.0,5,0.00016931384879856045
6.1,0.0,77.50536739563128,0,100,1.0,5,0.00010628506200558573
6.105,0.0,77.50332045956841,0,100,1.0,5,6.575167462205902e-05
6.11,0.0,77.50202435942687,0,100,1.0,5,4.008632528453826e-05
6.115,0.0,77.50121627531419,0,100,1.0,5,2.4084659686974587e-05
6.12,0.0,77.50072016332395,0,100,1.0,5,1.4260659880149135e-05
6.125,0.0,77.50042022796278,0,100,1.0,5,8.321345797576844e-06
6.13,0.0,77.50024165385936,0,100,1.0,5,4.785224937864264e-06
6.135,0.0,77.50013694852625,0,100,1.0,5,2.7118520048958036e-06
6.14,0.0,77.50007648492242,0,100,1.0,5,1.5145529191456019e-06
6.145,0.0,77.50004209680522,0,100,1.0,5,8.336001033035471e-07
6.15,0.0,77.50002283375228,0,100,1.0,5,4.5215351054922745e-07
6.155,0.0,77.50001220563202,0,100,1.0,5,2.416956835243735e-07
6.16,0.001684486749771458,77.5000064298094,0,100,1.0,5,1.2732295847782363e-07
6.165,0.00456624331333666,77.50000333803408,0,100,1.0,5,6.609968468723364e-08
6.17,0.011079731271581421,77.50000170780497,0,100,1.0,5,3.381792018696822e-08
6.175,0.024064571490409,77.50000086107428,0,100,1.0,5,1.7050975918326652e-08
6.18,0.046784906529573234,77.50000042785618,0,100,1.0,5,8.472399582784095e-09
6.185,0.08141644351188804,77.50000020951245,0,100,1.0,5,4.148761387240132e-09
6.19,0.12682276464025305,77.50000010110594,0,100,1.0,5,2.0020978142680844e-09
6.195,0.1768320708657512,77.50000004808376,0,100,1.0,5,9.52153717806519e-10
6.2,0.22070063230473494,77.5000000225359,0,100,1.0,5,4.46255450634174e-10
6.205,0.24656126505113576,77.50000001040894,0,100,1.0,5,2.0611761362605386e-10
6.21,0.24656126505724016,77.50000000473797,0,100,1.0,5,9.38211884420183e-11
6.215,0.220700632329898,77.50000000212536,0,100,1.0,5,4.2086360799027655e-11
6.22,0.17683207093748562,77.50000000093956,0,100,1.0,5,1.8605244957431598e-11
6.225,0.12682276483597799,77.50000000040933,0,100,1.0,5,8.105533845874822e-12
6.23,0.08141644409447898,77.50000000017575,0,100,1.0,5,3.4801116883743206e-12
6.235,0.04678490952598309,77.50000000007437,0,100,1.0,5,1.4725822321713284e-12
6.24,0.024064605020532023,77.50000000003101,0,100,1.0,5,6.140214849221935e-13
6.245,0.011080171739334697,77.50000000001275,0,100,1.0,5,2.5241854810962767e-13
6.25,0.004571212771509492,77.50000000000516,0,100,1.0,5,1.0214931211125401e-13
6.255,0.0017299316936037438,77.50000000000206,0,100,1.0,5,4.080344423176813e-14
6.26,0.0008899431850697582,77.50000000000081,0,100,1.0,5,1.6039974629039884e-14
6.265,0.002128806368910263,77.50000000000031,0,100,1.0,5,6.190867400682061e-15
6.27,0.009309664818487698,77.50000000000011,0,100,1.0,5,2.2512245093389313e-15
6.275,0.03503263543368747,77.50000000000004,0,100,1.0,5,8.442091910020992e-16
6.28,0.10606267793605692,77.50000000000001,0,100,1.0,5,2.814030636673664e-16
6.285,0.25734927343160535,77.5,0,100,1.0,5,0.0
6.29,0.5003202479539708,77.5,0,100,1.0,5,0.0
6.295,0.7793067891790435,77.5,0,100,1.0,5,0.0
6.3,0.9720477407234077,77.50000295863553,1,100,1.0,5,5.8586842255458086e-08
6.305,0.967267334488097,77.50000589453069,0,100,1.0,5,1.1672337995159888e-07
6.31,0.7505869905515209,77.50001258016395,0,100,1.0,5,2.491121575071747e-07
6.315,0.4028369574773956,77.50002991887783,0,100,1.0,5,5.924530263079156e-07
6.32,0.04553881263121314,77.50008014574549,0,100,1.0,5,1.5870444650601604e-06
6.325,-0.189138810908105,77.50023413902163,0,100,1.0,5,4.636416269875662e-06
6.33,-0.22868072635956738,77.50070857773588,0,100,1.0,5,1.4031242294617421e-05
6.335,-0.14104670682394166,77.50212862812675,0,100,1.0,5,4.2151052014949724e-05
6.34,-0.051158381651102834,77.50618263287807,0,100,1.0,5,0.0001224283738230776
6.345,-0.008206426846427752,77.51711785807466,0,100,1.0,5,0.0003389674866268436
6.35,0.005350271385530505,77.5448517347519,0,100,1.0,5,0.0008881531634039905
6.355,0.01084668799215426,77.61080692902989,0,100,1.0,5,0.0021941966144532954
6.36,0.016256859896386415,77.75762785478521,0,100,1.0,5,0.005101541678915102
6.365,0.02345021205790711,78.06315289436618,0,100,1.0,5,0.0111515424626967
6.37,0.0330621597308209,78.65673830666799,0,100,1.0,5,0.022905709042930485
6.375,0.04559141319943196,79.73198134472196,0,100,1.0,5,0.04419765039053384
6.38,0.06149084917446989,81.54501227311613,0,100,1.0,5,0.08009925293299265
6.385,0.08111733445924295,84.38464209821635,0,100,1.0,5,0.1363295464993336
6.39,0.1046628598272375,88.50403246526267,0,100,1.0,5,0.2179016329754984
6.395,0.1320831047748631,94.01656472183686,0,100,1.0,5,0.3270606875611259
6.4,0.16303381314489318,100.77994101177725,0,100,1.0,5,0.46098893092628224
6.405,0.19682662652900276,108.31363751867889,0,100,1.0,5,0.6101710399738394
6.41,0.23241585813229,115.8015723972912,0,100,1.0,5,0.758446978164182
6.415,0.26842527782774417,122.21250830998903,0,100,1.0,5,0.8853962041581986
6.42,0.30321927900592993,126.52603826050846,0,100,1.0,5,0.9708126388219497
6.425,0.3350163137995362,128.0,0,100,1.0,5,1.0
6.43,0.3620352400956416,126.38406092367941,0,100,1.0,5,0.9680012064094934
6.435,0.3826586036805073,121.99556843228333,0,100,1.0,5,0.8811003649957097
6.44,0.39559233134833227,115.6266452242233,0,100,1.0,5,0.7549830737469959
6.445,0.4,108.32036261160054,0,100,1.0,5,0.6103042101307038
6.45,0.39559233134833227,101.10323179979561,0,100,1.0,5,0.4673907287088239
6.455,0.3826586036805073,94.76777473766506,0,100,1.0,5,0.34193613341911017
6.46,0.3620352400956416,89.76439299076465,0,100,1.0,5,0.24285926714385442
6.465,0.3350163137995362,86.20926627172703,0,100,1.0,5,0.17246071825202042
6.47,0.3032192790059296,83.97243167283402,0,100,1.0,5,0.12816696381849543
6.475,0.26842527782774417,82.7938264487047,0,100,1.0,5,0.10482824650900409
6.48,0.23241585813229,82.38399391622505,0,100,1.0,5,0.09671275081633765
6.485,0.19682662652900276,82.48788123894413,0,100,1.0,5,0.09876992552364607
6.49,0.16303381314489318,82.91091906123887,0,100,1.0,5,0.10714691210374003
6.495,0.13208310477486307,83.51852879694448,0,100,1.0,5,0.11917878805830653
6.5,0.10466285982723562,84.22272355972284,0,100,1.0,5,0.13312323880639282
6.505,0.08111733445917907,84.96617934772094,0,100,1.0,5,0.14784513559843443
6.51,0.06149084917398798,85.70924651097013,0,100,1.0,5,0.16255933685089372
6.515,0.04559141333598128,86.42147052118344,0,100,1.0,5,0.17666278259769183
6.52,0.03306217087257399,87.0770715748847,0,100,1.0,5,0.18964498168088512
6.525,0.02345067901074276,87.65314650117571,0,100,1.0,5,0.2010524059638755
6.53,0.016268788896435526,88.12943966856027,0,100,1.0,5,0.21048395383287657
6.535,0.011039026374860051,88.4888612734019,0,100,1.0,5,0.21760121333469098
6.54,0.007326255555493689,88.71824516685794,0,100,1.0,5,0.2221434686506523
6.545,0.0047556414315231815,88.80905557187164,0,100,1.0,5,0.2239416944925077
6.55,0.0030193390635632803,88.75788298162304,0,100,1.0,5,0.22292837587372358
6.555,0.001874953127946523,88.56664693700436,0,100,1.0,5,0.2191415235050369
6.56,0.0011387927410965778,88.24247373671773,0,100,1.0,5,0.21272225221223223
6.565,0.0006765107634274089,87.79725494129089,0,100,1.0,5,0.2039060384414037
6.57,0.00039307957404427924,87.24692328910454,0,100,1.0,5,0.19300838196246622
6.575,0.00022338910511776318,86.6105070604557,0,100,1.0,5,0.18040608040506342
6.58,0.00012417073320013317,85.90904096345788,0,100,1.0,5,0.16651566264273035
6.585,6.750753468904987e-05,85.1644201722591,0,100,1.0,5,0.1517706964803782
6.59,3.5897234866245036e-05,84.39828384642226,0,100,1.0,5,0.13659968012717347
6.595,1.8670050400879738e-05,83.63100589666291,0,100,1.0,5,0.12140605735966165
6.6,9.497421874143672e-06,82.8808554478679,0,100,1.0,5,0.10655159302708715
6.605,4.725434140340885e-06,82.16336957323678,0,100,1.0,5,0.09234395194528273
6.61,2.299606063738814e-06,81.49095896483546,0,100,1.0,5,0.07902889039278133
6.615,1.0945633976635486e-06,80.87274578396709,0,100,1.0,5,0.0667870452270711
6.62,5.095703414287532e-07,80.31461418365399,0,100,1.0,5,0.05573493432978192
6.625,2.3202944964797243e-07,79.81943952585937,0,100,1.0,5,0.0459294955615716
6.63,1.0333746954038608e-07,79.38745303383412,0,100,1.0,5,0.037375307600675645
6.635,4.501406988770349e-08,79.01669470924061,0,100,1.0,5,0.030033558598823968
6.64,0.0,78.70350835049594,0,100,1.0,5,0.023831848524672027
6.645,0.0,78.44303749859628,0,100,1.0,5,0.01867400987319372
6.65,0.0,78.22968889112258,0,100,1.0,5,0.014449284972724314
6.655,0.0,78.05753922233096,0,100,1.0,5,0.011040380640217014
6.66,0.0,77.92067047657592,0,100,1.0,5,0.008330108447047947
6.665,0.0,77.81342783305934,0,100,1.0,5,0.0062064917437492295
6.67,0.0,77.73060143463216,0,100,1.0,5,0.004566365042221053
6.675,0.0,77.66753878732776,0,100,1.0,5,0.0033175997490644984
6.68,0.0,77.62019811267334,0,100,1.0,5,0.0023801606469967484
6.685,0.0,77.58515474396656,0,100,1.0,5,0.0016862325537931723
6.69,0.0,77.55957293052953,0,100,1.0,5,0.001179661990683693
6.695,0.0,77.54115456349685,0,100,1.0,5,0.0008149418514226972
6.7,0.0,77.52807475357761,0,100,1.0,5,0.0005559357144081764
6.705,0.0,77.51891223363421,0,100,1.0,5,0.00037449967592496843
6.71,0.0,77.51258052061632,0,100,1.0,5,0.00024911922012524703
6.715,0.0,77.50826386704453,0,100,1.0,5,0.00016364093157491906
6.72,0.0,77.50536039689462,0,100,1.0,5,0.00010614647316071911
6.725,0.0,77.50343351928187,0,100,1.0,5,6.799048082911267e-05
6.73,0.0,77.50217175561201,0,100,1.0,5,4.30050616239779e-05
6.735,0.0,77.50135647355782,0,100,1.0,5,2.6860862531088745e-05
6.74,0.0,77.50083664386412,0,100,1.0,5,1.656720523007859e-05
6.745,0.0,77.50050956412707,0,100,1.0,5,1.0090378753888541e-05
6.75,0.0,77.50030646859729,0,100,1.0,5,6.068685094798711e-06
6.755,0.0,77.5001820128428,0,100,1.0,5,3.604214708898911e-06
6.76,0.0,77.50010674486768,0,100,1.0,5,2.1137597560248262e-06
6.765,0.0,77.50006181884571,0,100,1.0,5,1.2241355585785532e-06
6.77,0.0,77.50003535279038,0,100,1.0,5,7.000552549884965e-07
6.775,0.0,77.50001996436139,0,100,1.0,5,3.9533388881990153e-07
6.78,0.0,77.50001113309885,0,100,1.0,5,2.204574030039823e-07
6.785,0.0,77.50000613063735,0,100,1.0,5,1.2139875931358919e-07
6.79,0.0,77.5000033336815,0,100,1.0,5,6.601349514987828e-08
6.795,0.001684486749771458,77.50000179007613,0,100,1.0,5,3.544705200871285e-08
6.8,0.00456624331333666,77.50000094917833,0,100,1.0,5,1.8795610471762742e-08
6.805,0.011079731271581421,77.50000049699618,0,100,1.0,5,9.841508501429615e-09
6.81,0.024064571490409,77.50000025697283,0,100,1.0,5,5.088570796852755e-09
6.815,0.046784906529573234,77.50000013120497,0,100,1.0,5,2.59811822661054e-09
6.82,0.08141644351188804,77.50000006615188,0,100,1.0,5,1.3099382964481824e-09
6.825,0.12682276464025305,77.50000003293542,0,100,1.0,5,6.521864940290164e-10
6.83,0.1768320708657512,77.50000001619246,0,100,1.0,5,3.20642751074335e-10
6.835,0.22070063230473494,77.50000000786125,0,100,1.0,5,1.5566823517789575e-10
6.84,0.24656126505113576,77.50000000376876,0,100,1.0,5,7.462893669377658e-11
6.845,0.24656126505724016,77.50000000178417,0,100,1.0,5,3.533015464343785e-11
6.85,0.220700632329898,77.50000000083406,0,100,1.0,5,1.6516108612765068e-11
6.855,0.17683207093748562,77.50000000038503,0,100,1.0,5,7.624334607003625e-12
6.86,0.12682276483597799,77.50000000017552,0,100,1.0,5,3.4756092393556427e-12
6.865,0.08141644409447898,77.50000000007901,0,100,1.0,5,1.5646010339905572e-12
6.87,0.04678490952598309,77.50000000003512,0,100,1.0,5,6.953469703220624e-13
6.875,0.024064605020532023,77.50000000001542,0,100,1.0,5,3.0532232407909255e-13
6.88,0.011080171739334697,77.50000000000668,0,100,1.0,5,1.322594399236622e-13
6.885,0.004571212771509492,77.50000000000286,0,100,1.0,5,5.656201579714065e-14
6.89,0.0017299316936037438,77.50000000000121,0,100,1.0,5,2.3919260411726144e-14
6.895,0.0008899431850697582,77.5000000000005,0,100,1.0,5,9.849107228357824e-15
6.9,0.002128806368910263,77.50000000000021,0,100,1.0,5,4.221045955010496e-15
6.905,0.009309664818487698,77.50000000000009,0,100,1.0,5,1.6884183820041984e-15
6.91,0.03503263543368747,77.50000000000003,0,100,1.0,5,5.628061273347328e-16
6.915,0.10606267793605692,77.50000000000001,0,100,1.0,5,2.814030636673664e-16
6.92,0.25734927343160535,77.5,0,100,1.0,5,0.0
6.925,0.5003202479539708,77.5,0,100,1.0,5,0.0
6.93,0.7793067891790435,77.5,0,100,1.0,5,0.0
6.935,0.9720477407234077,77.5000029768749,1,100,1.0,5,5.8948017741016935e-08
6.94,0.967267334488097,77.50000639791868,0,100,1.0,5,1.2669145904861705e-07
6.945,0.7505869905515209,77.50001503914727,0,100,1.0,5,2.978048964657976e-07
6.95,0.4028369574773956,77.5000405977313,0,100,1.0,5,8.039154712749602e-07
6.955,0.04553881263121314,77.50012568133535,0,100,1.0,5,2.488739313818796e-06
6.96,-0.189138810908105,77.50042139469598,0,100,1.0,5,8.344449425278683e-06
6.965,-0.22868072635956738,77.50143220973679,0,100,1.0,5,2.8360588847345023e-05
6.97,-0.14104670682394166,77.5047186192955,0,100,1.0,5,9.343800585153338e-05
6.975,-0.051158381651102834,77.51471703980556,0,100,1.0,5,0.0002914265308031825
6.98,-0.008206426846427752,77.54295938552251,0,100,1.0,5,0.0008506809014357997
6.985,0.005350271385530505,77.6167303530177,0,100,1.0,5,0.002311492138964373
6.99,0.01084668799215426,77.79449447378158,0,100,1.0,5,0.005831573738249171
6.995,0.016256859896386415,78.1889498680611,0,100,1.0,5,0.013642571644774282
7.0,0.02345021205790711,78.9936054602403,0,100,1.0,5,0.029576345747332738
7.005,0.0330621597308209,80.4996856165681,0,100,1.0,5,0.059399715179566354
7.01,0.04559141319943196,83.07993103850617,0,100,1.0,5,0.11049368393081534
7.015,0.06149084917446989,87.11287313371587,0,100,1.0,5,0.19035392343991814
7.02,0.08111733445924295,92.83655963825184,0,100,1.0,5,0.3036942502624127
7.025,0.1046628598272375,100.1592760486476,0,100,1.0,5,0.44869853561678413
7.03,0.1320831047748631,108.50359714416015,0,100,1.0,5,0.6139326167160426
7.035,0.16303381314489318,116.78654847688122,0,100,1.0,5,0.777951454987747
7.04,0.19682662652900276,123.60821001847575,0,100,1.0,5,0.913033861751995
7.045,0.23241585813229,127.62847233815549,0,100,1.0,5,0.9926430165971384
7.05,0.26842527782774417,128.0,0,100,1.0,5,1.0
7.055,0.30321927900592993,124.66760400991004,0,100,1.0,5,0.934011960592278
7.06,0.3350163137995362,118.39038146372059,0,100,1.0,5,0.8097105240340711
7.065,0.3620352400956416,110.47562935409675,0,100,1.0,5,0.6529827594870644
7.07,0.3826586036805073,102.35298204453142,0,100,1.0,5,0.4921382583075528
7.075,0.39559233134833227,95.17874322086946,0,100,1.0,5,0.35007412318553394
7.08,0.4,89.61569511522995,0,100,1.0,5,0.23991475475702878
7.085,0.39559233134833227,85.82517009686714,0,100,1.0,5,0.16485485340330971
7.09,0.3826586036805073,83.6090618349903,0,100,1.0,5,0.12097152148495643
7.095,0.3620352400956416,82.59933730320935,0,100,1.0,5,0.1009769763011753
7.1,0.3350163137995362,82.41268319594003,0,100,1.0,5,0.09728085536514917
7.105,0.3032192790059296,82.73585255051967,0,100,1.0,5,0.10368024852514192
7.11,0.26842527782774417,83.34863649182353,0,100,1.0,5,0.11581458399650547
7.115,0.23241585813229,84.11012510513392,0,100,1.0,5,0.1308935664382954
7.12,0.19682662652900276,84.93289016428321,0,100,1.0,5,0.14718594384719225
7.125,0.16303381314489318,85.75985479737454,0,100,1.0,5,0.1635614811361296
7.13,0.13208310477486307,86.54900938892803,0,100,1.0,5,0.17918830473124805
7.135,0.10466285982723562,87.2655137876512,0,100,1.0,5,0.19337651064655845
7.14,0.08111733445917907,87.87880541393756,0,100,1.0,5,0.2055208992858922
7.145,0.06149084917398798,88.36243221298648,0,100,1.0,5,0.21509766758389062
7.15,0.04559141333598128,88.69504827525046,0,100,1.0,5,0.2216841242623853
7.155,0.03306217087257399,88.86166481029888,0,100,1.0,5,0.22498346159007676
7.16,0.02345067901074276,88.85467214111144,0,100,1.0,5,0.22484499289329576
7.165,0.016268788896435526,88.67438787319062,0,100,1.0,5,0.22127500738991338
7.17,0.011039026374860051,88.32902560186928,0,100,1.0,5,0.21443615053206486
7.175,0.007326255555493689,87.834072636083,0,100,1.0,5,0.20463510170461374
7.18,0.0047556414315231815,87.21113807884366,0,100,1.0,5,0.19229976393749823
7.185,0.0030193390635632803,86.48638950473932,0,100,1.0,5,0.177948307024541
7.19,0.001874953127946523,85.68873539894074,0,100,1.0,5,0.16215317621664824
7.195,0.0011387927410965778,84.84792859716677,0,100,1.0,5,0.14550353657755982
7.2,0.0006765107634274089,83.99276234682259,0,100,1.0,5,0.12856955142222945
7.205,0.00039307957404427924,83.14950732513329,0,100,1.0,5,0.11187143218085714
7.21,0.00022338910511776318,82.34069963296807,0,100,1.0,5,0.0958554382765954
7.215,0.00012417073320013317,81.58434279250736,0,100,1.0,5,0.08087807509915558
7.22,6.750753468904987e-05,80.89353805575186,0,100,1.0,5,0.06719877338122497
7.225,3.5897234866245036e-05,80.27651326693037,0,100,1.0,5,0.05498046073129437
7.23,1.8670050400879738e-05,79.73698603104926,0,100,1.0,6,0.04429675309008427
7.235,9.497421874143672e-06,79.27477491320202,0,100,1.0,6,0.03514405768716877
7.24,4.725434140340885e-06,78.88656355336967,0,100,1.0,6,0.027456704027122157
7.245,2.299606063738814e-06,78.56672572691414,0,100,1.0,6,0.02112328172107214
7.25,1.0945633976635486e-06,78.30813189638289,0,100,1.0,6,0.01600261180956216
7.255,5.095703414287532e-07,78.10287630828009,0,100,1.0,6,0.011938144718417582
7.26,2.3202944964797243e-07,77.94288469900617,0,100,1.0,6,0.008769994039726167
7.265,1.0333746954038608e-07,77.82038311916784,0,100,1.0,6,0.0063442201815414505
7.27,4.501406988770349e-08,77.72822597134211,0,100,1.0,6,0.004519326165190349
7.275,0.0,77.66009471412842,0,100,1.0,6,0.0031701923589786034
7.28,0.0,77.61058733996865,0,100,1.0,6,0.0021898483162108096
7.285,0.0,77.57522294299544,0,100,1.0,6,0.0014895632276324417
7.29,0.0,77.55038621312866,0,100,1.0,6,0.0009977467946269503
7.295,0.0,77.53323453510313,0,100,1.0,6,0.0006581096060026449
7.3,0.0,77.52158658720883,0,100,1.0,6,0.0004274571724520814
7.305,0.0,77.51380685790998,0,100,1.0,6,0.0002734031269303704
7.31,0.0,77.5086960537223,0,100,1.0,6,0.0001721990836099709
7.315,0.0,77.50539344261945,0,100,1.0,6,0.00010680084394950859
7.32,0.0,77.50329402128571,0,100,1.0,6,6.522814427151136e-05
7.325,0.0,77.50198108554771,0,100,1.0,6,3.922941678637255e-05
7.33,0.0,77.50117326616962,0,100,1.0,6,2.323299345773806e-05
7.335,0.0,77.50068423668777,0,100,1.0,6,1.3549241342076076e-05
7.34,0.0,77.5003929458036,0,100,1.0,6,7.781105021721677e-06
7.345,0.0,77.50022221606024,0,100,1.0,6,4.400318024499038e-06
7.35,0.0,77.5001237470122,0,100,1.0,6,2.4504358850775826e-06
7.355,0.0,77.5000678594742,0,100,1.0,6,1.3437519643534554e-06
7.36,0.0,77.50003664398938,0,100,1.0,6,7.256235519862727e-07
7.365,0.0,77.50001948549742,0,100,1.0,6,3.858514340249307e-07
7.37,0.001684486749771458,77.50001020320788,0,100,1.0,6,2.0204372036811162e-07
7.375,0.00456624331333666,77.50000526112309,0,100,1.0,6,1.0418065530171985e-07
7.38,0.011079731271581421,77.50000267138621,0,100,1.0,6,5.289873688480379e-08
7.385,0.024064571490409,77.50000133570758,0,100,1.0,6,2.6449655051422243e-08
7.39,0.046784906529573234,77.50000065766176,0,100,1.0,6,1.3023005107747354e-08
7.395,0.08141644351188804,77.5000003188675,0,100,1.0,6,6.3142080519058494e-09
7.4,0.12682276464025305,77.500000152242,0,100,1.0,6,3.0146929705074623e-09
7.405,0.1768320708657512,77.50000007157726,0,100,1.0,6,1.4173715138859185e-09
7.41,0.22070063230473494,77.50000003313846,0,100,1.0,6,6.562071810026957e-10
7.415,0.24656126505113576,77.50000001510796,0,100,1.0,6,2.991674762705599e-10
7.42,0.24656126505724016,77.5000000067826,0,100,1.0,6,1.3430889843635165e-10
7.425,0.220700632329898,77.50000000299849,0,100,1.0,6,5.937604643381431e-11
7.43,0.17683207093748562,77.50000000130535,0,100,1.0,6,2.584855981622961e-11
7.435,0.12682276483597799,77.50000000055958,0,100,1.0,6,1.1080808438029887e-11
7.44,0.08141644409447898,77.50000000023623,0,100,1.0,6,4.677763127342632e-12
7.445,0.04678490952598309,77.5000000000982,0,100,1.0,6,1.944495169941502e-12
7.45,0.024064605020532023,77.50000000004019,0,100,1.0,6,7.958078640513122e-13
7.455,0.011080171739334697,77.5000000000162,0,100,1.0,6,3.207994925807977e-13
7.46,0.004571212771509492,77.50000000000644,0,100,1.0,6,1.27475587841317e-13
7.465,0.0017299316936037438,77.50000000000252,0,100,1.0,6,4.9808342269123855e-14
7.47,0.0008899431850697582,77.50000000000097,0,100,1.0,6,1.9135408329380917e-14
7.475,0.002128806368910263,77.50000000000037,0,100,1.0,6,7.316479655351527e-15
7.48,0.009309664818487698,77.50000000000014,0,100,1.0,6,2.8140306366736642e-15
7.485,0.03503263543368747,77.50000000000004,0,100,1.0,6,8.442091910020992e-16
7.49,0.10606267793605692,77.50000000000001,0,100,1.0,6,2.814030636673664e-16
7.495,0.25734927343160535,77.5,0,100,1.0,6,0.0
7.5,0.5003202479539708,77.5,0,100,1.0,6,0.0
7.505,0.7793067891790435,77.5,0,100,1.0,6,0.0
7.51,0.9720477407234077,77.50000297456887,1,100,1.0,6,5.890235390306951e-08
7.515,0.967267334488097,77.5000062222234,0,100,1.0,6,1.2321234465270038e-07
7.52,0.7505869905515209,77.50001412492644,0,100,1.0,6,2.797015136113962e-07
7.525,0.4028369574773956,77.50003641983405,0,100,1.0,6,7.211848326008267e-07
7.53,0.04553881263121314,77.50010706994215,0,100,1.0,6,2.1201968741812684e-06
7.535,-0.189138810908105,77.50034212581059,0,100,1.0,6,6.774768526539258e-06
7.54,-0.22868072635956738,77.5011174452075,0,100,1.0,6,2.212762787125219e-05
7.545,-0.14104670682394166,77.50356855475515,0,100,1.0,6,7.066445059699122e-05
7.55,-0.051158381651102834,77.51086963859841,0,100,1.0,6,0.00021524036828529712
7.555,-0.008206426846427752,77.53118939740251,0,100,1.0,6,0.0006176118297527509
7.56,0.005350271385530505,77.5838025515997,0,100,1.0,6,0.001659456467320855
7.565,0.01084668799215426,77.71022945889035,0,100,1.0,6,0.004162959581987194
7.57,0.016256859896386415,77.99167912939262,0,100,1.0,6,0.009736220384012324
7.575,0.02345021205790711,78.5712635147241,0,100,1.0,6,0.021213138905427614
7.58,0.0330621597308209,79.67352667251653,0,100,1.0,6,0.043040132129040204
7.585,0.04559141319943196,81.60576661164305,0,100,1.0,6,0.0813023091414465
7.59,0.06149084917446989,84.71992636449431,0,100,1.0,6,0.1429688389008775
7.595,0.08111733445924295,89.3182428616724,0,100,1.0,6,0.23402461112222578
7.6,0.1046628598272375,95.50702080839233,0,100,1.0,6,0.3565746694731154
7.605,0.1320831047748631,103.03863252038366,0,100,1.0,6,0.5057154954531418
7.61,0.16303381314489318,111.21541053963608,0,100,1.0,6,0.6676318918739819
7.615,0.19682662652900276,118.93384620768896,0,100,1.0,6,0.8204722021324546
7.62,0.23241585813229,124.90436853284245,0,100,1.0,6,0.9387003669869793
7.625,0.26842527782774417,128.0,0,100,1.0,6,1.0
7.63,0.30321927900592993,127.60820170828875,0,100,1.0,6,0.9922416179859158
7.635,0.3350163137995362,123.83638395652297,0,100,1.0,6,0.9175521575549102
7.64,0.3620352400956416,117.47746650268306,0,100,1.0,6,0.7916330000531299
7.645,0.3826586036805073,109.75136675254107,0,100,1.0,6,0.6386409257928926
7.65,0.39559233134833227,101.93854206075709,0,100,1.0,6,0.48393152595558586
7.655,0.4,95.05631336589965,0,100,1.0,6,0.34764976962177535
7.66,0.39559233134833227,89.68561676959516,0,100,1.0,6,0.24129934197218134
7.665,0.3826586036805073,85.97066202095813,0,100,1.0,6,0.1677358816031313
7.67,0.3620352400956416,83.73963639863871,0,100,1.0,6,0.1235571564086873
7.675,0.3350163137995362,82.66506980421391,0,100,1.0,6,0.10227860998443394
7.68,0.3032192790059296,82.39769679500384,0,100,1.0,6,0.09698409495057106
7.685,0.26842527782774417,82.64426327774376,0,100,1.0,6,0.1018665995592824
7.69,0.23241585813229,83.1925217979524,0,100,1.0,6,0.1127232039198494
7.695,0.19682662652900276,83.90296821666257,0,100,1.0,6,0.12679144983490243
7.7,0.16303381314489318,84.68768921939152,0,100,1.0,6,0.1423304795919112
7.705,0.13208310477486307,85.48964936969762,0,100,1.0,6,0.15821087860787358
7.71,0.10466285982723562,86.2679527426403,0,100,1.0,6,0.1736228265869367
7.715,0.08111733445917907,86.9895179409416,0,100,1.0,6,0.18791124635527912
7.72,0.06149084917398798,87.62548740634166,0,100,1.0,6,0.20050470111567648
7.725,0.04559141333598128,88.15044219056064,0,100,1.0,6,0.21089984535763642
7.73,0.03306217087257399,88.54297359153537,0,100,1.0,6,0.21867274438683904
7.735,0.02345067901074276,88.78671463080131,0,100,1.0,6,0.22349929961982798
7.74,0.016268788896435526,88.87133001885871,0,100,1.0,6,0.2251748518585884
7.745,0.011039026374860051,88.79319881643394,0,100,1.0,6,0.2236276993353256
7.75,0.007326255555493689,88.55565877970061,0,100,1.0,6,0.2189239362316952
7.755,0.0047556414315231815,88.168766505288,0,100,1.0,6,0.21126270307501
7.76,0.0030193390635632803,87.64859039083257,0,100,1.0,6,0.20096218595708054
7.765,0.001874953127946523,87.01610373171393,0,100,1.0,6,0.18843769765770152
7.77,0.0011387927410965778,86.29578368219154,0,100,1.0,6,0.1741739343008226
7.775,0.0006765107634274089,85.51404620349248,0,100,1.0,6,0.15869398422757394
7.78,0.00039307957404427924,84.69765577968232,0,100,1.0,6,0.1425278372214321
7.785,0.00022338910511776318,83.87224160225274,0,100,1.0,6,0.12618300202480678
7.79,0.00012417073320013317,83.06103109428663,0,100,1.0,6,0.1101194276096363
7.795,6.750753468904987e-05,82.28388071988795,0,100,1.0,6,0.09473031128490983
7.8,3.5897234866245036e-05,81.5566476806962,0,100,1.0,6,0.08032965704348914
7.805,1.8670050400879738e-05,80.89090926252491,0,100,1.0,6,0.06714671806980028
7.81,9.497421874143672e-06,80.29400369189199,0,100,1.0,6,0.05532680578003935
7.815,4.725434140340885e-06,79.76934075119777,0,100,1.0,6,0.0449374406177777
7.82,2.299606063738814e-06,79.316914026084,0,100,1.0,6,0.03597849556601993
7.825,1.0945633976635486e-06,78.93393997639421,0,100,1.0,6,0.02839485101770721
7.83,5.095703414287532e-07,78.615551171725,0,100,1.0,6,0.02209012221237628
7.835,2.3202944964797243e-07,78.35548017624241,0,100,1.0,6,0.016940201509750674
7.84,1.0333746954038608e-07,78.14668432330618,0,100,1.0,6,0.012805630164478717
7.845,4.501406988770349e-08,77.98187749628777,0,100,1.0,6,0.009542128639361692
7.85,0.0,77.85395079052064,0,100,1.0,6,0.007008926544963209
7.855,0.0,77.7562778414269,0,100,1.0,6,0.005074808741126601
7.86,0.0,77.68291156154915,0,100,1.0,6,0.003622011119785098
7.865,0.0,77.62868655855223,0,100,1.0,6,0.002548248684202616
7.87,0.0,77.58924566817144,0,100,1.0,6,0.001767240953889971
7.875,0.0,77.56101028213665,0,100,1.0,6,0.0012081243987455367
7.88,0.0,77.5411131592637,0,100,1.0,6,0.0008141219656178606
7.885,0.0,77.52730993064118,0,100,1.0,6,0.0005407907057659567
7.89,0.0,77.51788225456453,0,100,1.0,6,0.0003541040507826946
7.895,0.0,77.51154212778609,0,100,1.0,6,0.00022855698586309104
7.9,0.0,77.50734364057384,0,100,1.0,6,0.00014541862522448112
7.905,0.0,77.5046057342584,0,100,1.0,6,9.120265858227597e-05
7.91,0.0,77.50284739861534,0,100,1.0,6,5.638413099691746e-05
7.915,0.0,77.5017352401662,0,100,1.0,6,3.436119140986301e-05
7.92,0.0,77.50104239625774,0,100,1.0,6,2.0641510054353e-05
7.925,0.0,77.50061725984372,0,100,1.0,6,1.2222967202410697e-05
7.93,0.0,77.50036030072403,0,100,1.0,6,7.134667802491473e-06
7.935,0.0,77.50020731187256,0,100,1.0,6,4.1051855952004966e-06
7.94,0.0,77.50011758316428,0,100,1.0,6,2.3283794907438456e-06
7.945,0.0,77.50006573974899,0,100,1.0,6,1.3017772077280752e-06
7.95,0.0,77.50003623037833,0,100,1.0,6,7.174332342113456e-07
7.955,0.0,77.50001968247125,0,100,1.0,6,3.8975190589121443e-07
7.96,0.0,77.5000105401869,0,100,1.0,6,2.0871657240361558e-07
7.965,0.001684486749771458,77.50000556389502,0,100,1.0,6,1.1017613892723638e-07
7.97,0.00456624331333666,77.50000289515268,0,100,1.0,6,5.732975595681565e-08
7.975,0.011079731271581421,77.50000148499826,0,100,1.0,6,2.9405906233667265e-08
7.98,0.024064571490409,77.50000075083126,0,100,1.0,6,1.486794578322768e-08
7.985,0.046784906529573234,77.50000037421457,0,100,1.0,6,7.410189408180333e-09
7.99,0.08141644351188804,77.50000018384885,0,100,1.0,6,3.6405713735172804e-09
7.995,0.12682276464025305,77.50000008903548,0,100,1.0,6,1.7630788358411057e-09
8.0,0.1768320708657512,77.50000004250376,0,100,1.0,6,8.416585536330182e-10
8.005,0.22070063230473494,77.50000002000107,0,100,1.0,6,3.9606074195863487e-10
8.01,0.24656126505113576,77.50000000927771,0,100,1.0,6,1.837170855489405e-10
8.015,0.24656126505724016,77.5000000042422,0,100,1.0,6,8.400387975985489e-11
8.02,0.220700632329898,77.50000000191207,0,100,1.0,6,3.786278221644415e-11
8.025,0.17683207093748562,77.50000000084952,0,100,1.0,6,1.6822275146035165e-11
8.03,0.12682276483597799,77.50000000037205,0,100,1.0,6,7.36741360987532e-12
8.035,0.08141644409447898,77.50000000016063,0,100,1.0,6,3.1806988286322427e-12
8.04,0.04678490952598309,77.50000000006835,0,100,1.0,6,1.3535487362400324e-12
8.045,0.024064605020532023,77.50000000002868,0,100,1.0,6,5.678713824807455e-13
8.05,0.011080171739334697,77.50000000001185,0,100,1.0,6,2.346901550985836e-13
8.055,0.004571212771509492,77.50000000000483,0,100,1.0,6,9.567704164690458e-14
8.06,0.0017299316936037438,77.50000000000195,0,100,1.0,6,3.85522197224292e-14
8.065,0.0008899431850697582,77.50000000000077,0,100,1.0,6,1.5195765438037787e-14
8.07,0.002128806368910263,77.5000000000003,0,100,1.0,6,5.909464337014694e-15
8.075,0.009309664818487698,77.50000000000011,0,100,1.0,6,2.2512245093389313e-15
8.08,0.03503263543368747,77.50000000000004,0,100,1.0,6,8.442091910020992e-16
8.085,0.10606267793605692,77.50000000000001,0,100,1.0,6,2.814030636673664e-16
8.09,0.25734927343160535,77.5,0,100,1.0,6,0.0
8.095,0.5003202479539708,77.5,0,100,1.0,6,0.0
8.1,0.7793067891790435,77.5,0,100,1.0,6,0.0
8.105,0.9720477407234077,77.5000029761183,1,100,1.0,6,5.8933035560504224e-08
8.11,0.967267334488097,77.50000618532628,0,100,1.0,6,1.2248170861258217e-07
8.115,0.7505869905515209,77.50001392552794,0,100,1.0,6,2.7575302847298647e-07
8.12,0.4028369574773956,77.50003551779191,0,100,1.0,6,7.033226121719882e-07
8.125,0.04553881263121314,77.50010313559092,0,100,1.0,6,2.0422889290915523e-06
8.13,-0.189138810908105,77.50032572609189,0,100,1.0,6,6.450021621528529e-06
8.135,-0.22868072635956738,77.50105352781613,0,100,1.0,6,2.0861936952983477e-05
8.14,-0.14104670682394166,77.50333849843346,0,100,1.0,6,6.610887987058545e-05
8.145,-0.051158381651102834,77.51010867794061,0,100,1.0,6,0.00020017184040806803
8.15,-0.008206426846427752,77.52887923627338,0,100,1.0,6,0.0005718660648194646
8.155,0.005350271385530505,77.57736547743413,0,100,1.0,6,0.0015319896521609532
8.16,0.01084668799215426,77.6937614840257,0,100,1.0,6,0.003836861069815838
8.165,0.016256859896386415,77.95299178483792,0,100,1.0,6,0.008970134353226137
8.17,0.02345021205790711,78.48782060961162,0,100,1.0,6,0.019560804150725097
8.175,0.0330621597308209,79.50840637712494,0,100,1.0,6,0.03977042330940479
8.18,0.04559141319943196,81.30639038119868,0,100,1.0,6,0.07537406695442934
8.185,0.06149084917446989,84.22371682098306,0,100,1.0,6,0.13314290734619916
8.19,0.08111733445924295,88.56905596488694,0,100,1.0,6,0.2191892270274642
8.195,0.1046628598272375,94.48254071967199,0,100,1.0,6,0.3362879350430097
8.2,0.1320831047748631,101.78187771882364,0,100,1.0,6,0.4808292617588839
8.205,0.16303381314489318,109.85607098931862,0,100,1.0,6,0.6407142770162104
8.21,0.19682662652900276,117.68289868067583,0,100,1.0,6,0.7957009639737789
8.215,0.23241585813229,124.01296766753546,0,100,1.0,6,0.9210488647036725
8.22,0.26842527782774417,127.69015041412591,0,100,1.0,6,0.9938643646361566
8.225,0.30321927900592993,128.0,0,100,1.0,6,1.0
8.23,0.3350163137995362,124.90331438199323,0,100,1.0,6,0.9386794927127372
8.235,0.3620352400956416,119.0509908262225,0,100,1.0,6,0.8227918975489604
8.24,0.3826586036805073,111.57334395352093,0,100,1.0,6,0.6747196822479392
8.245,0.39559233134833227,103.73799888891169,0,100,1.0,6,0.5195643344338948
8.25,0.4,96.61848240541384,0,100,1.0,6,0.3785838100081949
8.255,0.39559233134833227,90.88948241854119,0,100,1.0,6,0.265138265713687
8.26,0.3826586036805073,86.7893676493135,0,100,1.0,6,0.18394787424383177
8.265,0.3620352400956416,84.21448228450262,0,100,1.0,6,0.13296004523767568
8.27,0.3350163137995362,82.8706742557033,0,100,1.0,6,0.10634998526145162
8.275,0.3032192790059296,82.41285373443978,0,100,1.0,6,0.09728423236514412
8.28,0.26842527782774417,82.53508919471457,0,100,1.0,6,0.09970473652900144
8.285,0.23241585813229,83.00723630449004,0,100,1.0,6,0.10905418424732743
8.29,0.19682662652900276,83.67399525905368,0,100,1.0,6,0.12225733186244916
8.295,0.16303381314489318,84.43655035035052,0,100,1.0,6,0.13735743268020822
8.3,0.13208310477486307,85.23167363197578,0,100,1.0,6,0.15310244815793625
8.305,0.10466285982723562,86.01556443973125,0,100,1.0,6,0.1686250384105198
8.31,0.08111733445917907,86.75400535564901,0,100,1.0,6,0.18324763080493095
8.315,0.06149084917398798,87.41763420030695,0,100,1.0,6,0.19638879604568216
8.32,0.04559141333598128,87.98046505761806,0,100,1.0,6,0.20753396153699133
8.325,0.03306217087257399,88.42010861624007,0,100,1.0,6,0.2162397745790113
8.33,0.02345067901074276,88.71867720825321,0,100,1.0,6,0.22215202392580616
8.335,0.016268788896435526,88.86378878992376,0,100,1.0,6,0.2250255205925497
8.34,0.011039026374860051,88.84935272165478,0,100,1.0,6,0.22473965785455013
8.345,0.007326255555493689,88.67597412457343,0,100,1.0,6,0.22130641830838474
8.35,0.0047556414315231815,88.3509063891692,0,100,1.0,6,0.21486943344889498
8.355,0.0030193390635632803,87.88754641372572,0,100,1.0,6,0.20569398839060823
8.36,0.001874953127946523,87.30451845386142,0,100,1.0,6,0.19414888027448354
8.365,0.0011387927410965778,86.62443306399382,0,100,1.0,6,0.18068184285136277
8.37,0.0006765107634274089,85.87243609243906,0,100,1.0,6,0.16579081371166454
8.375,0.00039307957404427924,85.07467708397961,0,100,1.0,6,0.1499936056233586
8.38,0.00022338910511776318,84.25682600304509,0,100,1.0,6,0.13379853471376418
8.385,0.00012417073320013317,83.4427529734118,0,100,1.0,6,0.11767827670122376
8.39,6.750753468904987e-05,82.65346049137668,0,100,1.0,6,0.10204872260151836
8.395,3.5897234866245036e-05,81.90632528007868,0,100,1.0,6,0.087253965942152
8.4,1.8670050400879738e-05,81.21467213191562,0,100,1.0,6,0.07355786399832911
8.405,9.497421874143672e-06,80.58766909939999,0,100,1.0,6,0.06114196236435621
8.41,4.725434140340885e-06,80.03050585017243,0,100,1.0,6,0.05010902673608776
8.415,2.299606063738814e-06,79.54479733357823,0,100,1.0,6,0.04049103630847982
8.42,1.0945633976635486e-06,79.12914419384192,0,100,1.0,6,0.03226028106617671
8.425,5.095703414287532e-07,78.77977938473101,0,100,1.0,6,0.025342166034277518
8.43,2.3202944964797243e-07,78.49123590647207,0,100,1.0,6,0.019628433791526147
8.435,1.0333746954038608e-07,78.25698150946495,0,100,1.0,7,0.014989732860692077
8.44,4.501406988770349e-08,78.06998030229119,0,100,1.0,7,0.01128673865923139
8.445,0.0,77.9231562441036,0,100,1.0,7,0.008379331566407817
8.45,0.0,77.80974762879951,0,100,1.0,7,0.006133616411871556
8.455,0.0,77.72355354312545,0,100,1.0,7,0.004426802834167279
8.46,0.0,77.65908215107021,0,100,1.0,7,0.0031501416053506637
8.465,0.0,77.61161631556492,0,100,1.0,7,0.002210224070592399
8.47,0.0,77.5772147447986,0,100,1.0,7,0.0015290048474969466
8.475,0.0,77.55266706642777,0,100,1.0,7,0.001042912206490556
8.48,0.0,77.53541965668042,0,100,1.0,7,0.0007013793402062909
8.485,0.0,77.52348636988228,0,100,1.0,7,0.0004650766313322339
8.49,0.0,77.51535513982303,0,100,1.0,7,0.00030406217471344875
8.495,0.0,77.50989824011825,0,100,1.0,7,0.0001960047548167684
8.5,0.0,77.50629112804937,0,100,1.0,7,0.00012457679305681935
8.505,0.0,77.50394244274653,0,100,1.0,7,7.80681731987105e-05
8.51,0.0,77.50243595126653,0,100,1.0,7,4.8236658743251e-05
8.515,0.0,77.50148401443865,0,100,1.0,7,2.9386424527632303e-05
8.52,0.0,77.50089140278692,0,100,1.0,7,1.7651540335041004e-05
8.525,0.0,77.50052792980212,0,100,1.0,7,1.045405548748337e-05
8.53,0.0,77.50030827953894,0,100,1.0,7,6.104545325579148e-06
8.535,0.0,77.50017749231459,0,100,1.0,7,3.5146992988441947e-06
8.54,0.0,77.5001007582777,0,100,1.0,7,1.995213419730693e-06
8.545,0.0,77.50005639599301,0,100,1.0,7,1.1167523368975266e-06
8.55,0.0,77.50003112304574,0,100,1.0,7,6.162979355277718e-07
8.555,0.0,77.5000169348855,0,100,1.0,7,3.35344267206424e-07
8.56,0.0,77.50000908549865,0,100,1.0,7,1.7991086429217397e-07
8.565,0.001684486749771458,77.50000480597605,0,100,1.0,7,9.516784252179542e-08
8.57,0.00456624331333666,77.50000250657536,0,100,1.0,7,4.963515556762041e-08
8.575,0.011079731271581421,77.50000128898024,0,100,1.0,7,2.5524361256042774e-08
8.58,0.024064571490409,77.5000006535489,0,100,1.0,7,1.2941562277269936e-08
8.585,0.046784906529573234,77.5000003267204,0,100,1.0,7,6.469710822082309e-09
8.59,0.08141644351188804,77.50000016104258,0,100,1.0,7,3.1889619481937712e-09
8.595,0.12682276464025305,77.50000007826571,0,100,1.0,7,1.5498161170254738e-09
8.6,0.1768320708657512,77.50000003750323,0,100,1.0,7,7.426381621866816e-10
