Time,ECG,Pressure,R_Peaks,mean_hr,hrv_scale,Phase_Bin,Normalized_Pressure
0.0,0.001684486749771458,77.5,0,90,3.0,0,0.0
0.005,0.004172395771277602,77.5,0,90,3.0,0,0.0
0.01,0.009438687428818865,77.5,0,90,3.0,0,0.0
0.015,0.019500507867137046,77.5,0,90,3.0,0,0.0
0.02,0.03679496976339974,77.5,0,90,3.0,0,0.0
0.025,0.06340728953298436,77.5,0,90,3.0,0,0.0
0.03,0.09979255396093453,77.5,0,90,3.0,0,0.0
0.035,0.14343835518453557,77.5,0,90,3.0,0,0.0
0.04,0.18829581417209276,77.5,0,90,3.0,0,0.0
0.045,0.2257481735193119,77.5,0,90,3.0,0,0.0
0.05,0.24718154073554727,77.5,0,90,3.0,0,0.0
0.055,0.24718154074102772,77.5,0,90,3.0,0,0.0
0.06,0.22574817354072055,77.5,0,90,3.0,0,0.0
0.065,0.18829581422840957,77.5,0,90,3.0,0,0.0
0.07,0.14343835532456656,77.5,0,90,3.0,0,0.0
0.075,0.09979255431561854,77.5,0,90,3.0,0,0.0
0.08,0.06340729067170194,77.5,0,90,3.0,0,0.0
0.085,0.03679497683410042,77.5,0,90,3.0,0,0.0
0.09,0.019500578284482293,77.5,0,90,3.0,0,0.0
0.095,0.009439396781978427,77.5,0,90,3.0,0,0.0
0.1,0.004178588733610924,77.5,0,90,3.0,0,0.0
0.105,0.0017299316936037381,77.5,0,90,3.0,0,0.0
0.11,0.0008997325756988589,77.5,0,90,3.0,0,0.0
0.115,0.001634769674224814,77.5,0,90,3.0,0,0.0
0.12,0.00614904736476635,77.5,0,90,3.0,0,0.0
0.125,0.02168080359963608,77.5,0,90,3.0,0,0.0
0.13,0.06433400338904088,77.5,0,90,3.0,0,0.0
0.135,0.1593410769217493,77.5,0,90,3.0,0,0.0
0.14,0.3291989194808569,77.5,0,90,3.0,0,0.0
0.145,0.5672906802982638,77.5,0,90,3.0,0,0.0
0.15,0.815339152120446,77.5,0,90,3.0,0,0.0
0.155,0.9768711246313155,77.5,0,90,3.0,0,0.0
0.16,0.9726380909165361,77.5,0,90,3.0,0,0.0
0.165,0.7921091683291741,77.5,0,90,3.0,0,0.0
0.17,0.49139090102639077,77.5,0,90,3.0,0,0.0
0.175,0.15739335672107918,77.5,0,90,3.0,0,0.0
0.18,-0.11102342218909485,77.5,0,90,3.0,0,0.0
0.185,-0.2314207883647528,77.5,0,90,3.0,0,0.0
0.19,-0.2029124434754801,77.5,0,90,3.0,0,0.0
0.195,-0.11151350554305876,77.5,0,90,3.0,0,0.0
0.2,-0.039430666652076896,77.5,0,90,3.0,0,0.0
0.205,-0.006087703519843621,77.5,0,90,3.0,0,0.0
0.21,0.005350271385530551,77.5,0,90,3.0,0,0.0
0.215,0.010381647827441833,77.5,0,90,3.0,0,0.0
0.22,0.015115203303506243,77.5,0,90,3.0,0,0.0
0.225,0.021170964062928475,77.5,0,90,3.0,0,0.0
0.23,0.029082821134029553,77.5,0,90,3.0,0,0.0
0.235,0.03923107061708144,77.5,0,90,3.0,0,0.0
0.24,0.051969043308817596,77.5,0,90,3.0,0,0.0
0.245,0.06760532616283861,77.5,0,90,3.0,0,0.0
0.25,0.08636519236693461,77.5,0,90,3.0,0,0.0
0.255,0.10834733138818661,77.5,0,90,3.0,0,0.0
0.26,0.1334809643017884,77.5,0,90,3.0,0,0.0
0.265,0.16148868344343945,77.5,0,90,3.0,0,0.0
0.27,0.191860907532018,77.5,0,90,3.0,0,0.0
0.275,0.22384764873847726,77.5,0,90,3.0,0,0.0
0.28,0.25647215537198226,77.5,0,90,3.0,0,0.0
0.285,0.2885689161419028,77.5,0,90,3.0,0,0.0
0.29,0.31884566517832524,77.5,0,90,3.0,0,0.0
0.295,0.3459657668955683,77.5,0,90,3.0,0,0.0
0.3,0.3686441789190902,77.5,0,90,3.0,0,0.0
0.305,0.3857476379544367,77.5,0,90,3.0,0,0.0
0.31,0.3963882865005728,77.5,0,90,3.0,0,0.0
0.315,0.4,77.5,0,90,3.0,0,0.0
0.32,0.39638828650057273,77.5,0,90,3.0,0,0.0
0.325,0.38574763795443656,77.5,0,90,3.0,0,0.0
0.33,0.36864417891908974,77.5,0,90,3.0,0,0.0
0.335,0.345965766895568,77.5,0,90,3.0,0,0.0
0.34,0.3188456651783249,77.5,0,90,3.0,0,0.0
0.345,0.28856891614190205,77.5,0,90,3.0,0,0.0
0.35,0.2564721553719815,77.5,0,90,3.0,0,0.0
0.355,0.22384764873847685,77.5,0,90,3.0,0,0.0
0.36,0.19186090753201765,77.5,0,90,3.0,0,0.0
0.365,0.16148868344343878,77.5,0,90,3.0,0,0.0
0.37,0.1334809643017881,77.5,0,90,3.0,0,0.0
0.375,0.10834733138818531,77.5,0,90,3.0,0,0.0
0.38,0.08636519236690572,77.5,0,90,3.0,0,0.0
0.385,0.06760532616242629,77.5,0,90,3.0,0,0.0
0.39,0.05196904332202373,77.5,0,90,3.0,0,0.0
0.395,0.03923107185803287,77.5,0,90,3.0,0,0.0
0.4,0.02908287038705761,77.5,0,90,3.0,0,0.0
0.405,0.02117220077308346,77.5,0,90,3.0,0,0.0
0.41,0.0151361834125735,77.5,0,90,3.0,0,0.0
0.415,0.010626454858290009,77.5,0,90,3.0,0,0.0
0.42,0.007326255555493652,77.5,0,90,3.0,0,0.0
0.425,0.004960179211183015,77.5,0,90,3.0,0,0.0
0.43,0.0032978759379303545,77.5,0,90,3.0,0,0.0
0.435,0.002153242296767213,77.5,0,90,3.0,0,0.0
0.44,0.001380616732225004,77.5,0,90,3.0,0,0.0
0.445,0.0008693106590991584,77.5,0,90,3.0,0,0.0
0.45,0.000537524815942247,77.5,0,90,3.0,0,0.0
0.455,0.0003263951340288585,77.5,0,90,3.0,0,0.0
0.46,0.00019463030985187395,77.5,0,90,3.0,0,0.0
0.465,0.00011397219555062695,77.5,0,90,3.0,0,0.0
0.47,6.55403863487943e-05,77.5,0,90,3.0,0,0.0
0.475,3.701184389455385e-05,77.5,0,90,3.0,0,0.0
0.48,2.0525516217290957e-05,77.5,0,90,3.0,0,0.0
0.485,1.1178128483661116e-05,77.5,0,90,3.0,0,0.0
0.49,5.978135409912517e-06,77.5,0,90,3.0,0,0.0
0.495,3.1396702713238487e-06,77.5,0,90,3.0,0,0.0
0.5,1.6192875458531019e-06,77.5,0,90,3.0,0,0.0
0.505,8.201353897972012e-07,77.5,0,90,3.0,0,0.0
0.51,4.0791415086824765e-07,77.5,0,90,3.0,0,0.0
0.515,1.9923866938774793e-07,77.5,0,90,3.0,0,0.0
0.52,9.556527981051257e-08,77.5,0,90,3.0,0,0.0
0.525,4.501406988770349e-08,77.5,0,90,3.0,0,0.0
0.53,0.0,77.5,0,90,3.0,0,0.0
0.535,0.0,77.5,0,90,3.0,0,0.0
0.54,0.0,77.5,0,90,3.0,0,0.0
0.545,0.0,77.5,0,90,3.0,0,0.0
0.55,0.0,77.5,0,90,3.0,0,0.0
0.555,0.0,77.5,0,90,3.0,0,0.0
0.56,0.0,77.5,0,90,3.0,0,0.0
0.565,0.0,77.5,0,90,3.0,0,0.0
0.57,0.0,77.5,0,90,3.0,0,0.0
0.575,0.0,77.5,0,90,3.0,0,0.0
0.58,0.0,77.5,0,90,3.0,0,0.0
0.585,0.0,77.5,0,90,3.0,0,0.0
0.59,0.0,77.5,0,90,3.0,0,0.0
0.595,0.0,77.5,0,90,3.0,0,0.0
0.6,0.0,77.5,0,90,3.0,0,0.0
0.605,0.0,77.5,0,90,3.0,0,0.0
0.61,0.0,77.5,0,90,3.0,0,0.0
0.615,0.0,77.5,0,90,3.0,0,0.0
0.62,0.0,77.5,0,90,3.0,0,0.0
0.625,0.0,77.5,0,90,3.0,0,0.0
0.63,0.0,77.5,0,90,3.0,0,0.0
0.635,0.0,77.5,0,90,3.0,0,0.0
0.64,0.0,77.5,0,90,3.0,0,0.0
0.645,0.0,77.5,0,90,3.0,0,0.0
0.65,0.0,77.5,0,90,3.0,0,0.0
0.655,0.001684486749771458,77.5,0,90,3.0,0,0.0
0.66,0.004172395771277602,77.5,0,90,3.0,0,0.0
0.665,0.009438687428818865,77.5,0,90,3.0,0,0.0
0.67,0.019500507867137046,77.5,0,90,3.0,0,0.0
0.675,0.03679496976339974,77.5,0,90,3.0,0,0.0
0.68,0.06340728953298436,77.5,0,90,3.0,0,0.0
0.685,0.09979255396093453,77.5,0,90,3.0,0,0.0
0.69,0.14343835518453557,77.5,0,90,3.0,0,0.0
0.695,0.18829581417209276,77.5,0,90,3.0,0,0.0
0.7,0.2257481735193119,77.5,0,90,3.0,0,0.0
0.705,0.24718154073554727,77.5,0,90,3.0,0,0.0
0.71,0.24718154074102772,77.5,0,90,3.0,0,0.0
0.715,0.22574817354072055,77.5,0,90,3.0,0,0.0
0.72,0.18829581422840957,77.5,0,90,3.0,0,0.0
0.725,0.14343835532456656,77.5,0,90,3.0,0,0.0
0.73,0.09979255431561854,77.5,0,90,3.0,0,0.0
0.735,0.06340729067170194,77.5,0,90,3.0,0,0.0
0.74,0.03679497683410042,77.5,0,90,3.0,0,0.0
0.745,0.019500578284482293,77.5,0,90,3.0,0,0.0
0.75,0.009439396781978427,77.5,0,90,3.0,0,0.0
0.755,0.004178588733610924,77.5,0,90,3.0,0,0.0
0.76,0.0017299316936037381,77.5,0,90,3.0,0,0.0
0.765,0.0008997325756988589,77.5,0,90,3.0,0,0.0
0.77,0.001634769674224814,77.5,0,90,3.0,0,0.0
0.775,0.00614904736476635,77.5,0,90,3.0,0,0.0
0.78,0.02168080359963608,77.5,0,90,3.0,0,0.0
0.785,0.06433400338904088,77.5,0,90,3.0,0,0.0
0.79,0.1593410769217493,77.5,0,90,3.0,0,0.0
0.795,0.3291989194808569,77.5,0,90,3.0,0,0.0
0.8,0.5672906802982638,77.5,0,90,3.0,0,0.0
0.805,0.815339152120446,77.5,0,90,3.0,0,0.0
0.81,0.9768711246313155,77.50000284586159,1,90,3.0,0,5.8677558500516847e-08
0.815,0.9726380909165361,77.5000058771435,0,90,3.0,0,1.211782163638943e-07
0.82,0.7921091683291741,77.50001312492641,0,90,3.0,0,2.70617039411929e-07
0.825,0.49139090102639077,77.50003312177063,0,90,3.0,0,6.829231057222902e-07
0.83,0.15739335672107918,77.5000950173887,0,90,3.0,0,1.9591214165358773e-06
0.835,-0.11102342218909485,77.50029664213184,0,90,3.0,0,6.116332615326344e-06
0.84,-0.2314207883647528,77.50095018691317,0,90,3.0,0,1.9591482745824776e-05
0.845,-0.2029124434754801,77.50298788734874,0,90,3.0,0,6.160592471624066e-05
0.85,-0.11151350554305876,77.50899344295689,0,90,3.0,0,0.0001854318135441804
0.855,-0.039430666652076896,77.52558018028991,0,90,3.0,0,0.0005274263977300445
0.86,-0.006087703519843621,77.56832060951243,0,90,3.0,0,0.0014086723610809535
0.865,0.005350271385530551,77.67081240295971,0,90,3.0,0,0.003521905215664156
0.87,0.010381647827441833,77.89914273187748,0,90,3.0,0,0.008229747049020112
0.875,0.015115203303506243,78.37101968805803,0,90,3.0,0,0.0179591688259387
0.88,0.021170964062928475,79.2743219620393,0,90,3.0,0,0.03658395798019165
0.885,0.029082821134029553,80.87318328755507,0,90,3.0,0,0.06955017087742402
0.89,0.03923107061708144,83.4840347084959,0,90,3.0,0,0.12338215893805975
0.895,0.051969043308817596,87.4052161989753,0,90,3.0,0,0.20423126183454218
0.9,0.06760532616283861,92.79797719482352,0,90,3.0,0,0.31542221020254674
0.905,0.08636519236693461,99.54446405638612,0,90,3.0,0,0.45452503209043543
0.91,0.10834733138818661,107.13911793988598,0,90,3.0,0,0.611115833812082
0.915,0.1334809643017884,114.68319434295202,0,90,3.0,0,0.7666638008856087
0.92,0.16148868344343945,121.0286071131232,0,90,3.0,0,0.8974970538788288
0.925,0.191860907532018,125.05606361041474,0,90,3.0,0,0.9805373940291698
0.93,0.22384764873847726,126.0,0,90,3.0,0,1.0
0.935,0.25647215537198226,123.69218447622228,0,90,3.0,0,0.9524161747674696
0.94,0.2885689161419028,118.61841981945244,0,90,3.0,0,0.847802470504174
0.945,0.31884566517832524,111.76288043906783,0,90,3.0,0,0.7064511430735635
0.95,0.3459657668955683,104.30907561334334,0,90,3.0,0,0.5527644456359452
0.955,0.3686441789190902,97.32237373483679,0,90,3.0,0,0.40870873680075853
0.96,0.3857476379544367,91.52930221937348,0,90,3.0,0,0.2892639632860511
0.965,0.3963882865005728,87.24754941146844,0,90,3.0,0,0.2009804002364627
0.97,0.4,84.44866361769579,0,90,3.0,0,0.14327141479785124
0.975,0.39638828650057273,82.8907268689467,0,90,3.0,0,0.11114900760714846
0.98,0.38574763795443656,82.25407737271877,0,90,3.0,0,0.09802221387049007
0.985,0.36864417891908974,82.23774027159104,0,90,3.0,0,0.09768536642455745
0.99,0.345965766895568,82.60568848479885,0,90,3.0,0,0.10527192752162572
0.995,0.3188456651783249,83.19386752249686,0,90,3.0,0,0.11739933036075999
1.0,0.28856891614190205,83.89629740654941,0,90,3.0,0,0.13188242075359605
1.005,0.2564721553719815,84.64557378836538,0,90,3.0,0,0.147331418316812
1.01,0.22384764873847685,85.39633568541677,0,90,3.0,0,0.16281104506013966
1.015,0.19186090753201765,86.11442913867897,0,90,3.0,0,0.1776170956428654
1.02,0.16148868344343878,86.77121984433278,0,90,3.0,0,0.19115917204809849
1.025,0.1334809643017881,87.3414191722754,0,90,3.0,0,0.20291585922217306
1.03,0.10834733138818531,87.80288062565299,0,90,3.0,0,0.21243052836397916
1.035,0.08636519236690572,88.13728808638228,0,90,3.0,0,0.2193255275542739
1.04,0.06760532616242629,88.33108854836723,0,90,3.0,0,0.22332141336839656
1.045,0.05196904332202373,88.3763108939206,0,90,3.0,0,0.22425383286434233
1.05,0.03923107185803287,88.27108106749418,0,90,3.0,0,0.22208414572152949
1.055,0.02908287038705761,88.01974268743409,0,90,3.0,0,0.21690191108111523
1.06,0.02117220077308346,87.63255742288636,0,90,3.0,0,0.20891870975023433
1.065,0.0151361834125735,87.1250094082,0,90,3.0,0,0.19845380223092784
1.07,0.010626454858290009,86.51677814238163,0,90,3.0,0,0.18591295138931185
1.075,0.007326255555493652,85.83047446527023,0,90,3.0,0,0.1717623601086645
1.08,0.004960179211183015,85.09025249472462,0,90,3.0,0,0.1565000514376211
1.085,0.0032978759379303545,84.32041563244263,0,90,3.0,0,0.14062712644211614
1.09,0.002153242296767213,83.54412713946391,0,90,3.0,0,0.1246211781332765
1.095,0.001380616732225004,82.78231716056324,0,90,3.0,0,0.10891375588790182
1.1,0.0008693106590991584,82.0528515297851,0,90,3.0,0,0.09387322741824952
1.105,0.000537524815942247,81.36999705672466,0,90,3.0,0,0.07979375374690013
1.11,0.0003263951340288585,80.74418725350604,0,90,3.0,0,0.06689045883517611
1.115,0.00019463030985187395,80.18206515992516,0,90,3.0,0,0.05530031257577647
1.12,0.00011397219555062695,79.6867587248306,0,90,3.0,0,0.04508780875939374
1.125,6.55403863487943e-05,79.25833063767365,0,90,3.0,0,0.036254239952034056
1.13,3.701184389455385e-05,78.89433892375651,0,90,3.0,0,0.02874925615992798
1.135,2.0525516217290957e-05,78.59044631947289,0,90,3.0,0,0.022483429267482247
1.14,1.1178128483661116e-05,78.34102394918298,0,90,3.0,0,0.017340699983154285
1.145,5.978135409912517e-06,78.1397062108974,0,90,3.0,0,0.013189818781389716
1.15,3.1396702713238487e-06,77.97986702078465,0,90,3.0,0,0.009894165377003149
1.155,1.6192875458531019e-06,77.85500083322964,0,90,3.0,0,0.007319604808858528
1.16,8.201353897972012e-07,77.75900370298082,0,90,3.0,0,0.005340282535687012
1.165,4.0791415086824765e-07,77.68635914371603,0,90,3.0,0,0.0038424565714645846
1.17,1.9923866938774793e-07,77.63224022257143,0,90,3.0,0,0.0027266025272458896
1.175,9.556527981051257e-08,77.59254321199653,0,90,3.0,0,0.0019081074638459367
1.18,4.501406988770349e-08,77.56386952680471,0,90,3.0,0,0.001316897459890901
1.185,0.0,77.54347213406413,0,90,3.0,0,0.0008963326611161186
1.19,0.0,77.52918074358568,0,90,3.0,0,0.000601664816199668
1.195,0.0,77.5193174537281,0,90,3.0,0,0.00039829801501250865
1.2,0.0,77.51261163923783,0,90,3.0,0,0.00026003379871818866
1.205,0.0,77.50812009910234,0,90,3.0,1,0.00016742472375963377
1.21,0.0,77.50515607531464,0,90,3.0,1,0.00010631083122978725
1.215,0.0,77.50322883094955,0,90,3.0,1,6.65738340113965e-05
1.22,0.0,77.50199406584419,0,90,3.0,1,4.111475967395507e-05
1.225,0.0,77.50121451201069,0,90,3.0,1,2.504148475651098e-05
1.23,0.0,77.50072951170684,0,90,3.0,1,1.5041478491477542e-05
1.235,0.0,77.50043214635019,0,90,3.0,1,8.91023402458551e-06
1.24,0.0,77.5002524628993,0,90,3.0,1,5.205420604067147e-06
1.245,0.0,77.50014545625893,0,90,3.0,1,2.9990981223602727e-06
1.25,0.0,77.50008264857955,0,90,3.0,1,1.7040944237109704e-06
1.255,0.0,77.5000463133831,0,90,3.0,1,9.54915115356663e-07
1.26,0.001684486749771458,77.50002559444704,0,90,3.0,1,5.277205574886991e-07
1.265,0.004172395771277602,77.50001394932292,0,90,3.0,1,2.876149055643425e-07
1.27,0.009438687428818865,77.50000749770997,0,90,3.0,1,1.5459195820373688e-07
1.275,0.019500507867137046,77.50000397440645,0,90,3.0,1,8.194652481900438e-08
1.28,0.03679496976339974,77.5000020777058,0,90,3.0,1,4.283929486978336e-08
1.285,0.06340728953298436,77.5000010711837,0,90,3.0,1,2.2086261928164923e-08
1.29,0.09979255396093453,77.50000054464309,0,90,3.0,1,1.1229754354363397e-08
1.295,0.14343835518453557,77.50000027310406,0,90,3.0,1,5.631011624911442e-09
1.3,0.18829581417209276,77.50000013505556,0,90,3.0,1,2.78465067728491e-09
1.305,0.2257481735193119,77.50000006586654,0,90,3.0,1,1.358073076676426e-09
1.31,0.24718154073554727,77.50000003168002,0,90,3.0,1,6.531962233416427e-10
1.315,0.24718154074102772,77.50000001502707,0,90,3.0,1,3.09836481786069e-10
1.32,0.22574817354072055,77.50000000702961,0,90,3.0,1,1.449404628390804e-10
1.325,0.18829581422840957,77.50000000324307,0,90,3.0,1,6.686749207032917e-11
1.33,0.14343835532456656,77.50000000147553,0,90,3.0,1,3.0423242390394625e-11
1.335,0.09979255431561854,77.50000000066208,0,90,3.0,1,1.3651210746005388e-11
1.34,0.06340729067170194,77.50000000029299,0,90,3.0,1,6.040931786872571e-12
1.345,0.03679497683410042,77.50000000012786,0,90,3.0,1,2.6361868014984006e-12
1.35,0.019500578284482293,77.50000000005502,0,90,3.0,1,1.1345243187064363e-12
1.355,0.009439396781978427,77.50000000002336,0,90,3.0,1,4.817040237482906e-13
1.36,0.004178588733610924,77.50000000000978,0,90,3.0,1,2.015890318362676e-13
1.365,0.0017299316936037381,77.50000000000404,0,90,3.0,1,8.321407709520348e-14
1.37,0.0008997325756988589,77.50000000000165,0,90,3.0,1,3.3988848390998606e-14
1.375,0.001634769674224814,77.50000000000065,0,90,3.0,1,1.347833643091324e-14
1.38,0.00614904736476635,77.50000000000026,0,90,3.0,1,5.274131646879094e-15
1.385,0.02168080359963608,77.5000000000001,0,90,3.0,1,2.0510511960085364e-15
1.39,0.06433400338904088,77.50000000000004,0,90,3.0,1,8.790219411465157e-16
1.395,0.1593410769217493,77.50000000000001,0,90,3.0,1,2.9300731371550523e-16
1.4,0.3291989194808569,77.5,0,90,3.0,1,0.0
1.405,0.5672906802982638,77.5,0,90,3.0,1,0.0
1.41,0.815339152120446,77.5,0,90,3.0,1,0.0
1.415,0.9768711246313155,77.50000285188469,1,90,3.0,1,5.88017461343474e-08
1.42,0.9726380909165361,77.500005472104,0,90,3.0,1,1.1282688645449e-07
1.425,0.7921091683291741,77.50001114553572,0,90,3.0,1,2.2980486026370402e-07
1.43,0.49139090102639077,77.50002494746741,0,90,3.0,1,5.143807713241201e-07
1.435,0.15739335672107918,77.50006223014493,0,90,3.0,1,1.283095771835169e-06
1.44,-0.11102342218909485,77.5001692753466,0,90,3.0,1,3.4902133318178834e-06
1.445,-0.2314207883647528,77.50048103204684,0,90,3.0,1,9.918186532683284e-06
1.45,-0.2029124434754801,77.50137207546508,0,90,3.0,1,2.8290215774943847e-05
1.455,-0.11151350554305876,77.50382388761822,0,90,3.0,1,7.884304367473877e-05
1.46,-0.039430666652076896,77.51025255192553,0,90,3.0,1,0.00021139282320685189
1.465,-0.006087703519843621,77.52622730260188,0,90,3.0,1,0.0005407691258119953
1.47,0.005350271385530551,77.56373480349473,0,90,3.0,1,0.0013141196596850547
1.475,0.010381647827441833,77.64679192528084,0,90,3.0,1,0.0030266376346564368
1.48,0.015115203303506243,77.82003264790949,0,90,3.0,1,0.006598611297102794
1.485,0.021170964062928475,78.16002289075324,0,90,3.0,1,0.013608719396974014
1.49,0.029082821134029553,78.78715565839514,0,90,3.0,1,0.026539291925672906
1.495,0.03923107061708144,79.87309703665223,0,90,3.0,1,0.04892983580726239
1.5,0.051969043308817596,81.6357728352696,0,90,3.0,1,0.08527366670658981
1.505,0.06760532616283861,84.31274116702575,0,90,3.0,1,0.14046889004176802
1.51,0.08636519236693461,88.10699478553131,0,90,3.0,1,0.21870092341301678
1.515,0.10834733138818661,93.10840244452054,0,90,3.0,1,0.3218227308148564
1.52,0.1334809643017884,99.20787973600085,0,90,3.0,1,0.44758514919589376
1.525,0.16148868344343945,106.03465479272373,0,90,3.0,1,0.5883433977881181
1.53,0.191860907532018,112.95149073900936,0,90,3.0,1,0.7309585719383372
1.535,0.22384764873847726,119.13158563547512,0,90,3.0,1,0.8583832089788684
1.54,0.25647215537198226,123.71388588995438,0,90,3.0,1,0.9528636265969976
1.545,0.2885689161419028,126.0,0,90,3.0,1,1.0
1.55,0.31884566517832524,125.63168033832994,0,90,3.0,1,0.9924057801717514
1.555,0.3459657668955683,122.68717513676035,0,90,3.0,1,0.9316943327167081
1.56,0.3686441789190902,117.66114684156429,0,90,3.0,1,0.8280648833312224
1.565,0.3857476379544367,111.33557350136091,0,90,3.0,1,0.6976406907497096
1.57,0.3963882865005728,104.5882963007817,0,90,3.0,1,0.5585215732119939
1.575,0.4,98.20380090084146,0,90,3.0,1,0.4268824928008548
1.58,0.39638828650057273,92.74127363349305,0,90,3.0,1,0.31425306460810415
1.585,0.38574763795443656,88.48579720411917,0,90,3.0,1,0.22651128255915806
1.59,0.36864417891908974,85.47562070635212,0,90,3.0,1,0.16444578775983748
1.595,0.345965766895568,83.57616312899322,0,90,3.0,1,0.1252817139998601
1.6,0.3188456651783249,82.5659171942369,0,90,3.0,1,0.10445190091210109
1.605,0.28856891614190205,82.2077740060747,0,90,3.0,1,0.09706750527989073
1.61,0.2564721553719815,82.29359471173308,0,90,3.0,1,0.09883700436563048
1.615,0.22384764873847685,82.66255827345258,0,90,3.0,1,0.10644450048355825
1.62,0.19186090753201765,83.20095515387028,0,90,3.0,1,0.11754546709010891
1.625,0.16148868344343878,83.83258540626372,0,90,3.0,1,0.13056877126316943
1.63,0.1334809643017881,84.50688720883298,0,90,3.0,1,0.1444719012130511
1.635,0.10834733138818531,85.18879930614817,0,90,3.0,1,0.1585319444566633
1.64,0.08636519236690572,85.85174343024126,0,90,3.0,1,0.1722008954688919
1.645,0.06760532616242629,86.47356190947447,0,90,3.0,1,0.1850218950407107
1.65,0.05196904332202373,87.0346351717773,0,90,3.0,1,0.19659041591293394
1.655,0.03923107185803287,87.51735949791845,0,90,3.0,1,0.20654349480244225
1.66,0.02908287038705761,87.90635065364523,0,90,3.0,1,0.2145639310029945
1.665,0.02117220077308346,88.1889541011337,0,90,3.0,1,0.22039080620894233
1.67,0.0151361834125735,88.35580849564253,0,90,3.0,1,0.22383110300293885
1.675,0.010626454858290009,88.4013164549309,0,90,3.0,1,0.22476941144187437
1.68,0.007326255555493652,88.32394120303454,0,90,3.0,1,0.2231740454233925
1.685,0.004960179211183015,88.12628788072502,0,90,3.0,1,0.21909871919020651
1.69,0.0032978759379303545,87.8149564468404,0,90,3.0,1,0.21267951436784327
1.695,0.002153242296767213,87.40017534035806,0,90,3.0,1,0.20412732660532085
1.7,0.001380616732225004,86.89524350085946,0,90,3.0,1,0.1937163608424632
1.705,0.0008693106590991584,86.31582296936395,0,90,3.0,1,0.18176954576008145
1.71,0.000537524815942247,85.67913444059066,0,90,3.0,1,0.16864194722867337
1.715,0.0003263951340288585,85.00311320618148,0,90,3.0,1,0.15470336507590685
1.72,0.00019463030985187395,84.3055827268295,0,90,3.0,1,0.1403212933366907
1.725,0.00011397219555062695,83.60349793607864,0,90,3.0,1,0.12584531826966266
1.73,6.55403863487943e-05,82.91230113964602,0,90,3.0,1,0.11159383793084575
1.735,3.701184389455385e-05,82.24542123587032,0,90,3.0,1,0.09784373682206855
1.74,2.0525516217290957e-05,81.613933357956,0,90,3.0,1,0.08482336820527836
1.745,1.1178128483661116e-05,81.0263823663777,0,90,3.0,1,0.07270891477067429
1.75,5.978135409912517e-06,80.48876119719017,0,90,3.0,1,0.06162394221010664
1.755,3.1396702713238487e-06,80.00462491990231,0,90,3.0,1,0.05164175092582087
1.76,1.6192875458531019e-06,79.57531413717051,0,90,3.0,1,0.042789982209701205
1.765,8.201353897972012e-07,79.20025733794617,0,90,3.0,1,0.035056852328787
1.77,4.0791415086824765e-07,78.8773208986497,0,90,3.0,1,0.028398369044323704
1.775,1.9923866938774793e-07,78.60317721354771,0,90,3.0,1,0.02274592192881876
1.78,9.556527981051257e-08,78.37366531514834,0,90,3.0,1,0.01801371783811018
1.785,4.501406988770349e-08,78.18412359953327,0,90,3.0,1,0.014105641227490006
1.79,0.0,78.02968017202754,0,90,3.0,1,0.010921240660361643
1.795,0.0,77.90549221983429,0,90,3.0,1,0.008360664326480135
1.8,0.0,77.80693117491525,0,90,3.0,1,0.0063284778333041036
1.805,0.0,77.72971488846713,0,90,3.0,1,0.00473638945293049
1.81,0.0,77.66999140059843,0,90,3.0,1,0.003504977331926474
1.815,0.0,77.624381109498,0,90,3.0,1,0.002564558958721715
1.82,0.0,77.58998529958369,0,90,3.0,1,0.001855367001725527
1.825,0.0,77.56436923879633,0,90,3.0,1,0.001327200799924356
1.83,0.0,77.54552760933194,0,90,3.0,1,0.0009387135944730149
1.835,0.0,77.53183911478689,0,90,3.0,1,0.0006564765935441408
1.84,0.0,77.52201591751752,0,90,3.0,1,0.0004539364436602307
1.845,0.0,77.51505227902882,0,90,3.0,1,0.00031035626863550747
1.85,0.0,77.51017553839584,0,90,3.0,1,0.00020980491537818461
1.855,0.0,77.50680146081736,0,90,3.0,1,0.0001402363055125154
1.86,0.0,77.5044950721781,0,90,3.0,1,9.268190057942428e-05
1.865,0.0,77.50293738454126,0,90,3.0,1,6.056462971659852e-05
1.87,0.0,77.5018979055961,0,90,3.0,1,3.9132074146298636e-05
1.875,0.0,77.50121248974423,0,90,3.0,1,2.499978854089444e-05
1.88,0.0,77.50076589847964,0,90,3.0,1,1.5791721229734977e-05
1.885,0.0,77.50047835906365,0,90,3.0,1,9.863073477303842e-06
1.89,0.0,77.50029541087085,0,90,3.0,1,6.090945790679284e-06
1.895,0.0,77.50018038009229,0,90,3.0,1,3.7191771605897154e-06
1.9,0.0,77.50010890314022,0,90,3.0,1,2.2454255714627526e-06
1.905,0.0,77.5000650102546,0,90,3.0,1,1.3404176206560017e-06
1.91,0.0,77.50003837187288,0,90,3.0,1,7.911726366100336e-07
1.915,0.0,77.50002239410928,0,90,3.0,1,4.617342119555482e-07
1.92,0.0,77.500012922432,0,90,3.0,1,2.6644189703577083e-07
1.925,0.0,77.50000737300255,0,90,3.0,1,1.520206710571899e-07
1.93,0.001684486749771458,77.50000415943343,0,90,3.0,1,8.576151403242865e-08
1.935,0.004172395771277602,77.50000232013706,0,90,3.0,1,4.783787745772006e-08
1.94,0.009438687428818865,77.50000127962515,0,90,3.0,1,2.6384023763010605e-08
1.945,0.019500507867137046,77.50000069781701,0,90,3.0,1,1.4387979687394222e-08
1.95,0.03679496976339974,77.50000037626171,0,90,3.0,1,7.75797339771351e-09
1.955,0.06340728953298436,77.5000002005987,0,90,3.0,1,4.136055786523112e-09
1.96,0.09979255396093453,77.50000010574405,0,90,3.0,1,2.1802896899129167e-09
1.965,0.14343835518453557,77.50000005511545,0,90,3.0,1,1.1364010305507842e-09
1.97,0.18829581417209276,77.50000002840406,0,90,3.0,1,5.856507123473758e-10
1.975,0.2257481735193119,77.50000001447363,0,90,3.0,1,2.984253119534186e-10
1.98,0.24718154073554727,77.50000000729229,0,90,3.0,1,1.503564100257978e-10
1.985,0.24718154074102772,77.50000000363279,0,90,3.0,1,7.490292464166318e-11
1.99,0.22574817354072055,77.50000000178939,0,90,3.0,1,3.689460192111527e-11
1.995,0.18829581422840957,77.50000000087148,0,90,3.0,1,1.7968673513603357e-11
2.0,0.14343835532456656,77.50000000041966,0,90,3.0,1,8.652798981332584e-12
2.005,0.09979255431561854,77.50000000019982,0,90,3.0,1,4.119975838153719e-12
2.01,0.06340729067170194,77.50000000009408,0,90,3.0,1,1.9397084167966446e-12
2.015,0.03679497683410042,77.50000000004378,0,90,3.0,1,9.027555335574716e-13
2.02,0.019500578284482293,77.50000000002015,0,90,3.0,1,4.154843708485864e-13
2.025,0.009439396781978427,77.50000000000917,0,90,3.0,1,1.8898971734650088e-13
2.03,0.004178588733610924,77.50000000000412,0,90,3.0,1,8.497212097749652e-14
2.035,0.0017299316936037381,77.50000000000183,0,90,3.0,1,3.779794346930017e-14
2.04,0.0008997325756988589,77.50000000000081,0,90,3.0,1,1.67014168817838e-14
2.045,0.001634769674224814,77.50000000000036,0,90,3.0,1,7.32518284288763e-15
2.05,0.00614904736476635,77.50000000000016,0,90,3.0,1,3.2230804508705575e-15
2.055,0.02168080359963608,77.50000000000006,0,90,3.0,1,1.172029254862021e-15
2.06,0.06433400338904088,77.50000000000003,0,90,3.0,1,5.860146274310105e-16
2.065,0.1593410769217493,77.50000000000001,0,90,3.0,1,2.9300731371550523e-16
2.07,0.3291989194808569,77.5,0,90,3.0,1,0.0
2.075,0.5672906802982638,77.5,0,90,3.0,1,0.0
2.08,0.815339152120446,77.5,0,90,3.0,1,0.0
2.085,0.9768711246313155,77.50000285328441,1,90,3.0,1,5.883060647572643e-08
2.09,0.9726380909165361,77.50000562140409,0,90,3.0,1,1.1590523887282392e-07
2.095,0.7921091683291741,77.50001183073464,0,90,3.0,1,2.4393267289710397e-07
2.1,0.49139090102639077,77.50002762917026,0,90,3.0,1,5.696736136471992e-07
2.105,0.15739335672107918,77.50007245443882,0,90,3.0,1,1.4939059550923367e-06
2.11,-0.11102342218909485,77.50020725996767,0,90,3.0,1,4.273401395187075e-06
2.115,-0.2314207883647528,77.50061582704151,0,90,3.0,1,1.269746477348854e-05
2.12,-0.2029124434754801,77.50182248868452,0,90,3.0,1,3.757708627885804e-05
2.125,-0.11151350554305876,77.5052310715901,0,90,3.0,1,0.00010785714618768954
2.13,-0.039430666652076896,77.51435172175279,0,90,3.0,1,0.0002959117887172917
2.135,-0.006087703519843621,77.53735285072946,0,90,3.0,1,0.0007701618707105621
2.14,0.005350271385530551,77.5918691803079,0,90,3.0,1,0.0018942099032555814
2.145,0.010381647827441833,77.71309481986977,0,90,3.0,1,0.004393707626180756
2.15,0.015115203303506243,77.96566482587883,0,90,3.0,1,0.009601336616058397
2.155,0.021170964062928475,78.45812550344493,0,90,3.0,1,0.01975516501948315
2.16,0.029082821134029553,79.35558674678168,0,90,3.0,1,0.03825952055219964
2.165,0.03923107061708144,80.88198151748664,0,90,3.0,1,0.06973157768013682
2.17,0.051969043308817596,83.30025257051231,0,90,3.0,1,0.11959283650540853
2.175,0.06760532616283861,86.86014114836432,0,90,3.0,1,0.19299260099720247
2.18,0.08636519236693461,91.71228864363101,0,90,3.0,1,0.29303687925012395
2.185,0.10834733138818661,97.80423612993579,0,90,3.0,1,0.4186440439162018
2.19,0.1334809643017884,104.79307462662686,0,90,3.0,1,0.5627438067345745
2.195,0.16148868344343945,112.02004978372179,0,90,3.0,1,0.7117536037880781
2.2,0.191860907532018,118.58316466468419,0,90,3.0,1,0.8470755600965812
2.205,0.22384764873847726,123.51148828718976,0,90,3.0,1,0.9486904801482425
2.21,0.25647215537198226,126.0,0,90,3.0,1,1.0
2.215,0.2885689161419028,125.62830221298329,0,90,3.0,1,0.9923361281027482
2.22,0.31884566517832524,122.48203243932362,0,90,3.0,1,0.9274645863778066
2.225,0.3459657668955683,117.12925074937131,0,90,3.0,1,0.8170979535952847
2.23,0.3686441789190902,110.46116941721593,0,90,3.0,1,0.6796117405611531
2.235,0.3857476379544367,103.45897551850818,0,90,3.0,1,0.5352366086290347
2.24,0.3963882865005728,96.97065636772538,0,90,3.0,1,0.4014568323242347
2.245,0.4,91.56589466519785,0,90,3.0,1,0.29001844670511023
2.25,0.39638828650057273,87.49604796974954,0,90,3.0,1,0.206104081850506
2.255,0.38574763795443656,84.74329427423734,0,90,3.0,1,0.14934627369561532
2.26,0.36864417891908974,83.11746244254847,0,90,3.0,1,0.11582396788759737
2.265,0.345965766895568,82.3568848664176,0,90,3.0,1,0.10014195600861034
2.27,0.3188456651783249,82.20419486948393,0,90,3.0,1,0.09699370864915315
2.275,0.28856891614190205,82.4474226772088,0,90,3.0,1,0.102008714993996
2.28,0.2564721553719815,82.93146838815557,0,90,3.0,1,0.11198903893104258
2.285,0.22384764873847685,83.55144100802794,0,90,3.0,1,0.12477197954696775
2.29,0.19186090753201765,84.23890517799641,0,90,3.0,1,0.13894649851539
2.295,0.16148868344343878,84.94831218827366,0,90,3.0,1,0.15357344718090024
2.3,0.1334809643017881,85.64686744660881,0,90,3.0,1,0.16797664838368678
2.305,0.10834733138818531,86.30832747591782,0,90,3.0,1,0.18161499950346022
2.31,0.08636519236690572,86.90992131114385,0,90,3.0,1,0.19401899610605872
2.315,0.06760532616242629,87.43130093518502,0,90,3.0,1,0.20476909144711383
2.32,0.05196904332202373,87.85460739278714,0,90,3.0,1,0.21349705964509577
2.325,0.03923107185803287,88.16503318602679,0,90,3.0,1,0.21989759146446988
2.33,0.02908287038705761,88.35150634707973,0,90,3.0,1,0.2237423989088605
2.335,0.02117220077308346,88.40728293523891,0,90,3.0,1,0.22489243165441053
2.34,0.0151361834125735,88.33033092317498,0,90,3.0,1,0.22330579223041203
2.345,0.010626454858290009,88.12344658788109,0,90,3.0,1,0.21904013583259982
2.35,0.007326255555493652,87.79408397232552,0,90,3.0,1,0.2122491540685675
2.355,0.004960179211183015,87.35390857822988,0,90,3.0,1,0.20317337274700778
2.36,0.0032978759379303545,86.81811153597118,0,90,3.0,1,0.19212601105095226
2.365,0.002153242296767213,86.20454017631614,0,90,3.0,1,0.17947505518177614
2.37,0.001380616732225004,85.5327142396845,0,90,3.0,1,0.1656229740141133
2.375,0.0008693106590991584,84.82280306012088,0,90,3.0,1,0.15098563010558508
2.38,0.000537524815942247,84.09463776038064,0,90,3.0,1,0.13597191258516775
2.385,0.0003263951340288585,83.36682439710084,0,90,3.0,1,0.1209654514866153
2.39,0.00019463030985187395,82.65601043153745,0,90,3.0,1,0.10630949343376192
2.395,0.00011397219555062695,81.97633972309383,0,90,3.0,1,0.09229566439368721
2.4,6.55403863487943e-05,81.33911255053565,0,90,3.0,1,0.07915695980485868
2.405,3.701184389455385e-05,80.75264902476607,0,90,3.0,1,0.0670649283456922
2.41,2.0525516217290957e-05,80.22233844465784,0,90,3.0,2,0.05613068958057395
2.415,1.1178128483661116e-05,79.75084496649728,0,90,3.0,2,0.04640917456695429
2.42,5.978135409912517e-06,79.33843213578254,0,90,3.0,2,0.03790581723262969
2.425,3.1396702713238487e-06,78.9833655092204,0,90,3.0,2,0.030584855860214546
2.43,1.6192875458531019e-06,78.682353399043,0,90,3.0,2,0.02437842059882464
2.435,8.201353897972012e-07,78.43098993416538,0,90,3.0,2,0.019195668745677973
2.44,4.0791415086824765e-07,78.22417115200214,0,90,3.0,2,0.014931363958807063
2.445,1.9923866938774793e-07,78.05646263625866,0,90,3.0,2,0.011473456417704288
2.45,9.556527981051257e-08,77.92240529264143,0,90,3.0,2,0.008709387477142862
2.455,4.501406988770349e-08,77.81675337219069,0,90,3.0,2,0.006530997364756479
2.46,0.0,77.73464521201578,0,90,3.0,2,0.004838045608572738
2.465,0.0,77.6717120211314,0,90,3.0,2,0.0035404540439463563
2.47,0.0,77.62413328746686,0,90,3.0,2,0.002559449226120855
2.475,0.0,77.58864910755129,0,90,3.0,2,0.0018278166505420771
2.48,0.0,77.56254016636984,0,90,3.0,2,0.0012894879663885074
2.485,0.0,77.54358552186387,0,90,3.0,2,0.0008986705538943297
2.49,0.0,77.53000709975734,0,90,3.0,2,0.0006187030877802349
2.495,0.0,77.52040818335705,0,90,3.0,2,0.00042078728571233844
2.5,0.0,77.51371144502332,0,90,3.0,2,0.00028271020666635973
2.505,0.0,77.50910040372447,0,90,3.0,2,0.00018763719019534853
2.51,0.0,77.50596673357165,0,90,3.0,2,0.00012302543446709286
2.515,0.0,77.5038646590576,0,90,3.0,2,7.968369190923545e-05
2.52,0.0,77.50247277317126,0,90,3.0,2,5.098501384047511e-05
2.525,0.0,77.50156298902219,0,90,3.0,2,3.222657777711771e-05
2.53,0.0,77.50097594676535,0,90,3.0,2,2.0122613718576384e-05
2.535,0.0,77.50060199777202,0,90,3.0,2,1.2412325196347533e-05
2.54,0.0,77.50036682775895,0,90,3.0,2,7.563458947475906e-06
2.545,0.0,77.50022081473722,0,90,3.0,2,4.552881179766775e-06
2.55,0.0,77.50013130838836,0,90,3.0,2,2.707389450754996e-06
2.555,0.0,77.50007713570277,0,90,3.0,2,1.5904268611824797e-06
2.56,0.0,77.50004476277108,0,90,3.0,2,9.229437336633748e-07
2.565,0.0,77.5000256612047,0,90,3.0,2,5.290970041749967e-07
2.57,0.0,77.50001453234408,0,90,3.0,2,2.996359604512503e-07
2.575,0.001684486749771458,77.50000813004326,0,90,3.0,2,1.6762975784547157e-07
2.58,0.004172395771277602,77.50000449312597,0,90,3.0,2,9.264177259462213e-08
2.585,0.009438687428818865,77.50000245303015,0,90,3.0,2,5.057794121207688e-08
2.59,0.019500507867137046,77.50000132298747,0,90,3.0,2,2.7278092215731037e-08
2.595,0.03679496976339974,77.50000070486692,0,90,3.0,2,1.4533338564677289e-08
2.6,0.06340728953298436,77.50000037098563,0,90,3.0,2,7.64918827934304e-09
2.605,0.09979255396093453,77.50000019288817,0,90,3.0,2,3.97707558524004e-09
2.61,0.14343835518453557,77.5000000990724,0,90,3.0,2,2.042729788299016e-09
2.615,0.18829581417209276,77.50000005026877,0,90,3.0,2,1.0364694211715425e-09
2.62,0.2257481735193119,77.50000002519663,0,90,3.0,2,5.195180826198451e-10
2.625,0.24718154073554727,77.50000001247628,0,90,3.0,2,2.572428410033907e-10
2.63,0.24718154074102772,77.50000000610277,0,90,3.0,2,1.2583023283124142e-10
2.635,0.22574817354072055,77.50000000294894,0,90,3.0,2,6.080282669104563e-11
2.64,0.18829581422840957,77.50000000140768,0,90,3.0,2,2.90244254747168e-11
2.645,0.14343835532456656,77.5000000006638,0,90,3.0,2,1.3686664630964965e-11
2.65,0.09979255431561854,77.50000000030923,0,90,3.0,2,6.375839146449394e-12
2.655,0.06340729067170194,77.50000000014231,0,90,3.0,2,2.9341752395470693e-12
2.66,0.03679497683410042,77.50000000006469,0,90,3.0,2,1.3337692920329797e-12
2.665,0.019500578284482293,77.50000000002905,0,90,3.0,2,5.989069492344927e-13
2.67,0.009439396781978427,77.50000000001289,0,90,3.0,2,2.6575763353996326e-13
2.675,0.004178588733610924,77.50000000000564,0,90,3.0,2,1.1632390354505557e-13
2.68,0.0017299316936037381,77.50000000000244,0,90,3.0,2,5.03972579590669e-14
2.685,0.0008997325756988589,77.50000000000105,0,90,3.0,2,2.1682541214947386e-14
2.69,0.001634769674224814,77.50000000000044,0,90,3.0,2,9.083226725180661e-15
2.695,0.00614904736476635,77.50000000000018,0,90,3.0,2,3.809095078301568e-15
2.7,0.02168080359963608,77.50000000000007,0,90,3.0,2,1.465036568577526e-15
2.705,0.06433400338904088,77.50000000000003,0,90,3.0,2,5.860146274310105e-16
2.71,0.1593410769217493,77.50000000000001,0,90,3.0,2,2.9300731371550523e-16
2.715,0.3291989194808569,77.5,0,90,3.0,2,0.0
2.72,0.5672906802982638,77.5,0,90,3.0,2,0.0
2.725,0.815339152120446,77.5,0,90,3.0,2,0.0
2.73,0.9768711246313155,77.50000285188469,1,90,3.0,2,5.88017461343474e-08
2.735,0.9726380909165361,77.500005472104,0,90,3.0,2,1.1282688645449e-07
2.74,0.7921091683291741,77.50001114553572,0,90,3.0,2,2.2980486026370402e-07
2.745,0.49139090102639077,77.50002494746741,0,90,3.0,2,5.143807713241201e-07
2.75,0.15739335672107918,77.50006223014493,0,90,3.0,2,1.283095771835169e-06
2.755,-0.11102342218909485,77.5001692753466,0,90,3.0,2,3.4902133318178834e-06
2.76,-0.2314207883647528,77.50048103204684,0,90,3.0,2,9.918186532683284e-06
2.765,-0.2029124434754801,77.50137207546508,0,90,3.0,2,2.8290215774943847e-05
2.77,-0.11151350554305876,77.50382388761822,0,90,3.0,2,7.884304367473877e-05
2.775,-0.039430666652076896,77.51025255192553,0,90,3.0,2,0.00021139282320685189
2.78,-0.006087703519843621,77.52622730260188,0,90,3.0,2,0.0005407691258119953
2.785,0.005350271385530551,77.56373480349473,0,90,3.0,2,0.0013141196596850547
2.79,0.010381647827441833,77.64679192528084,0,90,3.0,2,0.0030266376346564368
2.795,0.015115203303506243,77.82003264790949,0,90,3.0,2,0.006598611297102794
2.8,0.021170964062928475,78.16002289075324,0,90,3.0,2,0.013608719396974014
2.805,0.029082821134029553,78.78715565839514,0,90,3.0,2,0.026539291925672906
2.81,0.03923107061708144,79.87309703665223,0,90,3.0,2,0.04892983580726239
2.815,0.051969043308817596,81.6357728352696,0,90,3.0,2,0.08527366670658981
2.82,0.06760532616283861,84.31274116702575,0,90,3.0,2,0.14046889004176802
2.825,0.08636519236693461,88.10699478553131,0,90,3.0,2,0.21870092341301678
2.83,0.10834733138818661,93.10840244452054,0,90,3.0,2,0.3218227308148564
2.835,0.1334809643017884,99.20787973600085,0,90,3.0,2,0.44758514919589376
2.84,0.16148868344343945,106.03465479272373,0,90,3.0,2,0.5883433977881181
2.845,0.191860907532018,112.95149073900936,0,90,3.0,2,0.7309585719383372
2.85,0.22384764873847726,119.13158563547512,0,90,3.0,2,0.8583832089788684
2.855,0.25647215537198226,123.71388588995438,0,90,3.0,2,0.9528636265969976
2.86,0.2885689161419028,126.0,0,90,3.0,2,1.0
2.865,0.31884566517832524,125.63168033832994,0,90,3.0,2,0.9924057801717514
2.87,0.3459657668955683,122.68717513676035,0,90,3.0,2,0.9316943327167081
2.875,0.3686441789190902,117.66114684156429,0,90,3.0,2,0.8280648833312224
2.88,0.3857476379544367,111.33557350136091,0,90,3.0,2,0.6976406907497096
2.885,0.3963882865005728,104.5882963007817,0,90,3.0,2,0.5585215732119939
2.89,0.4,98.20380090084146,0,90,3.0,2,0.4268824928008548
2.895,0.39638828650057273,92.74127363349305,0,90,3.0,2,0.31425306460810415
2.9,0.38574763795443656,88.48579720411917,0,90,3.0,2,0.22651128255915806
2.905,0.36864417891908974,85.47562070635212,0,90,3.0,2,0.16444578775983748
2.91,0.345965766895568,83.57616312899322,0,90,3.0,2,0.1252817139998601
2.915,0.3188456651783249,82.5659171942369,0,90,3.0,2,0.10445190091210109
2.92,0.28856891614190205,82.2077740060747,0,90,3.0,2,0.09706750527989073
2.925,0.2564721553719815,82.29359471173308,0,90,3.0,2,0.09883700436563048
2.93,0.22384764873847685,82.66255827345258,0,90,3.0,2,0.10644450048355825
2.935,0.19186090753201765,83.20095515387028,0,90,3.0,2,0.11754546709010891
2.94,0.16148868344343878,83.83258540626372,0,90,3.0,2,0.13056877126316943
2.945,0.1334809643017881,84.50688720883298,0,90,3.0,2,0.1444719012130511
2.95,0.10834733138818531,85.18879930614817,0,90,3.0,2,0.1585319444566633
2.955,0.08636519236690572,85.85174343024126,0,90,3.0,2,0.1722008954688919
2.96,0.06760532616242629,86.47356190947447,0,90,3.0,2,0.1850218950407107
2.965,0.05196904332202373,87.0346351717773,0,90,3.0,2,0.19659041591293394
2.97,0.03923107185803287,87.51735949791845,0,90,3.0,2,0.20654349480244225
2.975,0.02908287038705761,87.90635065364523,0,90,3.0,2,0.2145639310029945
2.98,0.02117220077308346,88.1889541011337,0,90,3.0,2,0.22039080620894233
2.985,0.0151361834125735,88.35580849564253,0,90,3.0,2,0.22383110300293885
2.99,0.010626454858290009,88.4013164549309,0,90,3.0,2,0.22476941144187437
2.995,0.007326255555493652,88.32394120303454,0,90,3.0,2,0.2231740454233925
3.0,0.004960179211183015,88.12628788072502,0,90,3.0,2,0.21909871919020651
3.005,0.0032978759379303545,87.8149564468404,0,90,3.0,2,0.21267951436784327
3.01,0.002153242296767213,87.40017534035806,0,90,3.0,2,0.20412732660532085
3.015,0.001380616732225004,86.89524350085946,0,90,3.0,2,0.1937163608424632
3.02,0.0008693106590991584,86.31582296936395,0,90,3.0,2,0.18176954576008145
3.025,0.000537524815942247,85.67913444059066,0,90,3.0,2,0.16864194722867337
3.03,0.0003263951340288585,85.00311320618148,0,90,3.0,2,0.15470336507590685
3.035,0.00019463030985187395,84.3055827268295,0,90,3.0,2,0.1403212933366907
3.04,0.00011397219555062695,83.60349793607864,0,90,3.0,2,0.12584531826966266
3.045,6.55403863487943e-05,82.91230113964602,0,90,3.0,2,0.11159383793084575
3.05,3.701184389455385e-05,82.24542123587032,0,90,3.0,2,0.09784373682206855
3.055,2.0525516217290957e-05,81.613933357956,0,90,3.0,2,0.08482336820527836
3.06,1.1178128483661116e-05,81.0263823663777,0,90,3.0,2,0.07270891477067429
3.065,5.978135409912517e-06,80.48876119719017,0,90,3.0,2,0.06162394221010664
3.07,3.1396702713238487e-06,80.00462491990231,0,90,3.0,2,0.05164175092582087
3.075,1.6192875458531019e-06,79.57531413717051,0,90,3.0,2,0.042789982209701205
3.08,8.201353897972012e-07,79.20025733794617,0,90,3.0,2,0.035056852328787
3.085,4.0791415086824765e-07,78.8773208986497,0,90,3.0,2,0.028398369044323704
3.09,1.9923866938774793e-07,78.60317721354771,0,90,3.0,2,0.02274592192881876
3.095,9.556527981051257e-08,78.37366531514834,0,90,3.0,2,0.01801371783811018
3.1,4.501406988770349e-08,78.18412359953327,0,90,3.0,2,0.014105641227490006
3.105,0.0,78.02968017202754,0,90,3.0,2,0.010921240660361643
3.11,0.0,77.90549221983429,0,90,3.0,2,0.008360664326480135
3.115,0.0,77.80693117491525,0,90,3.0,2,0.0063284778333041036
3.12,0.0,77.72971488846713,0,90,3.0,2,0.00473638945293049
3.125,0.0,77.66999140059843,0,90,3.0,2,0.003504977331926474
3.13,0.0,77.624381109498,0,90,3.0,2,0.002564558958721715
3.135,0.0,77.58998529958369,0,90,3.0,2,0.001855367001725527
3.14,0.0,77.56436923879633,0,90,3.0,2,0.001327200799924356
3.145,0.0,77.54552760933194,0,90,3.0,2,0.0009387135944730149
3.15,0.0,77.53183911478689,0,90,3.0,2,0.0006564765935441408
3.155,0.0,77.52201591751752,0,90,3.0,2,0.0004539364436602307
3.16,0.0,77.51505227902882,0,90,3.0,2,0.00031035626863550747
3.165,0.0,77.51017553839584,0,90,3.0,2,0.00020980491537818461
3.17,0.0,77.50680146081736,0,90,3.0,2,0.0001402363055125154
3.175,0.0,77.5044950721781,0,90,3.0,2,9.268190057942428e-05
3.18,0.0,77.50293738454126,0,90,3.0,2,6.056462971659852e-05
3.185,0.0,77.5018979055961,0,90,3.0,2,3.9132074146298636e-05
3.19,0.0,77.50121248974423,0,90,3.0,2,2.499978854089444e-05
3.195,0.0,77.50076589847964,0,90,3.0,2,1.5791721229734977e-05
3.2,0.0,77.50047835906365,0,90,3.0,2,9.863073477303842e-06
3.205,0.0,77.50029541087085,0,90,3.0,2,6.090945790679284e-06
3.21,0.0,77.50018038009229,0,90,3.0,2,3.7191771605897154e-06
3.215,0.0,77.50010890314022,0,90,3.0,2,2.2454255714627526e-06
3.22,0.0,77.5000650102546,0,90,3.0,2,1.3404176206560017e-06
3.225,0.0,77.50003837187288,0,90,3.0,2,7.911726366100336e-07
3.23,0.0,77.50002239410928,0,90,3.0,2,4.617342119555482e-07
3.235,0.0,77.500012922432,0,90,3.0,2,2.6644189703577083e-07
3.24,0.0,77.50000737300255,0,90,3.0,2,1.520206710571899e-07
3.245,0.001684486749771458,77.50000415943343,0,90,3.0,2,8.576151403242865e-08
3.25,0.004172395771277602,77.50000232013706,0,90,3.0,2,4.783787745772006e-08
3.255,0.009438687428818865,77.50000127962515,0,90,3.0,2,2.6384023763010605e-08
3.26,0.019500507867137046,77.50000069781701,0,90,3.0,2,1.4387979687394222e-08
3.265,0.03679496976339974,77.50000037626171,0,90,3.0,2,7.75797339771351e-09
3.27,0.06340728953298436,77.5000002005987,0,90,3.0,2,4.136055786523112e-09
3.275,0.09979255396093453,77.50000010574405,0,90,3.0,2,2.1802896899129167e-09
3.28,0.14343835518453557,77.50000005511545,0,90,3.0,2,1.1364010305507842e-09
3.285,0.18829581417209276,77.50000002840406,0,90,3.0,2,5.856507123473758e-10
3.29,0.2257481735193119,77.50000001447363,0,90,3.0,2,2.984253119534186e-10
3.295,0.24718154073554727,77.50000000729229,0,90,3.0,2,1.503564100257978e-10
3.3,0.24718154074102772,77.50000000363279,0,90,3.0,2,7.490292464166318e-11
3.305,0.22574817354072055,77.50000000178939,0,90,3.0,2,3.689460192111527e-11
3.31,0.18829581422840957,77.50000000087148,0,90,3.0,2,1.7968673513603357e-11
3.315,0.14343835532456656,77.50000000041966,0,90,3.0,2,8.652798981332584e-12
3.32,0.09979255431561854,77.50000000019982,0,90,3.0,2,4.119975838153719e-12
3.325,0.06340729067170194,77.50000000009408,0,90,3.0,2,1.9397084167966446e-12
3.33,0.03679497683410042,77.50000000004378,0,90,3.0,2,9.027555335574716e-13
3.335,0.019500578284482293,77.50000000002015,0,90,3.0,2,4.154843708485864e-13
3.34,0.009439396781978427,77.50000000000917,0,90,3.0,2,1.8898971734650088e-13
3.345,0.004178588733610924,77.50000000000412,0,90,3.0,2,8.497212097749652e-14
3.35,0.0017299316936037381,77.50000000000183,0,90,3.0,2,3.779794346930017e-14
3.355,0.0008997325756988589,77.50000000000081,0,90,3.0,2,1.67014168817838e-14
3.36,0.001634769674224814,77.50000000000036,0,90,3.0,2,7.32518284288763e-15
3.365,0.00614904736476635,77.50000000000016,0,90,3.0,2,3.2230804508705575e-15
3.37,0.02168080359963608,77.50000000000006,0,90,3.0,2,1.172029254862021e-15
3.375,0.06433400338904088,77.50000000000003,0,90,3.0,2,5.860146274310105e-16
3.38,0.1593410769217493,77.50000000000001,0,90,3.0,2,2.9300731371550523e-16
3.385,0.3291989194808569,77.5,0,90,3.0,2,0.0
3.39,0.5672906802982638,77.5,0,90,3.0,2,0.0
3.395,0.815339152120446,77.5,0,90,3.0,2,0.0
3.4,0.9768711246313155,77.50000284322633,1,90,3.0,2,5.862322322426144e-08
3.405,0.9726380909165361,77.50000534910116,0,90,3.0,2,1.102907455352232e-07
3.41,0.7921091683291741,77.50001063505204,0,90,3.0,2,2.1927942341171353e-07
3.415,0.49139090102639077,77.50002307583767,0,90,3.0,2,4.757904675148218e-07
3.42,0.15739335672107918,77.5000554713907,0,90,3.0,2,1.143740014331155e-06
3.425,-0.11102342218909485,77.50014526993121,0,90,3.0,2,2.9952563136014092e-06
3.43,-0.2314207883647528,77.5003988898635,0,90,3.0,2,8.224533268130659e-06
3.435,-0.2029124434754801,77.5011054659756,0,90,3.0,2,2.279311289893738e-05
3.44,-0.11151350554305876,77.50300976888175,0,90,3.0,2,6.205709034543127e-05
3.445,-0.039430666652076896,77.50792185780857,0,90,3.0,2,0.00016333727440347813
3.45,-0.006087703519843621,77.51997904089026,0,90,3.0,2,0.0004119389874281015
3.455,0.005350271385530551,77.54805187102536,0,90,3.0,2,0.000990760227327109
3.46,0.010381647827441833,77.60993273918042,0,90,3.0,2,0.0022666544160911822
3.465,0.015115203303506243,77.73890414692885,0,90,3.0,2,0.0049258586995638304
3.47,0.021170964062928475,77.99279598451152,0,90,3.0,2,0.01016074194869107
3.475,0.029082821134029553,78.46442565053172,0,90,3.0,2,0.01988506495941697
3.48,0.03923107061708144,79.29027244272471,0,90,3.0,2,0.03691283387061265
3.485,0.051969043308817596,80.65176405432197,0,90,3.0,2,0.06498482586230872
3.49,0.06760532616283861,82.76179436299392,0,90,3.0,2,0.10849060542255515
3.495,0.08636519236693461,85.82984126010565,0,90,3.0,2,0.1717493043320753
3.5,0.10834733138818661,90.00401066771741,0,90,3.0,2,0.257814652942627
3.505,0.1334809643017884,95.29777724070067,0,90,3.0,2,0.3669644791897045
3.51,0.16148868344343945,101.52070486511198,0,90,3.0,2,0.4952722652600408
3.515,0.191860907532018,108.24076061437154,0,90,3.0,2,0.633830115760238
3.52,0.22384764873847726,114.80477932285345,0,90,3.0,2,0.7691707076877
3.525,0.25647215537198226,120.42962228136281,0,90,3.0,2,0.8851468511621198
3.53,0.2885689161419028,124.35209848293255,0,90,3.0,2,0.9660226491326298
3.535,0.31884566517832524,126.0,0,90,3.0,2,1.0
3.54,0.3459657668955683,125.13199699060715,0,90,3.0,2,0.982103030734168
3.545,0.3686441789190902,121.89956504594475,0,90,3.0,2,0.9154549494009228
3.55,0.3857476379544367,116.80934959217932,0,90,3.0,2,0.8105020534469962
3.555,0.3963882865005728,110.59911497723489,0,90,3.0,2,0.6824559789120596
3.56,0.4,104.06935062625563,0,90,3.0,2,0.5478216623970232
3.565,0.39638828650057273,97.92347769263611,0,90,3.0,2,0.421102632837858
3.57,0.38574763795443656,92.65949215512845,0,90,3.0,2,0.3125668485593494
3.575,0.36864417891908974,88.53181629485155,0,90,3.0,2,0.22746012979075364
3.58,0.345965766895568,85.57626122980984,0,90,3.0,2,0.16652085009917206
3.585,0.3188456651783249,83.67383914290984,0,90,3.0,2,0.12729565243113075
3.59,0.28856891614190205,82.62499201165721,0,90,3.0,2,0.1056699383846848
3.595,0.2564721553719815,82.2123239726345,0,90,3.0,2,0.09716131902339162
3.6,0.22384764873847685,82.24122011682826,0,90,3.0,2,0.09775711581089194
3.605,0.19186090753201765,82.5580522820505,0,90,3.0,2,0.10428973777423704
3.61,0.16148868344343878,83.05182219454407,0,90,3.0,2,0.11447056071224893
3.615,0.1334809643017881,83.64676889072895,0,90,3.0,3,0.12673750290162783
3.62,0.10834733138818531,84.29215130262087,0,90,3.0,3,0.1400443567550694
3.625,0.08636519236690572,84.95297587109219,0,90,3.0,3,0.15366960558952975
3.63,0.06760532616242629,85.6032141410097,0,90,3.0,3,0.16707658022700414
3.635,0.05196904332202373,86.22161625213593,0,90,3.0,3,0.17982713921929755
3.64,0.03923107185803287,86.78956826301784,0,90,3.0,3,0.19153748995913075
3.645,0.02908287038705761,87.29030500025087,0,90,3.0,3,0.20186195876805912
3.65,0.02117220077308346,87.70890109634271,0,90,3.0,3,0.21049280611015905
3.655,0.0151361834125735,88.03263653005703,0,90,3.0,3,0.21716776350633057
3.66,0.010626454858290009,88.25148247455117,0,90,3.0,3,0.22168005102167357
3.665,0.007326255555493652,88.35855638009744,0,90,3.0,3,0.22388776041438022
3.67,0.004960179211183015,88.35045923154104,0,90,3.0,3,0.22372080889775336
3.675,0.0032978759379303545,88.22744713680183,0,90,3.0,3,0.2211844770474604
3.68,0.002153242296767213,87.99341542663203,0,90,3.0,3,0.21635908096148507
3.685,0.001380616732225004,87.65569305578572,0,90,3.0,3,0.20939573310898388
3.69,0.0008693106590991584,87.22466123620943,0,90,3.0,3,0.20050847909710162
3.695,0.000537524815942247,86.71322360224083,0,90,3.0,3,0.189963373242079
3.7,0.0003263951340288585,86.13616550482689,0,90,3.0,3,0.17806526814076065
3.705,0.00019463030985187395,85.50944672085147,0,90,3.0,3,0.1651432313577623
3.71,0.00011397219555062695,84.84947457720351,0,90,3.0,3,0.15153555829285587
3.715,6.55403863487943e-05,84.17240320268115,0,90,3.0,3,0.1375753237666217
3.72,3.701184389455385e-05,83.49349969202193,0,90,3.0,3,0.12357731323756552
3.725,2.0525516217290957e-05,82.8266100918151,0,90,3.0,3,0.10982701220237316
3.73,1.1178128483661116e-05,82.18374823881719,0,90,3.0,3,0.09657212863540593
3.735,5.978135409912517e-06,81.57481966179543,0,90,3.0,3,0.08401690024320475
3.74,3.1396702713238487e-06,81.00748205938964,0,90,3.0,3,0.07231921771937412
3.745,1.6192875458531019e-06,80.48713423047259,0,90,3.0,3,0.061590396504589515
3.75,8.201353897972012e-07,80.01701749313209,0,90,3.0,3,0.051897267899630665
3.755,4.0791415086824765e-07,79.59840805263835,0,90,3.0,3,0.04326614541522367
3.76,1.9923866938774793e-07,79.23087565482302,0,90,3.0,3,0.03568815783140255
3.765,9.556527981051257e-08,78.91258311223406,0,90,3.0,3,0.029125424994516702
3.77,4.501406988770349e-08,78.64060262096777,0,90,3.0,3,0.023517579813768435
3.775,0.0,78.41122774696173,0,90,3.0,3,0.018788200968283056
3.78,0.0,78.22026402057521,0,90,3.0,3,0.01485080454794257
3.785,0.0,78.06328569392375,0,90,3.0,3,0.0116141380190463
3.79,0.0,77.93585088962875,0,90,3.0,3,0.00898661628100522
3.795,0.0,77.83367169477451,0,90,3.0,3,0.006879828758237296
3.8,0.0,77.75273943637394,0,90,3.0,3,0.005211122399462747
3.805,0.0,77.68940824197168,0,90,3.0,3,0.0039053245767356024
3.81,0.0,77.64044198158881,0,90,3.0,3,0.0028957109605939712
3.815,0.0,77.60303083963844,0,90,3.0,3,0.00212434720903991
3.82,0.0,77.57478418147271,0,90,3.0,3,0.0015419418860352196
3.825,0.0,77.55370620498225,0,90,3.0,3,0.001107344432623672
3.83,0.0,77.53816026664151,0,90,3.0,3,0.0007868096214744733
3.835,0.0,77.5268269037557,0,90,3.0,3,0.0005531320362000976
3.84,0.0,77.51865958225872,0,90,3.0,3,0.00038473365481898506
3.845,0.0,77.51284119666562,0,90,3.0,3,0.00026476694155915014
3.85,0.0,77.50874341903805,0,90,3.0,3,0.00018027668119700757
3.855,0.0,77.505890189993,0,90,3.0,3,0.00012144721635044119
3.86,0.0,77.50392599307456,0,90,3.0,3,8.09483108156721e-05
3.865,0.0,77.50258905913398,0,90,3.0,3,5.338266255632296e-05
3.87,0.0,77.5016892993909,0,90,3.0,3,3.483091527636903e-05
3.875,0.0,77.50109054476202,0,90,3.0,3,2.2485459010757733e-05
3.88,0.0,77.50069655045753,0,90,3.0,3,1.436186510378067e-05
3.885,0.0,77.50044018362493,0,90,3.0,3,9.075951029515017e-06
3.89,0.0,77.50027522469445,0,90,3.0,3,5.674735968003793e-06
3.895,0.0,77.50017026019599,0,90,3.0,3,3.510519504872493e-06
3.9,0.0,77.50010421040284,0,90,3.0,3,2.1486680997647275e-06
3.905,0.0,77.50006310753771,0,90,3.0,3,1.3011863445954827e-06
3.91,0.0,77.5000378114743,0,90,3.0,3,7.796180268049977e-07
3.915,0.0,77.50002241497207,0,90,3.0,3,4.6216437247672616e-07
3.92,0.0,77.5000131469499,0,90,3.0,3,2.710711318914693e-07
3.925,0.0,77.50000762928833,0,90,3.0,3,1.57304914093458e-07
3.93,0.0,77.50000438041506,0,90,3.0,3,9.031783636216751e-08
3.935,0.001684486749771458,77.50000248839153,0,90,3.0,3,5.1307041859058467e-08
3.94,0.004172395771277602,77.50000139860276,0,90,3.0,3,2.8837170360667496e-08
3.945,0.009438687428818865,77.50000077775401,0,90,3.0,3,1.6036165165526644e-08
3.95,0.019500507867137046,77.50000042791977,0,90,3.0,3,8.823088092895821e-09
3.955,0.03679496976339974,77.50000023294568,0,90,3.0,3,4.803003722119365e-09
3.96,0.06340728953298436,77.50000012546401,0,90,3.0,3,2.586886855929198e-09
3.965,0.09979255396093453,77.50000006685839,0,90,3.0,3,1.3785235221371999e-09
3.97,0.14343835518453557,77.50000003525047,0,90,3.0,3,7.268137248980359e-10
3.975,0.18829581417209276,77.50000001838849,0,90,3.0,3,3.791441387650209e-10
3.98,0.2257481735193119,77.50000000949072,0,90,3.0,3,1.9568493446490017e-10
3.985,0.24718154073554727,77.50000000484647,0,90,3.0,3,9.99272142695359e-11
3.99,0.24718154074102772,77.50000000244863,0,90,3.0,3,5.048721120437756e-11
3.995,0.22574817354072055,77.50000000122404,0,90,3.0,3,2.5237891959571327e-11
4.0,0.18829581422840957,77.50000000060538,0,90,3.0,3,1.2482111564280523e-11
4.005,0.14343835532456656,77.50000000029624,0,90,3.0,3,6.108030461713422e-12
4.01,0.09979255431561854,77.50000000014343,0,90,3.0,3,2.9573228173305944e-12
4.015,0.06340729067170194,77.50000000006871,0,90,3.0,3,1.4166903618144677e-12
4.02,0.03679497683410042,77.50000000003256,0,90,3.0,3,6.712797557222225e-13
4.025,0.019500578284482293,77.50000000001526,0,90,3.0,3,3.146898549304526e-13
4.03,0.009439396781978427,77.50000000000708,0,90,3.0,3,1.4591764223032162e-13
4.035,0.004178588733610924,77.50000000000325,0,90,3.0,3,6.70986748408507e-14
4.04,0.0017299316936037381,77.50000000000148,0,90,3.0,3,3.047276062641254e-14
4.045,0.0008997325756988589,77.50000000000067,0,90,3.0,3,1.3771343744628746e-14
4.05,0.001634769674224814,77.5000000000003,0,90,3.0,3,6.15315358802561e-15
4.055,0.00614904736476635,77.50000000000013,0,90,3.0,3,2.637065823439547e-15
4.06,0.02168080359963608,77.50000000000006,0,90,3.0,3,1.172029254862021e-15
4.065,0.06433400338904088,77.50000000000003,0,90,3.0,3,5.860146274310105e-16
4.07,0.1593410769217493,77.50000000000001,0,90,3.0,3,2.9300731371550523e-16
4.075,0.3291989194808569,77.5,0,90,3.0,3,0.0
4.08,0.5672906802982638,77.5,0,90,3.0,3,0.0
4.085,0.815339152120446,77.5,0,90,3.0,3,0.0
4.09,0.9768711246313155,77.50000286147238,1,90,3.0,3,5.899943055072109e-08
4.095,0.9726380909165361,77.50000643031504,0,90,3.0,3,1.3258381524848898e-07
4.1,0.7921091683291741,77.50001602356085,0,90,3.0,3,3.3038269785935983e-07
4.105,0.49139090102639077,77.50004671429919,0,90,3.0,3,9.631814265569268e-07
4.11,0.15739335672107918,77.50015738611312,0,90,3.0,3,3.2450744972439427e-06
4.115,-0.11102342218909485,77.50056956865102,0,90,3.0,3,1.1743683526114201e-05
4.12,-0.2314207883647528,77.50205872285959,0,90,3.0,3,4.244789401210705e-05
4.125,-0.2029124434754801,77.50711116552654,0,90,3.0,3,0.0001466219696193473
4.13,-0.11151350554305876,77.52296955242042,0,90,3.0,3,0.00047359901897773844
4.135,-0.039430666652076896,77.56869537791867,0,90,3.0,3,0.001416399544714893
4.14,-0.006087703519843621,77.6893694725847,0,90,3.0,3,0.003904525207931985
4.145,0.005350271385530551,77.98016544551288,0,90,3.0,3,0.009900318464183117
4.15,0.010381647827441833,78.61875041232682,0,90,3.0,3,0.023067018810862233
4.155,0.015115203303506243,79.8939715754043,0,90,3.0,3,0.04936023866812977
4.16,0.021170964062928475,82.20366413076694,0,90,3.0,3,0.09698276558282347
4.165,0.029082821134029553,85.98451522918705,0,90,3.0,3,0.17493845833375368
4.17,0.03923107061708144,91.54955280762134,0,90,3.0,3,0.28968150118806885
4.175,0.051969043308817596,98.85661434129534,0,90,3.0,3,0.44034256373804825
4.18,0.06760532616283861,107.30170145710002,0,90,3.0,3,0.6144680712804128
4.185,0.08636519236693461,115.67762913528507,0,90,3.0,3,0.7871676110368057
4.19,0.10834733138818661,122.40352694847785,0,90,3.0,3,0.9258459164634607
4.195,0.1334809643017884,126.0,0,90,3.0,3,1.0
4.2,0.16148868344343945,125.6237265700328,0,90,3.0,3,0.99224178494913
4.205,0.191860907532018,121.39979325938553,0,90,3.0,3,0.9051503764821759
4.21,0.22384764873847726,114.37454614354749,0,90,3.0,3,0.7602999204855153
4.215,0.25647215537198226,106.11449932195801,0,90,3.0,3,0.5899896767414022
4.22,0.2885689161419028,98.16219331004636,0,90,3.0,3,0.4260246043308528
4.225,0.31884566517832524,91.60625907428093,0,90,3.0,3,0.29085070256249335
4.23,0.3459657668955683,86.91782916970048,0,90,3.0,3,0.1941820447360924
4.235,0.3686441789190902,84.04177366996966,0,90,3.0,3,0.13488193133958057
4.24,0.3857476379544367,82.6199744040074,0,90,3.0,3,0.10556648255685348
4.245,0.3963882865005728,82.21169634926446,0,90,3.0,3,0.09714837833534963
4.25,0.4,82.43368714544953,0,90,3.0,3,0.10172550815359846
4.255,0.39638828650057273,83.01092387241734,0,90,3.0,3,0.11362729633850178
4.26,0.38574763795443656,83.76842012171223,0,90,3.0,3,0.1292457757054067
4.265,0.36864417891908974,84.60027964031016,0,90,3.0,3,0.14639751835691056
4.27,0.345965766895568,85.43965053815435,0,90,3.0,3,0.16370413480730625
4.275,0.3188456651783249,86.23859493480165,0,90,3.0,3,0.18017721515054957
4.28,0.28856891614190205,86.95784341756,0,90,3.0,3,0.195007080774433
4.285,0.2564721553719815,87.56321377850728,0,90,3.0,3,0.20748894388674796
4.29,0.22384764873847685,88.02554015144813,0,90,3.0,3,0.21702144642161086
4.295,0.19186090753201765,88.32200059607175,0,90,3.0,3,0.2231340329086958
4.3,0.16148868344343878,88.43766023924857,0,90,3.0,3,0.22551876781955818
4.305,0.1334809643017881,88.36662409023404,0,90,3.0,3,0.22405410495327918
4.31,0.10834733138818531,88.11251030447086,0,90,3.0,3,0.2188146454530074
4.315,0.08636519236690572,87.68813892931065,0,90,3.0,3,0.21006472019197225
4.32,0.06760532616242629,87.11445878807311,0,90,3.0,3,0.19823626367161049
4.325,0.05196904332202373,86.41883389229734,0,90,3.0,3,0.18389348231540914
4.33,0.03923107185803287,85.63288363574678,0,90,3.0,3,0.16768832238653153
4.335,0.02908287038705761,84.79011352021107,0,90,3.0,3,0.15031161897342402
4.34,0.02117220077308346,83.92358201306487,0,90,3.0,3,0.13244498996010048
4.345,0.0151361834125735,83.06382555867302,0,90,3.0,3,0.11471805275614468
4.35,0.010626454858290009,82.237213810056,0,90,3.0,3,0.0976745115475465
4.355,0.007326255555493652,81.4648404710993,0,90,3.0,3,0.08174928806390296
4.36,0.004960179211183015,80.76198303863183,0,90,3.0,3,0.06725738223983145
4.365,0.0032978759379303545,80.13809802541604,0,90,3.0,3,0.05439377371991839
4.37,0.002153242296767213,79.59726548098745,0,90,3.0,3,0.04324258723685455
4.375,0.001380616732225004,79.13896295869348,0,90,3.0,3,0.03379305069471099
4.38,0.0008693106590991584,78.75903591144294,0,90,3.0,3,0.025959503328720334
4.385,0.000537524815942247,78.45073689217752,0,90,3.0,3,0.01960282251912406
4.39,0.0003263951340288585,78.20572552418115,0,90,3.0,3,0.014551041735693764
4.395,0.00019463030985187395,78.01494939598365,0,90,3.0,3,0.010617513319250496
4.4,0.00011397219555062695,77.86935716726427,0,90,3.0,3,0.007615611696170496
4.405,6.55403863487943e-05,77.76042445150269,0,90,3.0,3,0.005369576319643017
4.41,3.701184389455385e-05,77.6804971027044,0,90,3.0,3,0.003721589746482337
4.415,2.0525516217290957e-05,77.62297362115011,0,90,3.0,3,0.0025355385804146213
4.42,1.1178128483661116e-05,77.58235821739022,0,90,3.0,3,0.0016981075750561324
4.425,5.978135409912517e-06,77.55421945698698,0,90,3.0,3,0.0011179269481852564
4.43,3.1396702713238487e-06,77.53508784042593,0,90,3.0,3,0.000723460627338773
4.435,1.6192875458531019e-06,77.52232088265596,0,90,3.0,3,0.00046022438465899646
4.44,8.201353897972012e-07,77.51395787610456,0,90,3.0,3,0.0002877912598877436
4.445,4.0791415086824765e-07,77.5085798671513,0,90,3.0,3,0.00017690447734634122
4.45,1.9923866938774793e-07,77.50518435864147,0,90,3.0,3,0.00010689399260766869
4.455,9.556527981051257e-08,77.50307937628567,0,90,3.0,3,6.349229454987423e-05
4.46,4.501406988770349e-08,77.50179797535345,0,90,3.0,3,3.707165677226221e-05
4.465,0.0,77.50103194834053,0,90,3.0,3,2.127728537165868e-05
4.47,0.0,77.50058221773374,0,90,3.0,3,1.2004489355390855e-05
4.475,0.0,77.5003228985922,0,90,3.0,3,6.657702932002816e-06
4.48,0.001684486749771458,77.50017603544532,0,90,3.0,3,3.629596810743848e-06
4.485,0.004172395771277602,77.50009433814766,0,90,3.0,3,1.9451164466327382e-06
4.49,0.009438687428818865,77.50004969673023,0,90,3.0,3,1.024674850096866e-06
4.495,0.019500507867137046,77.50002573484377,0,90,3.0,3,5.306153355508587e-07
4.5,0.03679496976339974,77.50001309991586,0,90,3.0,3,2.701013579670749e-07
4.505,0.06340728953298436,77.50000655494009,0,90,3.0,3,1.3515340383163833e-07
4.51,0.09979255396093453,77.50000322420165,0,90,3.0,3,6.647838451086856e-08
4.515,0.14343835518453557,77.50000155893825,0,90,3.0,3,3.214305672944525e-08
4.52,0.18829581417209276,77.50000074094997,0,90,3.0,3,1.5277319002071288e-08
4.525,0.2257481735193119,77.5000003461801,0,90,3.0,3,7.1377340510039594e-09
4.53,0.24718154073554727,77.50000015898955,0,90,3.0,3,3.2781350600811323e-09
4.535,0.24718154074102772,77.50000007177749,0,90,3.0,3,1.4799482967871357e-09
4.54,0.22574817354072055,77.5000000318538,0,90,3.0,3,6.567794097810695e-10
4.545,0.18829581422840957,77.50000001389593,0,90,3.0,3,2.8651397863625594e-10
4.55,0.14343835532456656,77.50000000595891,0,90,3.0,3,1.2286411979449936e-10
4.555,0.09979255431561854,77.50000000251188,0,90,3.0,3,5.1791386757725276e-11
4.56,0.06340729067170194,77.50000000104085,0,90,3.0,3,2.146073467846475e-11
4.565,0.03679497683410042,77.50000000042395,0,90,3.0,3,8.741287190074668e-12
4.57,0.019500578284482293,77.50000000016975,0,90,3.0,3,3.49997236233171e-12
4.575,0.009439396781978427,77.50000000006682,0,90,3.0,3,1.3777203890903055e-12
4.58,0.004178588733610924,77.50000000002585,0,90,3.0,3,5.32980303648504e-13
4.585,0.0017299316936037381,77.50000000000983,0,90,3.0,3,2.0276106109112963e-13
4.59,0.0008997325756988589,77.50000000000368,0,90,3.0,3,7.588889425231585e-14
4.595,0.001634769674224814,77.50000000000135,0,90,3.0,3,2.7835694802972996e-14
4.6,0.00614904736476635,77.50000000000048,0,90,3.0,3,9.962248666327177e-15
4.605,0.02168080359963608,77.50000000000017,0,90,3.0,3,3.516087764586063e-15
4.61,0.06433400338904088,77.50000000000006,0,90,3.0,3,1.172029254862021e-15
4.615,0.1593410769217493,77.50000000000001,0,90,3.0,3,2.9300731371550523e-16
4.62,0.3291989194808569,77.5,0,90,3.0,3,0.0
4.625,0.5672906802982638,77.5,0,90,3.0,3,0.0
4.63,0.815339152120446,77.5,0,90,3.0,3,0.0
4.635,0.9768711246313155,77.5000028575978,1,90,3.0,3,5.8919542399643876e-08
4.64,0.9726380909165361,77.50000575945259,0,90,3.0,3,1.1875159982045045e-07
4.645,0.7921091683291741,77.50001247170877,0,90,3.0,3,2.571486344639141e-07
4.65,0.49139090102639077,77.5000302285082,0,90,3.0,3,6.232682101925974e-07
4.655,0.15739335672107918,77.50008277928515,0,90,3.0,3,1.7067893845565196e-06
4.66,-0.11102342218909485,77.50024711032393,0,90,3.0,3,5.095058225275896e-06
4.665,-0.2314207883647528,77.500761906128,0,90,3.0,3,1.570940470114036e-05
4.67,-0.2029124434754801,77.50232367895711,0,90,3.0,3,4.791090633219581e-05
4.675,-0.11151350554305876,77.50682980175638,0,90,3.0,3,0.00014082065477076134
4.68,-0.039430666652076896,77.5190818325946,0,90,3.0,3,0.00039343984731121776
4.685,-0.006087703519843621,77.55032658431828,0,90,3.0,3,0.0010376615323357632
4.69,0.005350271385530551,77.62486111399137,0,90,3.0,3,0.00257445595858499
4.695,0.010381647827441833,77.79089628192624,0,90,3.0,3,0.0059978614830151974
4.7,0.015115203303506243,78.13581030968653,0,90,3.0,3,0.013109490921371826
4.705,0.021170964062928475,78.80310418498046,0,90,3.0,3,0.02686812752537021
4.71,0.029082821134029553,80.0036503319219,0,90,3.0,3,0.05162165632828667
4.715,0.03923107061708144,82.00862464608667,0,90,3.0,3,0.09296133290900357
4.72,0.051969043308817596,85.1094351581589,0,90,3.0,3,0.15689557027131756
4.725,0.06760532616283861,89.53588442832962,0,90,3.0,3,0.24816256553256955
4.73,0.08636519236693461,95.34067984553826,0,90,3.0,3,0.36784906898017034
4.735,0.10834733138818661,102.2828802504138,0,90,3.0,3,0.5109872216580165
4.74,0.1334809643017884,109.76314796610146,0,90,3.0,3,0.6652195456928135
4.745,0.16148868344343945,116.8635603773981,0,90,3.0,3,0.8116198015958371
4.75,0.191860907532018,122.51408790040378,0,90,3.0,3,0.9281255237196656
4.755,0.22384764873847726,125.75350534267997,0,90,3.0,3,0.9949176359315458
4.76,0.25647215537198226,126.0,0,90,3.0,3,1.0
4.765,0.2885689161419028,123.22762570772198,0,90,3.0,3,0.9428376434581852
4.77,0.31884566517832524,117.97571147104895,0,90,3.0,3,0.8345507519803907
4.775,0.3459657668955683,111.18720976466966,0,90,3.0,3,0.6945816446323642
4.78,0.3686441789190902,103.94297749733238,0,90,3.0,3,0.5452160308728325
4.785,0.3857476379544367,97.19497900171685,0,90,3.0,3,0.4060820412725123
4.79,0.3963882865005728,91.58715852017986,0,90,3.0,3,0.2904568767047393
4.795,0.4,87.40231943688003,0,90,3.0,3,0.20417153478103164
4.8,0.39638828650057273,84.61776733767618,0,90,3.0,3,0.14675808943662236
4.805,0.38574763795443656,83.01870255620567,0,90,3.0,3,0.11378768157125088
4.81,0.36864417891908974,82.31532374904685,0,90,3.0,3,0.09928502575354338
4.815,0.345965766895568,82.22852513749818,0,90,3.0,3,0.0974953636597563
4.82,0.3188456651783249,82.53379724975913,0,90,3.0,4,0.10378963401565221
4.825,0.28856891614190205,83.07090796955741,0,90,3.0,4,0.11486408184654455
4.83,0.2564721553719815,83.73393365366984,0,90,3.0,4,0.12853471450865642
4.835,0.22384764873847685,84.45472567769907,0,90,3.0,4,0.1433964057257541
4.84,0.19186090753201765,85.18779931345597,0,90,3.0,4,0.15851132605063853
4.845,0.16148868344343878,85.89973780936282,0,90,3.0,4,0.1731904702961406
4.85,0.1334809643017881,86.56315147784285,0,90,3.0,4,0.18686910263593506
4.855,0.10834733138818531,87.15399280259183,0,90,3.0,4,0.1990513979915841
4.86,0.08636519236690572,87.65090403830237,0,90,3.0,4,0.20929699048046127
4.865,0.06760532616242629,88.03559075757407,0,90,3.0,4,0.21722867541389834
4.87,0.05196904332202373,88.2935803580661,0,90,3.0,4,0.22254804861991948
4.875,0.03923107185803287,88.41499512294472,0,90,3.0,4,0.22505144583391168
4.88,0.02908287038705761,88.3951361310454,0,90,3.0,4,0.2246419820834104
4.885,0.02117220077308346,88.23477150863336,0,90,3.0,4,0.22133549502336822
4.89,0.0151361834125735,87.94008324256698,0,90,3.0,4,0.2152594483003502
4.895,0.010626454858290009,87.52227066579813,0,90,3.0,4,0.20664475599583776
4.9,0.007326255555493652,86.99684394559772,0,90,3.0,4,0.19581121537314883
4.905,0.004960179211183015,86.38266910719653,0,90,3.0,4,0.18314781664322752
4.91,0.0032978759379303545,85.70084635302014,0,90,3.0,4,0.16908961552618845
4.915,0.002153242296767213,84.97351438020993,0,90,3.0,4,0.15409308000432853
4.92,0.001380616732225004,84.22267447021218,0,90,3.0,4,0.13861184474664295
4.925,0.0008693106590991584,83.46911983680923,0,90,3.0,4,0.12307463581049953
4.93,0.000537524815942247,82.73153966075022,0,90,3.0,4,0.10786679712887041
4.935,0.0003263951340288585,82.02584581584142,0,90,3.0,4,0.09331640857404992
4.94,0.00019463030985187395,81.36474634664565,0,90,3.0,4,0.07968549168341538
4.945,0.00011397219555062695,80.75756615651035,0,90,3.0,4,0.06716631250536804
4.95,6.55403863487943e-05,80.21029461204587,0,90,3.0,4,0.05588236313496642
4.955,3.701184389455385e-05,79.72582372581968,0,90,3.0,4,0.04589327269731299
4.96,2.0525516217290957e-05,79.30433029623575,0,90,3.0,4,0.037202686520324685
4.965,1.1178128483661116e-05,78.94375108500397,0,90,3.0,4,0.02976806360832922
4.97,5.978135409912517e-06,78.6403012861791,0,90,3.0,4,0.023511366725342178
4.975,3.1396702713238487e-06,78.38899212332203,0,90,3.0,4,0.01832973450148508
4.98,1.6192875458531019e-06,78.18411201851102,0,90,3.0,4,0.014105402443526096
4.985,8.201353897972012e-07,78.01964593661293,0,90,3.0,4,0.010714349208514058
4.99,4.0791415086824765e-07,77.88961786250023,0,90,3.0,4,0.008033357989695478
4.995,1.9923866938774793e-07,77.78835082046433,0,90,3.0,4,0.00594537774153259
5.0,9.556527981051257e-08,77.71064663791375,0,90,3.0,4,0.004343229647706275
5.005,4.501406988770349e-08,77.65189339194916,0,90,3.0,4,0.003131822514415644
5.01,0.0,77.60811208361164,0,90,3.0,4,0.002229115126013279
5.015,0.0,77.57595574061222,0,90,3.0,4,0.0015660977445817639
5.02,0.0,77.55267420338132,0,90,3.0,4,0.0010860660490992786
5.025,0.0,77.53605673168623,0,90,3.0,4,0.0007434377667263946
5.03,0.0,77.5243627185632,0,90,3.0,4,0.0005023240940865256
5.035,0.0,77.5162486074524,0,90,3.0,4,0.00033502283407003855
5.04,0.0,77.51069689058352,0,90,3.0,4,0.00022055444502097765
5.045,0.0,77.50695104289521,0,90,3.0,4,0.00014332047206618516
5.05,0.0,77.50445854743928,0,90,3.0,4,9.192881318112667e-05
5.055,0.0,77.50282285014478,0,90,3.0,4,5.820309576868745e-05
5.06,0.0,77.50176414087863,0,90,3.0,4,3.6374038734734734e-05
5.065,0.0,77.50108825259593,0,90,3.0,4,2.243819785432147e-05
5.07,0.0,77.50066263926765,0,90,3.0,4,1.3662665312272252e-05
5.075,0.0,77.5003982682018,0,90,3.0,4,8.21171550115913e-06
5.08,0.0,77.50023627899034,0,90,3.0,4,4.871731759648515e-06
5.085,0.0,77.50013836478986,0,90,3.0,4,2.8528822651972487e-06
5.09,0.0,77.50007997920402,0,90,3.0,4,1.6490557529262322e-06
5.095,0.0,77.50004563305828,0,90,3.0,4,9.408877995437504e-07
5.1,0.0,77.50002569999755,0,90,3.0,4,5.298968567120065e-07
5.105,0.001684486749771458,77.50001428688657,0,90,3.0,4,2.9457498078382865e-07
5.11,0.004172395771277602,77.50000783958583,0,90,3.0,4,1.6164094502753344e-07
5.115,0.009438687428818865,77.50000424619222,0,90,3.0,4,8.755035503444439e-08
5.12,0.019500507867137046,77.50000227016378,0,90,3.0,4,4.68075005376226e-08
5.125,0.03679496976339974,77.5000011980246,0,90,3.0,4,2.4701538262720017e-08
5.13,0.06340728953298436,77.50000062405849,0,90,3.0,4,1.2867185292053205e-08
5.135,0.09979255396093453,77.50000032087499,0,90,3.0,4,6.61597915055121e-09
5.14,0.14343835518453557,77.50000016285362,0,90,3.0,4,3.3578066787535154e-09
5.145,0.18829581417209276,77.50000008158494,0,90,3.0,4,1.682163778260127e-09
5.15,0.2257481735193119,77.50000004034351,0,90,3.0,4,8.318249090678495e-10
5.155,0.24718154073554727,77.50000001969192,0,90,3.0,4,4.060190625863207e-10
5.16,0.24718154074102772,77.50000000948755,0,90,3.0,4,1.956195938339416e-10
5.165,0.22574817354072055,77.50000000451202,0,90,3.0,4,9.303128714124149e-11
5.17,0.18829581422840957,77.50000000211806,0,90,3.0,4,4.367127507272748e-11
5.175,0.14343835532456656,77.50000000098143,0,90,3.0,4,2.0235671099820222e-11
5.18,0.09979255431561854,77.50000000044888,0,90,3.0,4,9.255222018331663e-12
5.185,0.06340729067170194,77.50000000020265,0,90,3.0,4,4.178284293583105e-12
5.19,0.03679497683410042,77.50000000009031,0,90,3.0,4,1.862061478662036e-12
5.195,0.019500578284482293,77.50000000003972,0,90,3.0,4,8.189554418348371e-13
5.2,0.009439396781978427,77.50000000001725,0,90,3.0,4,3.5571087885062335e-13
5.205,0.004178588733610924,77.50000000000739,0,90,3.0,4,1.523638031320627e-13
5.21,0.0017299316936037381,77.50000000000313,0,90,3.0,4,6.446160901741115e-14
5.215,0.0008997325756988589,77.50000000000131,0,90,3.0,4,2.695667286182648e-14
5.22,0.001634769674224814,77.50000000000054,0,90,3.0,4,1.1134277921189199e-14
5.225,0.00614904736476635,77.50000000000021,0,90,3.0,4,4.395109705732579e-15
5.23,0.02168080359963608,77.50000000000009,0,90,3.0,4,1.7580438822930315e-15
5.235,0.06433400338904088,77.50000000000003,0,90,3.0,4,5.860146274310105e-16
5.24,0.1593410769217493,77.50000000000001,0,90,3.0,4,2.9300731371550523e-16
5.245,0.3291989194808569,77.5,0,90,3.0,4,0.0
5.25,0.5672906802982638,77.5,0,90,3.0,4,0.0
5.255,0.815339152120446,77.5,0,90,3.0,4,0.0
5.26,0.9768711246313155,77.50000284359693,1,90,3.0,4,5.8630864561995826e-08
5.265,0.9726380909165361,77.50000548419933,0,90,3.0,4,1.1307627494144193e-07
5.27,0.7921091683291741,77.50001124088986,0,90,3.0,4,2.317709249813767e-07
5.275,0.49139090102639077,77.50002536697961,0,90,3.0,4,5.230305075000024e-07
5.28,0.15739335672107918,77.50006389056809,0,90,3.0,4,1.3173313007395262e-06
5.285,-0.11102342218909485,77.50017550461766,0,90,3.0,4,3.6186519104816886e-06
5.29,-0.2314207883647528,77.50050312573545,0,90,3.0,4,1.037372650410024e-05
5.295,-0.2029124434754801,77.50144560488555,0,90,3.0,4,2.9806286299926985e-05
5.3,-0.11151350554305876,77.50405253381912,0,90,3.0,4,8.355739833237495e-05
5.305,-0.039430666652076896,77.51091584732082,0,90,3.0,4,0.0002250690169240588
5.31,-0.006087703519843621,77.52802210333864,0,90,3.0,4,0.0005777753265699489
5.315,0.005350271385530551,77.56826624200473,0,90,3.0,4,0.0014075513815407234
5.32,0.010381647827441833,77.65747108052543,0,90,3.0,4,0.003246826402586094
5.325,0.015115203303506243,77.84353029025743,0,90,3.0,4,0.007083098768194506
5.33,0.021170964062928475,78.208294728616,0,90,3.0,4,0.014604015023010236
5.335,0.029082821134029553,78.87971080766134,0,90,3.0,4,0.02844764551879051
5.34,0.03923107061708144,80.03860769687986,0,90,3.0,4,0.052342426739791025
5.345,0.051969043308817596,81.9114678020172,0,90,3.0,4,0.0909580990106639
5.35,0.06760532616283861,84.73967911802492,0,90,3.0,4,0.14927173439226646
5.355,0.08636519236693461,88.71983424376735,0,90,3.0,4,0.23133678853128561
5.36,0.10834733138818661,93.92009701837561,0,90,3.0,4,0.3385587014098065
5.365,0.1334809643017884,100.19265177353559,0,90,3.0,4,0.46788972728939354
5.37,0.16148868344343945,107.11553201194583,0,90,3.0,4,0.6106295260195017
5.375,0.191860907532018,113.99980843728613,0,90,3.0,4,0.7525733698409512
5.38,0.22384764873847726,119.98355460807562,0,90,3.0,4,0.8759495795479509
5.385,0.25647215537198226,124.2034706308707,0,90,3.0,4,0.9629581573375402
5.39,0.2885689161419028,126.0,0,90,3.0,4,1.0
5.395,0.31884566517832524,125.0896730388076,0,90,3.0,4,0.9812303719341774
5.4,0.3459657668955683,121.64309031720336,0,90,3.0,4,0.9101668106639867
5.405,0.3686441789190902,116.23941024525399,0,90,3.0,4,0.7987507267062679
5.41,0.3857476379544367,109.71438740562652,0,90,3.0,4,0.6642141733118871
5.415,0.3963882865005728,102.95711288915504,0,90,3.0,4,0.5248889255495884
5.42,0.4,96.72341910788755,0,90,3.0,4,0.39635915686366086
5.425,0.39638828650057273,91.51813811820595,0,90,3.0,4,0.28903377563311244
5.43,0.38574763795443656,87.5651096594767,0,90,3.0,4,0.2075280342160145
5.435,0.36864417891908974,84.85055753012354,0,90,3.0,4,0.15155788721904204
5.44,0.345965766895568,83.20599367449054,0,90,3.0,4,0.11764935411320707
5.445,0.3188456651783249,82.39522658019695,0,90,3.0,4,0.10093250680818448
5.45,0.28856891614190205,82.18134970860318,0,90,3.0,4,0.09652267440418925
5.455,0.2564721553719815,82.36490781207327,0,90,3.0,4,0.10030737756852103
5.46,0.22384764873847685,82.79649701173709,0,90,3.0,4,0.10920612395334202
5.465,0.19186090753201765,83.37281201706614,0,90,3.0,4,0.12108890756837398
5.47,0.16148868344343878,84.02539184144003,0,90,3.0,4,0.1345441616791758
5.475,0.1334809643017881,84.70859251846929,0,90,3.0,4,0.14863077357668636
5.48,0.10834733138818531,85.39005201648826,0,90,3.0,4,0.1626814848760465
5.485,0.08636519236690572,86.044472758779,0,90,3.0,4,0.17617469605729885
5.49,0.06760532616242629,86.65025529584166,0,90,3.0,4,0.1886650576462198
5.495,0.05196904332202373,87.18810890053072,0,90,3.0,4,0.19975482269135508
5.5,0.03923107185803287,87.64083038423249,0,90,3.0,4,0.2090892862728348
5.505,0.02908287038705761,87.99366494888493,0,90,3.0,4,0.21636422575020467
5.51,0.02117220077308346,88.23487689607546,0,90,3.0,4,0.2213376679603188
5.515,0.0151361834125735,88.35631072246048,0,90,3.0,4,0.2238414581950614
5.52,0.010626454858290009,88.35381801207184,0,90,3.0,4,0.22379006210457403
5.525,0.007326255555493652,88.22748246937488,0,90,3.0,4,0.22118520555412116
5.53,0.004960179211183015,87.98161207029037,0,90,3.0,4,0.21611571278949213
5.535,0.0032978759379303545,87.62449423525337,0,90,3.0,4,0.20875245845883228
5.54,0.002153242296767213,87.1679318019965,0,90,3.0,4,0.199338800041165
5.545,0.001380616732225004,86.62659553682514,0,90,3.0,4,0.18817722756340485
5.55,0.0008693106590991584,86.01724256371354,0,90,3.0,4,0.1756132487363616
5.555,0.000537524815942247,85.35785865287932,0,90,3.0,4,0.16201770418307868
5.56,0.0003263951340288585,84.66678530372789,0,90,3.0,4,0.1477687691490287
5.565,0.00019463030985187395,83.96189001381458,0,90,3.0,4,0.1332348456456615
5.57,0.00011397219555062695,83.25983064690726,0,90,3.0,4,0.11875939478159302
5.575,6.55403863487943e-05,82.57545348721757,0,90,3.0,4,0.10464852550964067
5.58,3.701184389455385e-05,81.92135081114074,0,90,3.0,4,0.09116187239465445
5.585,2.0525516217290957e-05,81.30758917718623,0,90,3.0,4,0.07850699334404598
5.59,1.1178128483661116e-05,80.74160562584288,0,90,3.0,4,0.06683722939882226
5.595,5.978135409912517e-06,80.22825686325584,0,90,3.0,4,0.05625271883001725
5.6,3.1396702713238487e-06,79.76999719568829,0,90,3.0,4,0.046804065890480216
5.605,1.6192875458531019e-06,79.36715499256925,0,90,3.0,4,0.03849804108390215
5.61,8.201353897972012e-07,79.01827487455601,0,90,3.0,4,0.03130463658878378
5.615,4.0791415086824765e-07,78.72049337182925,0,90,3.0,4,0.0251648117902938
5.62,1.9923866938774793e-07,78.46991891897598,0,90,3.0,4,0.01999832822630882
5.625,9.556527981051257e-08,78.26199201676988,0,90,3.0,4,0.015711175603502697
5.63,4.501406988770349e-08,78.09180740822781,0,90,3.0,4,0.01220221460263522
5.635,0.0,77.95438643595452,0,90,3.0,4,0.009368792493907593
5.64,0.0,77.8448937347729,0,90,3.0,4,0.007111211026245273
5.645,0.0,77.75879759554243,0,90,3.0,4,0.005336032897782116
5.65,0.0,77.69197742146481,0,90,3.0,4,0.003958297349789957
5.655,0.0,77.640784569316,0,90,3.0,4,0.0029027746250721038
5.66,0.0,77.60206455450907,0,90,3.0,4,0.0021044238043107246
5.665,0.0,77.5731492398329,0,90,3.0,4,0.0015082317491319794
5.67,0.0,77.55182743021956,0,90,3.0,4,0.0010686068086507364
5.675,0.0,77.53630149568863,0,90,3.0,4,0.0007484844471883127
5.68,0.0,77.52513647346169,0,90,3.0,4,0.0005182778033337254
5.685,0.0,77.51720676241366,0,90,3.0,4,0.0003547786064673088
5.69,0.0,77.511644181374,0,90,3.0,4,0.00024008621389681167
5.695,0.0,77.50778993342809,0,90,3.0,4,0.00016061718408424248
5.7,0.0,77.50515197226336,0,90,3.0,4,0.00010622623223428528
5.705,0.0,77.50336843577756,0,90,3.0,4,6.945228407339903e-05
5.71,0.0,77.50217719842811,0,90,3.0,4,4.489068923947381e-05
5.715,0.0,77.50139117811788,0,90,3.0,4,2.868408490484136e-05
5.72,0.0,77.50087878462313,0,90,3.0,4,1.8119270579912145e-05
5.725,0.0,77.50054877857231,0,90,3.0,4,1.1315022109465176e-05
5.73,0.0,77.50033878707026,0,90,3.0,4,6.985300417782878e-06
5.735,0.0,77.50020676236647,0,90,3.0,4,4.263141576790151e-06
5.74,0.0,77.50012474729766,0,90,3.0,4,2.5721092301349007e-06
5.745,0.0,77.50007440562757,0,90,3.0,4,1.5341366509712372e-06
5.75,0.0,77.5000438728055,0,90,3.0,4,9.045939279563829e-07
5.755,0.0,77.50002557407974,0,90,3.0,4,5.273006132535284e-07
5.76,0.0,77.50001473735715,0,90,3.0,4,3.038630339786548e-07
5.765,0.0,77.50000839564733,0,90,3.0,4,1.7310613046545994e-07
5.77,0.001684486749771458,77.50000472828614,0,90,3.0,4,9.74904359394451e-08
5.775,0.004172395771277602,77.50000263249952,0,90,3.0,4,5.4278340539238665e-08
5.78,0.009438687428818865,77.50000144893144,0,90,3.0,4,2.987487510067366e-08
5.785,0.019500507867137046,77.50000078839227,0,90,3.0,4,1.6255510733581387e-08
5.79,0.03679496976339974,77.50000042408398,0,90,3.0,4,8.743999558777732e-09
5.795,0.06340728953298436,77.50000022551548,0,90,3.0,4,4.649803676113958e-09
5.8,0.09979255396093453,77.5000001185539,0,90,3.0,4,2.4444102915911515e-09
5.805,0.14343835518453557,77.50000006161271,0,90,3.0,4,1.270365146410768e-09
5.81,0.18829581417209276,77.5000000316548,0,90,3.0,4,6.526764283671113e-10
5.815,0.2257481735193119,77.5000000160777,0,90,3.0,4,3.3149909850368374e-10
5.82,0.24718154073554727,77.50000000807279,0,90,3.0,4,1.664492507169945e-10
5.825,0.24718154074102772,77.50000000400718,0,90,3.0,4,8.262220232149817e-11
5.83,0.22574817354072055,77.50000000196638,0,90,3.0,4,4.054400801344189e-11
5.835,0.18829581422840957,77.50000000095392,0,90,3.0,4,1.9668408940467004e-11
5.84,0.14343835532456656,77.50000000045748,0,90,3.0,4,9.432491443129545e-12
5.845,0.09979255431561854,77.50000000021689,0,90,3.0,4,4.471877621926041e-12
5.85,0.06340729067170194,77.50000000010165,0,90,3.0,4,2.095881315007009e-12
5.855,0.03679497683410042,77.5000000000471,0,90,3.0,4,9.710262376531843e-13
5.86,0.019500578284482293,77.50000000002157,0,90,3.0,4,4.4478510222013693e-13
5.865,0.009439396781978427,77.50000000000976,0,90,3.0,4,2.0129602452255209e-13
5.87,0.004178588733610924,77.50000000000438,0,90,3.0,4,9.02462526243756e-14
5.875,0.0017299316936037381,77.50000000000193,0,90,3.0,4,3.984899466530871e-14
5.88,0.0008997325756988589,77.50000000000085,0,90,3.0,4,1.7580438822930315e-14
5.885,0.001634769674224814,77.50000000000037,0,90,3.0,4,7.618190156603136e-15
5.89,0.00614904736476635,77.50000000000016,0,90,3.0,4,3.2230804508705575e-15
5.895,0.02168080359963608,77.50000000000007,0,90,3.0,4,1.465036568577526e-15
5.9,0.06433400338904088,77.50000000000003,0,90,3.0,4,5.860146274310105e-16
5.905,0.1593410769217493,77.50000000000001,0,90,3.0,4,2.9300731371550523e-16
5.91,0.3291989194808569,77.5,0,90,3.0,4,0.0
5.915,0.5672906802982638,77.5,0,90,3.0,4,0.0
5.92,0.815339152120446,77.5,0,90,3.0,4,0.0
5.925,0.9768711246313155,77.50000284586159,1,90,3.0,4,5.8677558500516847e-08
5.93,0.9726380909165361,77.50000607395938,0,90,3.0,4,1.2523627594756484e-07
5.935,0.7921091683291741,77.50001414975088,0,90,3.0,4,2.9174744086799133e-07
5.94,0.49139090102639077,77.50003774688028,0,90,3.0,4,7.782861913612353e-07
5.945,0.15739335672107918,77.500115316467,0,90,3.0,4,2.3776591134621187e-06
5.95,-0.11102342218909485,77.50038193899846,0,90,3.0,4,7.875030896051725e-06
5.955,-0.2314207883647528,77.50128513772876,0,90,3.0,4,2.6497685129020422e-05
5.96,-0.2029124434754801,77.50420106011745,0,90,3.0,4,8.661979623613342e-05
5.965,-0.11151350554305876,77.5130256934612,0,90,3.0,4,0.0002685709992000429
5.97,-0.039430666652076896,77.53786196262558,0,90,3.0,4,0.0007806590232079187
5.975,-0.006087703519843621,77.60260192062486,0,90,3.0,4,0.0021155035180384207
5.98,0.005350271385530551,77.75852362014285,0,90,3.0,4,0.005330383920471194
5.985,0.010381647827441833,78.10487622432902,0,90,3.0,4,0.01247167472843337
5.99,0.015115203303506243,78.81329977645272,0,90,3.0,4,0.027078345906241717
5.995,0.021170964062928475,80.145086141204,0,90,3.0,4,0.05453785858152586
6.0,0.029082821134029553,82.4409718211188,0,90,3.0,4,0.10187570765193389
6.005,0.03923107061708144,86.05928105043185,0,90,3.0,4,0.17648002165838864
6.01,0.051969043308817596,91.2496597082909,0,90,3.0,4,0.2834981383152764
6.015,0.06760532616283861,97.9817859100092,0,90,3.0,4,0.4223048641239009
6.02,0.08636519236693461,105.79226260767271,0,90,3.0,4,0.5833456207767569
6.025,0.10834733138818661,113.74152810943451,0,90,3.0,5,0.7472480022563817
6.03,0.1334809643017884,120.55428234773409,0,90,3.0,5,0.8877171618089502
6.035,0.16148868344343945,124.94140906395694,0,90,3.0,5,0.9781733827619987
6.04,0.191860907532018,126.0,0,90,3.0,5,1.0
6.045,0.22384764873847726,123.52338133034326,0,90,3.0,5,0.9489356975328507
6.05,0.25647215537198226,118.07639781402526,0,90,3.0,5,0.8366267590520672
6.055,0.2885689161419028,110.79940800075586,0,90,3.0,5,0.6865857319743477
6.06,0.31884566517832524,103.03487075863387,0,90,3.0,5,0.5264921805903892
6.065,0.3459657668955683,95.94429841424011,0,90,3.0,5,0.3802948126647445
6.07,0.3686441789190902,90.2626013354371,0,90,3.0,5,0.2631464192873628
6.075,0.3857476379544367,86.24702551304469,0,90,3.0,5,0.1803510415060761
6.08,0.3963882865005728,83.78185040445095,0,90,3.0,5,0.12952268875156597
6.085,0.4,82.54963637113546,0,90,3.0,5,0.1041162138378446
6.09,0.39638828650057273,82.18634243383278,0,90,3.0,5,0.0966256171924284
6.095,0.38574763795443656,82.3774367104458,0,90,3.0,5,0.10056570537001663
6.1,0.36864417891908974,82.8929218361134,0,90,3.0,5,0.111194264662132
6.105,0.345965766895568,83.58184221421544,0,90,3.0,5,0.12539880854052457
6.11,0.3188456651783249,84.3500335133804,0,90,3.0,5,0.1412378043995958
6.115,0.28856891614190205,85.13731939707576,0,90,3.0,5,0.15747050303248983
6.12,0.2564721553719815,85.90112483967476,0,90,3.0,5,0.1732190688592735
6.125,0.22384764873847685,86.60725888394899,0,90,3.0,5,0.18777853368966982
6.13,0.19186090753201765,87.22600098303674,0,90,3.0,5,0.20053610274302558
6.135,0.16148868344343878,87.73129427857432,0,90,3.0,5,0.21095452120771804
6.14,0.1334809643017881,88.10140680065318,0,90,3.0,5,0.21858570722996248
6.145,0.10834733138818531,88.32006084897934,0,90,3.0,5,0.22309403812328532
6.15,0.08636519236690572,88.37748176745886,0,90,3.0,5,0.22427797458678062
6.155,0.06760532616242629,88.27108106749418,0,90,3.0,5,0.22208414572152949
6.16,0.05196904332202373,88.00563854852327,0,90,3.0,5,0.2166111040932632
6.165,0.03923107185803287,87.59294335966689,0,90,3.0,5,0.20810192494158536
6.17,0.02908287038705761,87.05092505826738,0,90,3.0,5,0.19692628986118313
6.175,0.02117220077308346,86.40236216625274,0,90,3.0,5,0.1835538590979947
6.18,0.0151361834125735,85.67329734339388,0,90,3.0,5,0.16852159470915223
6.185,0.010626454858290009,84.89131240569297,0,90,3.0,5,0.15239819393181386
6.19,0.007326255555493652,84.08382135764072,0,90,3.0,5,0.1357488939719735
6.195,0.004960179211183015,83.2765260683795,0,90,3.0,5,0.1191036302758659
6.2,0.0032978759379303545,82.49215034587014,0,90,3.0,5,0.10293093496639472
6.205,0.002153242296767213,81.74952897269961,0,90,3.0,5,0.08761915407628057
6.21,0.001380616732225004,81.06308474959009,0,90,3.0,5,0.07346566494000184
6.215,0.0008693106590991584,80.44268468999192,0,90,3.0,5,0.06067391113385404
6.22,0.000537524815942247,79.8938312199177,0,90,3.0,5,0.049357344740571144
6.225,0.0003263951340288585,79.41811898180232,0,90,3.0,5,0.0395488449856149
6.23,0.00019463030985187395,79.01387417058143,0,90,3.0,5,0.031213900424359405
6.235,0.00011397219555062695,78.6768909812966,0,90,3.0,5,0.02426579342879576
6.24,6.55403863487943e-05,78.40118698283636,0,90,3.0,5,0.018581174903842562
6.245,3.701184389455385e-05,78.17971335755713,0,90,3.0,5,0.01401470840323987
6.25,2.0525516217290957e-05,78.00497388499059,0,90,3.0,5,0.010411832680218365
6.255,1.1178128483661116e-05,77.86952536337502,0,90,3.0,5,0.007619079657216875
6.26,5.978135409912517e-06,77.76634945109376,0,90,3.0,5,0.005491741259665147
6.265,3.1396702713238487e-06,77.6891000218534,0,90,3.0,5,0.0038989695227506396
6.27,1.6192875458531019e-06,77.63224022257143,0,90,3.0,5,0.0027266025272458896
6.275,8.201353897972012e-07,77.5910893878649,0,90,3.0,5,0.0018781317085545923
6.28,4.0791415086824765e-07,77.56180223984774,0,90,3.0,5,0.0012742729865512674
6.285,1.9923866938774793e-07,77.5413021696559,0,90,3.0,5,0.0008515911269259185
6.29,9.556527981051257e-08,77.52718777937379,0,90,3.0,5,0.0005605727705936087
6.295,4.501406988770349e-08,77.51762815365113,0,90,3.0,5,0.00036346708559033253
6.3,0.0,77.5112582823711,0,90,3.0,5,0.00023212953342478904
6.305,0.0,77.50708222412621,0,90,3.0,5,0.00014602523971562573
6.31,0.0,77.5043883313797,0,90,3.0,5,9.048105937527983e-05
6.315,0.0,77.5026783133365,0,90,3.0,5,5.522295539181287e-05
6.32,0.0,77.50161011009115,0,90,3.0,5,3.319814620927553e-05
6.325,0.0,77.50095341499808,0,90,3.0,5,1.9658041197514188e-05
6.33,0.0,77.50055608426527,0,90,3.0,5,1.1465654954018018e-05
6.335,0.0,77.50031947100895,0,90,3.0,5,6.587031112376187e-06
6.34,0.0,77.5001807817223,0,90,3.0,5,3.7274581918914056e-06
6.345,0.0,77.50010076502231,0,90,3.0,5,2.077629325982606e-06
6.35,0.001684486749771458,77.50005532192847,0,90,3.0,5,1.1406583189923789e-06
6.355,0.004172395771277602,77.50002991693071,0,90,3.0,5,6.168439322490738e-07
6.36,0.009438687428818865,77.50001593562055,0,90,3.0,5,3.285694959362745e-07
6.365,0.019500507867137046,77.50000836090221,0,90,3.0,5,1.7238973637364494e-07
6.37,0.03679496976339974,77.50000432085336,0,90,3.0,5,8.908976008232336e-08
6.375,0.06340728953298436,77.50000219947044,0,90,3.0,5,4.534990606180614e-08
6.38,0.09979255396093453,77.50000110280557,0,90,3.0,5,2.2738259165578842e-08
6.385,0.14343835518453557,77.50000054464309,0,90,3.0,5,1.1229754354363397e-08
6.39,0.18829581417209276,77.50000026494594,0,90,3.0,5,5.4628028652755864e-09
6.395,0.2257481735193119,77.5000001269506,0,90,3.0,5,2.6175380580096633e-09
6.4,0.24718154073554727,77.50000005991622,0,90,3.0,5,1.235385933299411e-09
6.405,0.24718154074102772,77.50000002785391,0,90,3.0,5,5.743075202115075e-10
6.41,0.22574817354072055,77.50000001275441,0,90,3.0,5,2.6297758014743055e-10
6.415,0.18829581422840957,77.50000000575264,0,90,3.0,5,1.186111186359188e-10
6.42,0.14343835532456656,77.50000000255568,0,90,3.0,5,5.269443529859646e-11
6.425,0.09979255431561854,77.50000000111835,0,90,3.0,5,2.3058796567469115e-11
6.43,0.06340729067170194,77.50000000048203,0,90,3.0,5,9.938808081229938e-12
6.435,0.03679497683410042,77.50000000020465,0,90,3.0,5,4.2195983248169905e-12
6.44,0.019500578284482293,77.50000000008558,0,90,3.0,5,1.7644900431947725e-12
6.445,0.009439396781978427,77.50000000003526,0,90,3.0,5,7.269511453281685e-13
6.45,0.004178588733610924,77.5000000000143,0,90,3.0,5,2.947653575977983e-13
6.455,0.0017299316936037381,77.50000000000571,0,90,3.0,5,1.1778894011363311e-13
6.46,0.0008997325756988589,77.50000000000225,0,90,3.0,5,4.6295155567049826e-14
6.465,0.001634769674224814,77.50000000000087,0,90,3.0,5,1.787344613664582e-14
6.47,0.00614904736476635,77.50000000000033,0,90,3.0,5,6.73916821545662e-15
6.475,0.02168080359963608,77.50000000000013,0,90,3.0,5,2.637065823439547e-15
6.48,0.06433400338904088,77.50000000000004,0,90,3.0,5,8.790219411465157e-16
6.485,0.1593410769217493,77.50000000000001,0,90,3.0,5,2.9300731371550523e-16
6.49,0.3291989194808569,77.5,0,90,3.0,5,0.0
6.495,0.5672906802982638,77.5,0,90,3.0,5,0.0
6.5,0.815339152120446,77.5,0,90,3.0,5,0.0
6.505,0.9768711246313155,77.5000028548974,1,90,3.0,5,5.88638639778624e-08
6.51,0.9726380909165361,77.50000578823352,0,90,3.0,5,1.1934502108675757e-07
6.515,0.7921091683291741,77.50001262810264,0,90,3.0,5,2.6037325027310855e-07
6.52,0.49139090102639077,77.50003090820933,0,90,3.0,5,6.372826665005257e-07
6.525,0.15739335672107918,77.50008560358823,0,90,3.0,5,1.7650224377768008e-06
6.53,-0.11102342218909485,77.50025836716078,0,90,3.0,5,5.327157954274505e-06
6.535,-0.2314207883647528,77.5008041613645,0,90,3.0,5,1.6580646690703568e-05
6.54,-0.2029124434754801,77.50247126404172,0,90,3.0,5,5.0953897767348064e-05
6.545,-0.11151350554305876,77.50730689455214,0,90,3.0,5,0.0001506576196318386
6.55,-0.039430666652076896,77.5205069404445,0,90,3.0,5,0.00042282351431970137
6.555,-0.006087703519843621,77.55425950392804,0,90,3.0,5,0.001118752658310044
6.56,0.005350271385530551,77.63489185005264,0,90,3.0,5,0.002781275258817309
6.565,0.010381647827441833,77.81454523632031,0,90,3.0,5,0.0064854687901095545
6.57,0.015115203303506243,78.18735131558363,0,90,3.0,5,0.014172192073889204
6.575,0.021170964062928475,78.90690312906386,0,90,3.0,5,0.0290083119394611
6.58,0.029082821134029553,80.19665089621222,0,90,3.0,5,0.05560104940643751
6.585,0.03923107061708144,82.3394503302051,0,90,3.0,5,0.09978248103515663
6.59,0.051969043308817596,85.63096269117817,0,90,3.0,5,0.1676487152820241
6.595,0.06760532616283861,90.289192542138,0,90,3.0,5,0.26369469159047415
6.6,0.08636519236693461,96.33177188866492,0,90,3.0,5,0.3882839564673179
6.605,0.10834733138818661,103.45891681158211,0,90,3.0,5,0.5352353981769508
6.61,0.1334809643017884,110.9995176060252,0,90,3.0,5,0.6907117032170143
6.615,0.16148868344343945,117.97323238137338,0,90,3.0,5,0.834499636729348
6.62,0.191860907532018,123.28391354021267,0,90,3.0,5,0.9439982173239725
6.625,0.22384764873847726,126.0,0,90,3.0,5,1.0
6.63,0.25647215537198226,125.62557935056012,0,90,3.0,5,0.9922799866094869
6.635,0.2885689161419028,122.25455536305012,0,90,3.0,5,0.9227743373824766
6.64,0.31884566517832524,116.54276293749618,0,90,3.0,5,0.8050054213916737
6.645,0.3459657668955683,109.50994041521005,0,90,3.0,5,0.65999877144763
6.65,0.3686441789190902,102.2541023356066,0,90,3.0,5,0.5103938625898269
6.655,0.3857476379544367,95.68811801633842,0,90,3.0,5,0.3750127426049159
6.66,0.3963882865005728,90.38254464538694,0,90,3.0,5,0.26561947722447304
6.665,0.4,86.54087148351628,0,90,3.0,5,0.1864097213096141
6.67,0.39638828650057273,84.07769605408464,0,90,3.0,5,0.13562259905329155
6.675,0.38574763795443656,82.74233353126162,0,90,3.0,5,0.10808935116003343
6.68,0.36864417891908974,82.23438029234443,0,90,3.0,5,0.09761608850194692
6.685,0.345965766895568,82.28110027391507,0,90,3.0,5,0.09857938709103242
6.69,0.3188456651783249,82.67183539468127,0,90,3.0,5,0.10663578133363437
6.695,0.28856891614190205,83.26062007974744,0,90,3.0,5,0.1187756717473699
6.7,0.2564721553719815,83.95261614042626,0,90,3.0,5,0.13304363176136613
6.705,0.22384764873847685,84.68676847196683,0,90,3.0,5,0.14818079323642946
6.71,0.19186090753201765,85.4214071227837,0,90,3.0,5,0.16332798191306608
6.715,0.16148868344343878,86.12483294458869,0,90,3.0,5,0.17783160710492144
6.72,0.1334809643017881,86.77033771939087,0,90,3.0,5,0.1911409839049663
6.725,0.10834733138818531,87.33426160838053,0,90,3.0,5,0.20276828058516555
6.73,0.08636519236690572,87.79577796985475,0,90,3.0,5,0.21228408185267533
6.735,0.06760532616242629,88.13748090634361,0,90,3.0,5,0.21932950322357964
6.74,0.05196904332202373,88.3462121999223,0,90,3.0,5,0.22363324123551145
6.745,0.03923107185803287,88.41381036420395,0,90,3.0,5,0.22502701781863824
6.75,0.02908287038705761,88.33761061002141,0,90,3.0,5,0.22345588886642093
6.755,0.02117220077308346,88.12061034529336,0,90,3.0,5,0.21898165660398675
6.76,0.0151361834125735,87.77127109249729,0,90,3.0,5,0.21177878541231518
6.765,0.010626454858290009,87.30297037121758,0,90,3.0,5,0.20212310043747594
6.77,0.007326255555493652,86.73315167105918,0,90,3.0,5,0.19037426125895207
6.775,0.004960179211183015,86.082247419666,0,90,3.0,5,0.17695355504465987
6.78,0.0032978759379303545,85.37246744218815,0,90,3.0,5,0.16231891633377635
6.785,0.002153242296767213,84.62655263484623,0,90,3.0,5,0.14693922958445843
6.79,0.001380616732225004,83.86659028643527,0,90,3.0,5,0.13126990281309833
6.795,0.0008693106590991584,83.11297475506075,0,90,3.0,5,0.11573143824867521
6.8,0.000537524815942247,82.38357719417918,0,90,3.0,5,0.10069231328204499
6.805,0.0003263951340288585,81.69316359266416,0,90,3.0,5,0.0864569812920446
6.81,0.00019463030985187395,81.0530746913213,0,90,3.0,5,0.07325927198600617
6.815,0.00011397219555062695,80.47115732979627,0,90,3.0,5,0.06126097587208804
6.82,6.55403863487943e-05,79.95191687655013,0,90,3.0,5,0.05055498714536349
6.825,3.701184389455385e-05,79.4968462077652,0,90,3.0,5,0.0411720867580454
6.83,2.0525516217290957e-05,79.10487892570814,0,90,3.0,5,0.03309028712800279
6.835,1.1178128483661116e-05,78.7729129708691,0,90,3.0,5,0.02624562826534228
6.84,5.978135409912517e-06,78.49635460193645,0,90,3.0,5,0.020543393854359708
6.845,3.1396702713238487e-06,78.26964053277798,0,90,3.0,5,0.01586887696449452
6.85,1.6192875458531019e-06,78.08670624839122,0,90,3.0,5,0.012097036049303579
6.855,8.201353897972012e-07,77.94137962031026,0,90,3.0,5,0.009100610728046552
6.86,4.0791415086824765e-07,77.82768957220783,0,90,3.0,5,0.006756486024903727
6.865,1.9923866938774793e-07,77.74008871515312,0,90,3.0,5,0.004950282786662284
6.87,9.556527981051257e-08,77.67359597640825,0,90,3.0,5,0.0035792984826443475
6.875,4.501406988770349e-08,77.62387005880147,0,90,3.0,5,0.002554021830958191
6.88,0.0,77.58722717633347,0,90,3.0,5,0.0017984984811024924
6.885,0.0,77.56061722705192,0,90,3.0,5,0.0012498397330292983
6.89,0.0,77.54157182578224,0,90,3.0,5,0.0008571510470565349
6.895,0.0,77.5281359065581,0,90,3.0,5,0.0005801217847032107
6.9,0.0,77.5187923680159,0,90,3.0,5,0.0003874715054823622
6.905,0.0,77.51238685021202,0,90,3.0,5,0.00025539897344380554
6.91,0.0,77.50805747644297,0,90,3.0,5,0.00016613353490662431
6.915,0.0,77.50517244622698,0,90,3.0,5,0.00010664837581399748
6.92,0.0,77.50327681336077,0,90,3.0,5,6.756316207773912e-05
6.925,0.0,77.50204864264317,0,90,3.0,5,4.2240054498443365e-05
6.93,0.0,77.50126397793481,0,90,3.0,5,2.606140071777387e-05
6.935,0.0,77.50076961151682,0,90,3.0,5,1.5868278697234457e-05
6.94,0.0,77.50046244746694,0,90,3.0,5,9.534999318435607e-06
6.945,0.0,77.5002742281496,0,90,3.0,5,5.654188651688039e-06
6.95,0.0,77.50016047982528,0,90,3.0,5,3.308862376964489e-06
6.955,0.0,77.50009268034331,0,90,3.0,5,1.910934913702167e-06
6.96,0.0,77.50005282184985,0,90,3.0,5,1.089110306160477e-06
6.965,0.0,77.50002970970641,0,90,3.0,5,6.125712661976406e-07
6.97,0.001684486749771458,77.50001649080649,0,90,3.0,5,3.400166286075884e-07
6.975,0.004172395771277602,77.50000903325379,0,90,3.0,5,1.8625265545207306e-07
6.98,0.009438687428818865,77.50000488320897,0,90,3.0,5,1.0068472109656027e-07
6.985,0.019500507867137046,77.50000260510474,0,90,3.0,5,5.371349979232599e-08
6.99,0.03679496976339974,77.50000137152539,0,90,3.0,5,2.827887393210666e-08
6.995,0.06340728953298436,77.50000071259257,0,90,3.0,5,1.4692630232734841e-08
7.0,0.09979255396093453,77.5000003653739,0,90,3.0,5,7.53348232822261e-09
7.005,0.14343835518453557,77.5000001848811,0,90,3.0,5,3.811981493348979e-09
7.01,0.18829581417209276,77.50000009232224,0,90,3.0,5,1.903551314284151e-09
7.015,0.2257481735193119,77.50000004549659,0,90,3.0,5,9.380740491381112e-10
7.02,0.24718154073554727,77.50000002212637,0,90,3.0,5,4.5621385249161023e-10
7.025,0.24718154074102772,77.5000000106194,0,90,3.0,5,2.1895674734944046e-10
7.03,0.22574817354072055,77.50000000502978,0,90,3.0,5,1.0370671560915221e-10
7.035,0.18829581422840957,77.50000000235103,0,90,3.0,5,4.847483697377947e-11
7.04,0.14343835532456656,77.50000000108449,0,90,3.0,5,2.2360560138885067e-11
7.045,0.09979255431561854,77.50000000049369,0,90,3.0,5,1.0179074078476652e-11
7.05,0.06340729067170194,77.50000000022179,0,90,3.0,5,4.57296514515789e-12
7.055,0.03679497683410042,77.50000000009832,0,90,3.0,5,2.0273176035975807e-12
7.06,0.019500578284482293,77.50000000004302,0,90,3.0,5,8.869331386168343e-13
7.065,0.009439396781978427,77.50000000001857,0,90,3.0,5,3.8296055902616534e-13
7.07,0.004178588733610924,77.50000000000792,0,90,3.0,5,1.6320507373953641e-13
7.075,0.0017299316936037381,77.50000000000333,0,90,3.0,5,6.856371140942822e-14
7.08,0.0008997325756988589,77.50000000000138,0,90,3.0,5,2.842170943040401e-14
7.085,0.001634769674224814,77.50000000000057,0,90,3.0,5,1.1720292548620209e-14
7.09,0.00614904736476635,77.50000000000023,0,90,3.0,5,4.688117019448084e-15
7.095,0.02168080359963608,77.50000000000009,0,90,3.0,5,1.7580438822930315e-15
7.1,0.06433400338904088,77.50000000000003,0,90,3.0,5,5.860146274310105e-16
7.105,0.1593410769217493,77.50000000000001,0,90,3.0,5,2.9300731371550523e-16
7.11,0.3291989194808569,77.5,0,90,3.0,5,0.0
7.115,0.5672906802982638,77.5,0,90,3.0,5,0.0
7.12,0.815339152120446,77.5,0,90,3.0,5,0.0
7.125,0.9768711246313155,77.50000284164666,1,90,3.0,5,5.859065282427614e-08
7.13,0.9726380909165361,77.50000513541534,0,90,3.0,5,1.0588485228132395e-07
7.135,0.7921091683291741,77.50000972533142,0,90,3.0,5,2.0052229739665507e-07
7.14,0.49139090102639077,77.50001983204943,0,90,3.0,5,4.089082357115762e-07
7.145,0.15739335672107918,77.50004425244363,0,90,3.0,5,9.124215181337914e-07
7.15,-0.11102342218909485,77.50010715796503,0,90,3.0,5,2.2094425779981713e-06
7.155,-0.2314207883647528,77.5002735884935,0,90,3.0,5,5.640999865963562e-06
7.16,-0.2029124434754801,77.50071229869842,0,90,3.0,5,1.4686571101384692e-05
7.165,-0.11151350554305876,77.50184192436068,0,90,3.0,5,3.797782186960334e-05
7.17,-0.039430666652076896,77.50465058308532,0,90,3.0,5,9.588831103756842e-05
7.175,-0.006087703519843621,77.51135048292498,0,90,3.0,5,0.00023403057577282423
7.18,0.005350271385530551,77.52662836067672,0,90,3.0,5,0.0005490383644685481
7.185,0.010381647827441833,77.55986008283949,0,90,3.0,5,0.0012342285121544779
7.19,0.015115203303506243,77.62871615943192,0,90,3.0,5,0.002653941431585923
7.195,0.021170964062928475,77.76448507889882,0,90,3.0,5,0.005453300595851858
7.2,0.029082821134029553,78.0190308444065,0,90,3.0,5,0.010701666894979403
7.205,0.03923107061708144,78.47243990533991,0,90,3.0,5,0.020050307326596104
7.21,0.051969043308817596,79.23909047325527,0,90,3.0,5,0.03585753553103658
7.215,0.06760532616283861,80.468368163272,0,90,3.0,5,0.06120346728395884
7.22,0.08636519236693461,82.33522248926154,0,90,3.0,5,0.09969530905693896
7.225,0.10834733138818661,85.01619319399947,0,90,3.0,5,0.15497305554638083
7.23,0.1334809643017884,88.64936492577402,0,90,3.0,6,0.2298838129025572
7.235,0.16148868344343945,93.28217293658074,0,90,3.0,6,0.32540562755836566
7.24,0.191860907532018,98.81798972078323,0,90,3.0,6,0.4395461798099635
7.245,0.22384764873847726,104.97837403835521,0,90,3.0,6,0.5665644131619632
7.25,0.25647215537198226,111.29935597736814,0,90,3.0,6,0.6968939376776936
7.255,0.2885689161419028,117.17453906786568,0,90,3.0,6,0.8180317333580552
7.26,0.31884566517832524,121.94509813663508,0,90,3.0,6,0.9163937760130945
7.265,0.3459657668955683,125.02047608087008,0,90,3.0,6,0.9798036305334038
7.27,0.3686441789190902,126.0,0,90,3.0,6,1.0
7.275,0.3857476379544367,124.76110192272094,0,90,3.0,6,0.9744557097468235
7.28,0.3963882865005728,121.4875182790804,0,90,3.0,6,0.9069591397748537
7.285,0.4,116.6287058194931,0,90,3.0,6,0.8067774395771774
7.29,0.39638828650057273,110.80301806039404,0,90,3.0,6,0.6866601661936915
7.295,0.38574763795443656,104.67357444072778,0,90,3.0,6,0.5602798853758304
7.3,0.36864417891908974,98.83118480258737,0,90,3.0,6,0.43981824335231695
7.305,0.345965766895568,93.71212167075892,0,90,3.0,6,0.334270549912555
7.31,0.3188456651783249,89.56393789015415,0,90,3.0,6,0.24874098742585876
7.315,0.28856891614190205,86.45649610709219,0,90,3.0,6,0.18467002282664313
7.32,0.2564721553719815,84.3238267777099,0,90,3.0,6,0.14069745933422467
7.325,0.22384764873847685,83.01824586008357,0,90,3.0,6,0.11377826515636222
7.33,0.19186090753201765,82.3607250432506,0,90,3.0,6,0.10022113491238344
7.335,0.16148868344343878,82.17790417755486,0,90,3.0,6,0.09645163252690443
7.34,0.1334809643017881,82.32301424983154,0,90,3.0,6,0.09944359278003184
7.345,0.10834733138818531,82.68299482340544,0,90,3.0,6,0.10686587264753479
7.35,0.08636519236690572,83.17642932367355,0,90,3.0,6,0.11703977986955764
7.355,0.06760532616242629,83.747005124037,0,90,3.0,6,0.12880422936158767
7.36,0.05196904332202373,84.35601615827898,0,90,3.0,6,0.1413611579026593
7.365,0.03923107185803287,84.97590794405919,0,90,3.0,6,0.1541424318362719
7.37,0.02908287038705761,85.58561130572897,0,90,3.0,6,0.16671363516966958
7.375,0.02117220077308346,86.1676328734186,0,90,3.0,6,0.17871407986430096
7.38,0.0151361834125735,86.70652267302486,0,90,3.0,6,0.18982520975308997
7.385,0.010626454858290009,87.18827313384817,0,90,3.0,6,0.1997582089453231
7.39,0.007326255555493652,87.6002732574449,0,90,3.0,6,0.20825305685453396
7.395,0.004960179211183015,87.93154771974346,0,90,3.0,6,0.21508345813904048
7.4,0.0032978759379303545,88.17310463785162,0,90,3.0,6,0.22006401315157983
7.405,0.002153242296767213,88.31828322100691,0,90,3.0,6,0.22305738600014244
7.41,0.001380616732225004,88.36303606968106,0,90,3.0,6,0.22398012514806306
7.415,0.0008693106590991584,88.30610811938153,0,90,3.0,6,0.22280635297693885
7.42,0.000537524815942247,88.14909210780685,0,90,3.0,6,0.2195689094393165
7.425,0.0003263951340288585,87.89635352979845,0,90,3.0,6,0.2143578047381123
7.43,0.00019463030985187395,87.55482865987335,0,90,3.0,6,0.2073160548427495
7.435,0.00011397219555062695,87.13370820829557,0,90,3.0,6,0.19863315893392935
7.44,6.55403863487943e-05,86.64402658647539,0,90,3.0,6,0.18853663064897713
7.445,3.701184389455385e-05,86.09818233591776,0,90,3.0,6,0.1772821100189228
7.45,2.0525516217290957e-05,85.50941874168905,0,90,3.0,6,0.1651426544678154
7.455,1.1178128483661116e-05,84.89129484704627,0,90,3.0,6,0.15239783189786119
7.46,5.978135409912517e-06,84.25717603311269,0,90,3.0,6,0.13932321717758114
7.465,3.1396702713238487e-06,83.61977023968812,0,90,3.0,6,0.1261808296842912
7.47,1.6192875458531019e-06,82.99073116007229,0,90,3.0,6,0.11321095175406776
7.475,8.201353897972012e-07,82.38034384450859,0,90,3.0,6,0.10062564627852758
7.48,4.0791415086824765e-07,81.79730165774147,0,90,3.0,6,0.08860415789157672
7.485,1.9923866938774793e-07,81.24857702449877,0,90,3.0,6,0.07729024792780972
7.49,9.556527981051257e-08,80.73938237949095,0,90,3.0,6,0.06679138926785459
7.495,4.501406988770349e-08,80.27321263676781,0,90,3.0,6,0.05717964199521256
7.5,0.0,79.85195660178154,0,90,3.0,6,0.04849395055219666
7.505,0.0,79.47606222315747,0,90,3.0,6,0.04074355099293753
7.51,0.0,79.14473943737704,0,90,3.0,6,0.03391215334798022
7.515,0.0,78.85618449458457,0,90,3.0,6,0.027962566898650884
7.52,0.0,78.60781086922685,0,90,3.0,6,0.022841461221172223
7.525,0.0,78.39647389480362,0,90,3.0,6,0.018483997831002474
7.53,0.0,78.21867882903723,0,90,3.0,6,0.014818120186334651
7.535,0.0,78.07076486884718,0,90,3.0,6,0.011768347811282017
7.54,0.0,77.94906043727421,0,90,3.0,6,0.009258978088128096
7.545,0.0,77.85000764806028,0,90,3.0,6,0.007216652537325449
7.55,0.0,77.77025606689202,0,90,3.0,6,0.005572290039010662
7.555,0.0,77.706727640736,0,90,3.0,6,0.00426242558218568
7.56,0.0,77.65665592416397,0,90,3.0,6,0.003230019054927235
7.565,0.0,77.61760350788578,0,90,3.0,6,0.002424814595582992
7.57,0.0,77.58746190000828,0,90,3.0,6,0.0018033381445005938
7.575,0.0,77.5644380986904,0,90,3.0,6,0.001328620591554691
7.58,0.0,77.54703181144795,0,90,3.0,6,0.0009697280710917753
7.585,0.0,77.53400680827698,0,90,3.0,6,0.000701171304680096
7.59,0.0,77.52435932323314,0,90,3.0,6,0.0005022540872812794
7.595,0.0,77.51728581027695,0,90,3.0,6,0.00035640845931846006
7.6,0.0,77.51215176729428,0,90,3.0,6,0.0002505519029749352
7.605,0.0,77.5084628048222,0,90,3.0,6,0.00017449082107632
7.61,0.0,77.50583867610601,0,90,3.0,6,0.00012038507435070492
7.615,0.0,77.50399061307752,0,90,3.0,6,8.228068201070837e-05
7.62,0.0,77.50270202919619,0,90,3.0,6,5.571194218940449e-05
7.625,0.0,77.50181244831914,0,90,3.0,6,3.7370068435934955e-05
7.63,0.0,77.50120438795803,0,90,3.0,6,2.4832741402600658e-05
7.635,0.0,77.50079285241956,0,90,3.0,6,1.6347472568347174e-05
7.64,0.0,77.50051706302851,0,90,3.0,6,1.0661093371355332e-05
7.645,0.0,77.50033405639782,0,90,3.0,6,6.8877607797623064e-06
7.65,0.0,77.50021380668517,0,90,3.0,6,4.408385261177903e-06
7.655,0.0,77.50013556511455,0,90,3.0,6,2.7951570009768194e-06
7.66,0.0,77.5000851529678,0,90,3.0,6,1.7557312948198517e-06
7.665,0.0,77.50005298791253,0,90,3.0,6,1.0925342788717917e-06
7.67,0.0,77.50003266472537,0,90,3.0,6,6.73499492107759e-07
7.675,0.0,77.50001994832292,0,90,3.0,6,4.113056271195354e-07
7.68,0.0,77.50001206865707,0,90,3.0,6,2.48838290124545e-07
7.685,0.0,77.5000072333034,0,90,3.0,6,1.4914027643105337e-07
7.69,0.0,77.5000042947669,0,90,3.0,6,8.855189476074059e-08
7.695,0.0,77.50000252619976,0,90,3.0,6,5.208659309133022e-08
7.7,0.0,77.50000147204457,0,90,3.0,6,3.035143450200774e-08
7.705,0.001684486749771458,77.50000084976611,0,90,3.0,6,1.7520950720055908e-08
7.71,0.004172395771277602,77.50000048596281,0,90,3.0,6,1.001985185315245e-08
7.715,0.009438687428818865,77.50000027531625,0,90,3.0,6,5.676623780430221e-09
7.72,0.019500507867137046,77.50000015452041,0,90,3.0,6,3.1859877760053704e-09
7.725,0.03679496976339974,77.50000008591421,0,90,3.0,6,1.771426991346987e-09
7.73,0.06340728953298436,77.50000004732269,0,90,3.0,6,9.757254889505535e-10
7.735,0.09979255396093453,77.50000002582253,0,90,3.0,6,5.324232967451309e-10
7.74,0.14343835518453557,77.50000001395898,0,90,3.0,6,2.878140520872116e-10
7.745,0.18829581417209276,77.50000000747538,0,90,3.0,6,1.5413151625570837e-10
7.75,0.2257481735193119,77.50000000396587,0,90,3.0,6,8.177043006052719e-11
7.755,0.24718154073554727,77.50000000208433,0,90,3.0,6,4.2975968717280584e-11
7.76,0.24718154074102772,77.50000000108524,0,90,3.0,6,2.2376089526511988e-11
7.765,0.22574817354072055,77.50000000055977,0,90,3.0,6,1.1541558087253752e-11
7.77,0.18829581422840957,77.50000000028602,0,90,3.0,6,5.897358203151974e-12
7.775,0.14343835532456656,77.5000000001448,0,90,3.0,6,2.9854515194472828e-12
7.78,0.09979255431561854,77.5000000000726,0,90,3.0,6,1.4969743657725163e-12
7.785,0.06340729067170194,77.50000000003607,0,90,3.0,6,7.436525622099523e-13
7.79,0.03679497683410042,77.50000000001775,0,90,3.0,6,3.6596613483066605e-13
7.795,0.019500578284482293,77.50000000000865,0,90,3.0,6,1.7844145405274268e-13
7.8,0.009439396781978427,77.50000000000418,0,90,3.0,6,8.614415023235853e-14
7.805,0.004178588733610924,77.500000000002,0,90,3.0,6,4.1314031233886236e-14
7.81,0.0017299316936037381,77.50000000000095,0,90,3.0,6,1.963149001893885e-14
7.815,0.0008997325756988589,77.50000000000044,0,90,3.0,6,9.083226725180661e-15
7.82,0.001634769674224814,77.50000000000021,0,90,3.0,6,4.395109705732579e-15
7.825,0.00614904736476635,77.5000000000001,0,90,3.0,6,2.0510511960085364e-15
7.83,0.02168080359963608,77.50000000000004,0,90,3.0,6,8.790219411465157e-16
7.835,0.06433400338904088,77.50000000000001,0,90,3.0,6,2.9300731371550523e-16
7.84,0.1593410769217493,77.50000000000001,0,90,3.0,6,2.9300731371550523e-16
7.845,0.3291989194808569,77.5,0,90,3.0,6,0.0
7.85,0.5672906802982638,77.5,0,90,3.0,6,0.0
7.855,0.815339152120446,77.5,0,90,3.0,6,0.0
7.86,0.9768711246313155,77.5000028495992,1,90,3.0,6,5.8754622647104476e-08
7.865,0.9726380909165361,77.50000521622965,0,90,3.0,6,1.075511268589759e-07
7.87,0.7921091683291741,77.50001003184255,0,90,3.0,6,2.06842114423744e-07
7.875,0.49139090102639077,77.50002086143309,0,90,3.0,6,4.30132640946054e-07
7.88,0.15739335672107918,77.5000476593659,0,90,3.0,6,9.826673382361047e-07
7.885,-0.11102342218909485,77.5001183364054,0,90,3.0,6,2.4399258843904763e-06
7.89,-0.2314207883647528,77.50030933544511,0,90,3.0,6,6.378050414630557e-06
7.895,-0.2029124434754801,77.50082200342337,0,90,3.0,6,1.6948524193111617e-05
7.9,-0.11151350554305876,77.50216205965356,0,90,3.0,6,4.457854955787588e-05
7.905,-0.039430666652076896,77.50553489210309,0,90,3.0,6,0.0001141214866615578
7.91,-0.006087703519843621,77.51365844030069,0,90,3.0,6,0.0002816173257873785
7.915,0.005350271385530551,77.53231627301004,0,90,3.0,6,0.0006663149074234897
7.92,0.010381647827441833,77.57309621159689,0,90,3.0,6,0.001507138383441046
7.925,0.015115203303506243,77.657803469981,0,90,3.0,6,0.0032536797934227773
7.93,0.021170964062928475,77.82485509900845,0,90,3.0,6,0.006698043278524646
7.935,0.029082821134029553,78.13736293559109,0,90,3.0,6,0.01314150382662031
7.94,0.03923107061708144,78.69144684397986,0,90,3.0,6,0.024565914308863117
7.945,0.051969043308817596,79.62164981828742,0,90,3.0,6,0.0437453570780912
7.95,0.06760532616283861,81.09861679088165,0,90,3.0,6,0.07419828434807525
7.955,0.08636519236693461,83.31340846938576,0,90,3.0,6,0.11986409215228377
7.96,0.10834733138818661,86.44420204955951,0,90,3.0,6,0.18441653710431974
7.965,0.1334809643017884,90.60562721106557,0,90,3.0,6,0.2702191177539292
7.97,0.16148868344343945,95.78836983257673,0,90,3.0,6,0.3770797903624069
7.975,0.191860907532018,101.80487465023725,0,90,3.0,6,0.501131436087366
7.98,0.22384764873847726,108.26223981649645,0,90,3.0,6,0.6342729859071432
7.985,0.25647215537198226,114.58168257095079,0,90,3.0,6,0.7645707746587792
7.99,0.2885689161419028,120.0732287599271,0,90,3.0,6,0.8777985311325176
7.995,0.31884566517832524,124.05651257188923,0,90,3.0,6,0.9599280942657573
8.0,0.3459657668955683,126.0,0,90,3.0,6,1.0
8.005,0.3686441789190902,125.63979154071257,0,90,3.0,6,0.9925730214579911
8.01,0.3857476379544367,123.04159744781288,0,90,3.0,6,0.9390020092332552
8.015,0.3963882865005728,118.58602852218327,0,90,3.0,6,0.8471346087048097
8.02,0.4,112.88194313968907,0,90,3.0,6,0.7295246008183314
8.025,0.39638828650057273,106.63524700178176,0,90,3.0,6,0.6007267423047786
8.03,0.38574763795443656,100.51222268984526,0,90,3.0,6,0.4744788183473249
8.035,0.36864417891908974,95.03342954567974,0,90,3.0,6,0.3615140112511286
8.04,0.345965766895568,90.51937551821848,0,90,3.0,6,0.2684407323344017
8.045,0.3188456651783249,87.0899623785511,0,90,3.0,6,0.1977311830629094
8.05,0.28856891614190205,84.70403859301403,0,90,3.0,6,0.1485368782064749
8.055,0.2564721553719815,83.21803786777781,0,90,3.0,6,0.11789768799541875
8.06,0.22384764873847685,82.44396448813953,0,90,3.0,6,0.1019374121265882
8.065,0.19186090753201765,82.19384441375703,0,90,3.0,6,0.09678029719086668
8.07,0.16148868344343878,82.30602436330493,0,90,3.0,6,0.09909328584133872
8.075,0.1334809643017881,82.65514723512985,0,90,3.0,6,0.10629169556968754
8.08,0.10834733138818531,83.15091306925933,0,90,3.0,6,0.11651367153112024
8.085,0.08636519236690572,83.73116053721081,0,90,3.0,6,0.12847753684970747
8.09,0.06760532616242629,84.35352751412901,0,90,3.0,6,0.1413098456521446
8.095,0.05196904332202373,84.988162019471,0,90,3.0,6,0.1543950931849692
8.1,0.03923107185803287,85.61243627372812,0,90,3.0,6,0.16726672729336334
8.105,0.02908287038705761,86.20766235021242,0,90,3.0,6,0.17953942990128693
8.11,0.02117220077308346,86.75737840114627,0,90,3.0,6,0.19087378146693337
8.115,0.0151361834125735,87.24669041211017,0,90,3.0,6,0.200962688909488
8.12,0.010626454858290009,87.66223561673164,0,90,3.0,6,0.20953063127281724
8.125,0.007326255555493652,87.99245861796106,0,90,3.0,6,0.21633935294765078
8.13,0.004960179211183015,88.22800094208027,0,90,3.0,6,0.22119589571299528
8.135,0.0032978759379303545,88.36208251802232,0,90,3.0,6,0.22396046428911998
8.14,0.002153242296767213,88.3908031202982,0,90,3.0,6,0.22455264165563302
8.145,0.001380616732225004,88.313322569792,0,90,3.0,6,0.22295510453179396
8.15,0.0008693106590991584,88.13189872855499,0,90,3.0,6,0.21921440677432963
8.155,0.000537524815942247,87.85177727674194,0,90,3.0,6,0.21343870673694726
8.16,0.0003263951340288585,87.48093946488271,0,90,3.0,6,0.20579256628624143
8.165,0.00019463030985187395,87.02972432038673,0,90,3.0,6,0.1964891612450873
8.17,0.00011397219555062695,86.51035011571695,0,90,3.0,6,0.18578041475705043
8.175,6.55403863487943e-05,85.93636593813538,0,90,3.0,6,0.17394568944609035
8.18,3.701184389455385e-05,85.3220676178811,0,90,3.0,6,0.16127974469857945
8.185,2.0525516217290957e-05,84.6819129313368,0,90,3.0,6,0.148080678996635
8.19,1.1178128483661116e-05,84.02996899291153,0,90,3.0,6,0.1346385359363203
8.195,5.978135409912517e-06,83.37942041297052,0,90,3.0,6,0.1212251631540313
8.2,3.1396702713238487e-06,82.74216065154886,0,90,3.0,6,0.10808578662987335
8.205,1.6192875458531019e-06,82.1284816903293,0,90,3.0,6,0.09543261217173804
8.21,8.201353897972012e-07,81.54686938374624,0,90,3.0,6,0.08344060585043796
8.215,4.0791415086824765e-07,81.00390431750586,0,90,3.0,6,0.07224544984548158
8.22,1.9923866938774793e-07,80.50426129419272,0,90,3.0,6,0.061943531839025075
8.225,9.556527981051257e-08,80.0507951370098,0,90,3.0,6,0.05259371416515051
8.23,4.501406988770349e-08,79.64469664134593,0,90,3.0,6,0.04422054930610166
8.235,0.0,79.28570032014531,0,90,3.0,6,0.036818563301965146
8.24,0.0,78.97232502831886,0,90,3.0,6,0.03035721707873945
8.245,0.0,78.70212942204091,0,90,3.0,6,0.024786173650328078
8.25,0.0,78.47196622074313,0,90,3.0,6,0.020040540633878907
8.255,0.0,78.27822204797289,0,90,3.0,6,0.016045815422121426
8.26,0.0,78.11703287434221,0,90,3.0,6,0.012722327306025044
8.265,0.0,77.98446843779352,0,90,3.0,6,0.009989039954505645
8.27,0.0,77.87668219124409,0,90,3.0,6,0.007766643118434765
8.275,0.0,77.79002611222023,0,90,3.0,6,0.005979919839592419
8.28,0.0,77.72113196608001,0,90,3.0,6,0.0045594219810311054
8.285,0.0,77.66696228011871,0,90,3.0,6,0.003442521239561037
8.29,0.0,77.62483536066372,0,90,3.0,6,0.0025739249621386353
8.295,0.0,77.59242921979414,0,90,3.0,6,0.0019057571091575505
8.3,0.0,77.5677693573691,0,90,3.0,6,0.0013973063375072496
8.305,0.0,77.54920507081805,0,90,3.0,6,0.0010145375426401475
8.31,0.0,77.53537844729509,0,90,3.0,6,0.0007294525215482013
8.315,0.0,77.52518953144987,0,90,3.0,6,0.0005193717824715101
8.32,0.0,77.51776044419957,0,90,3.0,6,0.0003661947257642661
8.325,0.0,77.51240052211861,0,90,3.0,6,0.00025568086842496865
8.33,0.0,77.50857390234358,0,90,3.0,6,0.00017678149162030733
8.335,0.0,77.50587042450613,0,90,3.0,6,0.0001210396805387185
8.34,0.0,77.50398027332128,0,90,3.0,6,8.20674911603147e-05
8.345,0.0,77.50267244451638,0,90,3.0,6,5.510194879129766e-05
8.35,0.0,77.5017768751459,0,90,3.0,6,3.6636600946249204e-05
8.355,0.0,77.50116992370694,0,90,3.0,6,2.4122138287409434e-05
8.36,0.0,77.50076279982322,0,90,3.0,6,1.5727831406616835e-05
8.365,0.0,77.50049251111884,0,90,3.0,6,1.015486842960076e-05
8.37,0.0,77.50031490090498,0,90,3.0,6,6.492802164579301e-06
8.375,0.0,77.50019938119357,0,90,3.0,6,4.110952444694028e-06
8.38,0.0,77.50012501061386,0,90,3.0,6,2.5775384300424175e-06
8.385,0.0,77.50007761791949,0,90,3.0,6,1.6003694739636784e-06
8.39,0.0,77.50004772319603,0,90,3.0,6,9.839834233647257e-07
8.395,0.0,77.50002905691196,0,90,3.0,6,5.991115867144208e-07
8.4,0.0,77.50001751950404,0,90,3.0,6,3.6122688744895996e-07
8.405,0.0,77.50001046035855,0,90,3.0,6,2.1567749593149407e-07
8.41,0.0,77.50000618477277,0,90,3.0,6,1.275210880854483e-07
8.415,0.0,77.5000036212069,0,90,3.0,6,7.466405980539065e-08
8.42,0.0,77.5000020995941,0,90,3.0,6,4.329059997074829e-08
8.425,0.001684486749771458,77.50000120550708,0,90,3.0,6,2.4855815989625268e-08
8.43,0.004172395771277602,77.50000068541972,0,90,3.0,6,1.4132365381040462e-08
8.435,0.009438687428818865,77.50000038591871,0,90,3.0,7,7.957086810756194e-09
8.44,0.019500507867137046,77.50000021517286,0,90,3.0,7,4.436553832213754e-09
8.445,0.03679496976339974,77.50000011880414,0,90,3.0,7,2.4495698573783677e-09
8.45,0.06340728953298436,77.5000000649573,0,90,3.0,7,1.3393258827302806e-09
8.455,0.09979255396093453,77.50000003517037,0,90,3.0,7,7.251623356779353e-10
8.46,0.14343835518453557,77.50000001885725,0,90,3.0,7,3.8880927801524053e-10
8.465,0.18829581417209276,77.50000001001226,0,90,3.0,7,2.064383028782592e-10
8.47,0.2257481735193119,77.50000000526427,0,90,3.0,7,1.0854162929277176e-10
8.475,0.24718154073554727,77.50000000274092,0,90,3.0,7,5.651378563287807e-11
8.48,0.24718154074102772,77.50000000141321,0,90,3.0,7,2.913840531975213e-11
8.485,0.22574817354072055,77.50000000072156,0,90,3.0,7,1.487744635390478e-11
8.49,0.18829581422840957,77.50000000036482,0,90,3.0,7,7.52208375770445e-12
8.495,0.14343835532456656,77.50000000018267,0,90,3.0,7,3.766316010499104e-12
8.5,0.09979255431561854,77.50000000009057,0,90,3.0,7,1.8673356103089148e-12
8.505,0.06340729067170194,77.50000000004447,0,90,3.0,7,9.16819884615816e-13
8.51,0.03679497683410042,77.50000000002161,0,90,3.0,7,4.4566412416128344e-13
8.515,0.019500578284482293,77.5000000000104,0,90,3.0,7,2.1448135363974982e-13
8.52,0.009439396781978427,77.50000000000496,0,90,3.0,7,1.0225955248671133e-13
8.525,0.004178588733610924,77.50000000000234,0,90,3.0,7,4.834620676305836e-14
8.53,0.0017299316936037381,77.5000000000011,0,90,3.0,7,2.25615631560939e-14
8.535,0.0008997325756988589,77.50000000000051,0,90,3.0,7,1.0548263293758189e-14
8.54,0.001634769674224814,77.50000000000023,0,90,3.0,7,4.688117019448084e-15
8.545,0.00614904736476635,77.5000000000001,0,90,3.0,7,2.0510511960085364e-15
8.55,0.02168080359963608,77.50000000000004,0,90,3.0,7,8.790219411465157e-16
8.555,0.06433400338904088,77.50000000000001,0,90,3.0,7,2.9300731371550523e-16
8.56,0.1593410769217493,77.50000000000001,0,90,3.0,7,2.9300731371550523e-16
8.565,0.3291989194808569,77.5,0,90,3.0,7,0.0
8.57,0.5672906802982638,77.5,0,90,3.0,7,0.0
8.575,0.815339152120446,77.5,0,90,3.0,7,0.0
8.58,0.9768711246313155,77.50000284586159,1,90,3.0,7,5.8677558500516847e-08
8.585,0.9726380909165361,77.50000527961552,0,90,3.0,7,1.0885805199295553e-07
8.59,0.7921091683291741,77.50001031954956,0,90,3.0,7,2.1277421772716367e-07
8.595,0.49139090102639077,77.5000219076864,0,90,3.0,7,4.517048742836215e-07
8.6,0.15739335672107918,77.5000513062313,0,90,3.0,7,1.0578604391548184e-06
8.605,-0.11102342218909485,77.50013076005604,0,90,3.0,7,2.6960836296509407e-06
8.61,-0.2314207883647528,77.50035020381222,0,90,3.0,7,7.220697159130761e-06
8.615,-0.2029124434754801,77.50095018691317,0,90,3.0,7,1.9591482745824776e-05
8.62,-0.11151350554305876,77.50254252172627,0,90,3.0,7,5.242312837668747e-05
8.625,-0.039430666652076896,77.50659976740856,0,90,3.0,7,0.00013607767852699768
8.63,-0.006087703519843621,77.51646537881305,0,90,3.0,7,0.00033949234666087036
8.635,0.005350271385530551,77.53928253215116,0,90,3.0,7,0.00080994911651881
8.64,0.010381647827441833,77.58937615985101,0,90,3.0,7,0.0018428074196085336
8.645,0.015115203303506243,77.69363594416527,0,90,3.0,7,0.003992493694129186
8.65,0.021170964062928475,77.89914273187748,0,90,3.0,7,0.008229747049020112
8.655,0.029082821134029553,78.28242166935907,0,90,3.0,7,0.016132405553795196
8.66,0.03923107061708144,78.95815265228912,0,90,3.0,7,0.03006500313998176
