Time,ECG,Pressure,R_Peaks,mean_hr,hrv_scale,Phase_Bin,Normalized_Pressure
0.0,0.001684486749771458,77.5,0,90,3.0,0,0.0
0.005,0.004172395771277602,77.5,0,90,3.0,0,0.0
0.01,0.009438687428818865,77.5,0,90,3.0,0,0.0
0.015,0.019500507867137046,77.5,0,90,3.0,0,0.0
0.02,0.03679496976339974,77.5,0,90,3.0,0,0.0
0.025,0.06340728953298436,77.5,0,90,3.0,0,0.0
0.03,0.09979255396093453,77.5,0,90,3.0,0,0.0
0.035,0.14343835518453557,77.5,0,90,3.0,0,0.0
0.04,0.18829581417209276,77.5,0,90,3.0,0,0.0
0.045,0.2257481735193119,77.5,0,90,3.0,0,0.0
0.05,0.24718154073554727,77.5,0,90,3.0,0,0.0
0.055,0.24718154074102772,77.5,0,90,3.0,0,0.0
0.06,0.22574817354072055,77.5,0,90,3.0,0,0.0
0.065,0.18829581422840957,77.5,0,90,3.0,0,0.0
0.07,0.14343835532456656,77.5,0,90,3.0,0,0.0
0.075,0.09979255431561854,77.5,0,90,3.0,0,0.0
0.08,0.06340729067170194,77.5,0,90,3.0,0,0.0
0.085,0.03679497683410042,77.5,0,90,3.0,0,0.0
0.09,0.019500578284482293,77.5,0,90,3.0,0,0.0
0.095,0.009439396781978427,77.5,0,90,3.0,0,0.0
0.1,0.004178588733610924,77.5,0,90,3.0,0,0.0
0.105,0.0017299316936037381,77.5,0,90,3.0,0,0.0
0.11,0.0008997325756988589,77.5,0,90,3.0,0,0.0
0.115,0.001634769674224814,77.5,0,90,3.0,0,0.0
0.12,0.00614904736476635,77.5,0,90,3.0,0,0.0
0.125,0.02168080359963608,77.5,0,90,3.0,0,0.0
0.13,0.06433400338904088,77.5,0,90,3.0,0,0.0
0.135,0.1593410769217493,77.5,0,90,3.0,0,0.0
0.14,0.3291989194808569,77.5,0,90,3.0,0,0.0
0.145,0.5672906802982638,77.5,0,90,3.0,0,0.0
0.15,0.815339152120446,77.5,0,90,3.0,0,0.0
0.155,0.9768711246313155,77.5,0,90,3.0,0,0.0
0.16,0.9726380909165361,77.5,0,90,3.0,0,0.0
0.165,0.7921091683291741,77.5,0,90,3.0,0,0.0
0.17,0.49139090102639077,77.5,0,90,3.0,0,0.0
0.175,0.15739335672107918,77.5,0,90,3.0,0,0.0
0.18,-0.11102342218909485,77.5,0,90,3.0,0,0.0
0.185,-0.2314207883647528,77.5,0,90,3.0,0,0.0
0.19,-0.2029124434754801,77.5,0,90,3.0,0,0.0
0.195,-0.11151350554305876,77.5,0,90,3.0,0,0.0
0.2,-0.039430666652076896,77.5,0,90,3.0,0,0.0
0.205,-0.006087703519843621,77.5,0,90,3.0,0,0.0
0.21,0.005350271385530551,77.5,0,90,3.0,0,0.0
0.215,0.010381647827441833,77.5,0,90,3.0,0,0.0
0.22,0.015115203303506243,77.5,0,90,3.0,0,0.0
0.225,0.021170964062928475,77.5,0,90,3.0,0,0.0
0.23,0.029082821134029553,77.5,0,90,3.0,0,0.0
0.235,0.03923107061708144,77.5,0,90,3.0,0,0.0
0.24,0.051969043308817596,77.5,0,90,3.0,0,0.0
0.245,0.06760532616283861,77.5,0,90,3.0,0,0.0
0.25,0.08636519236693461,77.5,0,90,3.0,0,0.0
0.255,0.10834733138818661,77.5,0,90,3.0,0,0.0
0.26,0.1334809643017884,77.5,0,90,3.0,0,0.0
0.265,0.16148868344343945,77.5,0,90,3.0,0,0.0
0.27,0.191860907532018,77.5,0,90,3.0,0,0.0
0.275,0.22384764873847726,77.5,0,90,3.0,0,0.0
0.28,0.25647215537198226,77.5,0,90,3.0,0,0.0
0.285,0.2885689161419028,77.5,0,90,3.0,0,0.0
0.29,0.31884566517832524,77.5,0,90,3.0,0,0.0
0.295,0.3459657668955683,77.5,0,90,3.0,0,0.0
0.3,0.3686441789190902,77.5,0,90,3.0,0,0.0
0.305,0.3857476379544367,77.5,0,90,3.0,0,0.0
0.31,0.3963882865005728,77.5,0,90,3.0,0,0.0
0.315,0.4,77.5,0,90,3.0,0,0.0
0.32,0.39638828650057273,77.5,0,90,3.0,0,0.0
0.325,0.38574763795443656,77.5,0,90,3.0,0,0.0
0.33,0.36864417891908974,77.5,0,90,3.0,0,0.0
0.335,0.345965766895568,77.5,0,90,3.0,0,0.0
0.34,0.3188456651783249,77.5,0,90,3.0,0,0.0
0.345,0.28856891614190205,77.5,0,90,3.0,0,0.0
0.35,0.2564721553719815,77.5,0,90,3.0,0,0.0
0.355,0.22384764873847685,77.5,0,90,3.0,0,0.0
0.36,0.19186090753201765,77.5,0,90,3.0,0,0.0
0.365,0.16148868344343878,77.5,0,90,3.0,0,0.0
0.37,0.1334809643017881,77.5,0,90,3.0,0,0.0
0.375,0.10834733138818531,77.5,0,90,3.0,0,0.0
0.38,0.08636519236690572,77.5,0,90,3.0,0,0.0
0.385,0.06760532616242629,77.5,0,90,3.0,0,0.0
0.39,0.05196904332202373,77.5,0,90,3.0,0,0.0
0.395,0.03923107185803287,77.5,0,90,3.0,0,0.0
0.4,0.02908287038705761,77.5,0,90,3.0,0,0.0
0.405,0.02117220077308346,77.5,0,90,3.0,0,0.0
0.41,0.0151361834125735,77.5,0,90,3.0,0,0.0
0.415,0.010626454858290009,77.5,0,90,3.0,0,0.0
0.42,0.007326255555493652,77.5,0,90,3.0,0,0.0
0.425,0.004960179211183015,77.5,0,90,3.0,0,0.0
0.43,0.0032978759379303545,77.5,0,90,3.0,0,0.0
0.435,0.002153242296767213,77.5,0,90,3.0,0,0.0
0.44,0.001380616732225004,77.5,0,90,3.0,0,0.0
0.445,0.0008693106590991584,77.5,0,90,3.0,0,0.0
0.45,0.000537524815942247,77.5,0,90,3.0,0,0.0
0.455,0.0003263951340288585,77.5,0,90,3.0,0,0.0
0.46,0.00019463030985187395,77.5,0,90,3.0,0,0.0
0.465,0.00011397219555062695,77.5,0,90,3.0,0,0.0
0.47,6.55403863487943e-05,77.5,0,90,3.0,0,0.0
0.475,3.701184389455385e-05,77.5,0,90,3.0,0,0.0
0.48,2.0525516217290957e-05,77.5,0,90,3.0,0,0.0
0.485,1.1178128483661116e-05,77.5,0,90,3.0,0,0.0
0.49,5.978135409912517e-06,77.5,0,90,3.0,0,0.0
0.495,3.1396702713238487e-06,77.5,0,90,3.0,0,0.0
0.5,1.6192875458531019e-06,77.5,0,90,3.0,0,0.0
0.505,8.201353897972012e-07,77.5,0,90,3.0,0,0.0
0.51,4.0791415086824765e-07,77.5,0,90,3.0,0,0.0
0.515,1.9923866938774793e-07,77.5,0,90,3.0,0,0.0
0.52,9.556527981051257e-08,77.5,0,90,3.0,0,0.0
0.525,4.501406988770349e-08,77.5,0,90,3.0,0,0.0
0.53,0.0,77.5,0,90,3.0,0,0.0
0.535,0.0,77.5,0,90,3.0,0,0.0
0.54,0.0,77.5,0,90,3.0,0,0.0
0.545,0.0,77.5,0,90,3.0,0,0.0
0.55,0.0,77.5,0,90,3.0,0,0.0
0.555,0.0,77.5,0,90,3.0,0,0.0
0.56,0.0,77.5,0,90,3.0,0,0.0
0.565,0.0,77.5,0,90,3.0,0,0.0
0.57,0.0,77.5,0,90,3.0,0,0.0
0.575,0.0,77.5,0,90,3.0,0,0.0
0.58,0.0,77.5,0,90,3.0,0,0.0
0.585,0.0,77.5,0,90,3.0,0,0.0
0.59,0.0,77.5,0,90,3.0,0,0.0
0.595,0.0,77.5,0,90,3.0,0,0.0
0.6,0.0,77.5,0,90,3.0,0,0.0
0.605,0.0,77.5,0,90,3.0,0,0.0
0.61,0.001684486749771458,77.5,0,90,3.0,0,0.0
0.615,0.004172395771277602,77.5,0,90,3.0,0,0.0
0.62,0.009438687428818865,77.5,0,90,3.0,0,0.0
0.625,0.019500507867137046,77.5,0,90,3.0,0,0.0
0.63,0.03679496976339974,77.5,0,90,3.0,0,0.0
0.635,0.06340728953298436,77.5,0,90,3.0,0,0.0
0.64,0.09979255396093453,77.5,0,90,3.0,0,0.0
0.645,0.14343835518453557,77.5,0,90,3.0,0,0.0
0.65,0.18829581417209276,77.5,0,90,3.0,0,0.0
0.655,0.2257481735193119,77.5,0,90,3.0,0,0.0
0.66,0.24718154073554727,77.5,0,90,3.0,0,0.0
0.665,0.24718154074102772,77.5,0,90,3.0,0,0.0
0.67,0.22574817354072055,77.5,0,90,3.0,0,0.0
0.675,0.18829581422840957,77.5,0,90,3.0,0,0.0
0.68,0.14343835532456656,77.5,0,90,3.0,0,0.0
0.685,0.09979255431561854,77.5,0,90,3.0,0,0.0
0.69,0.06340729067170194,77.5,0,90,3.0,0,0.0
0.695,0.03679497683410042,77.5,0,90,3.0,0,0.0
0.7,0.019500578284482293,77.5,0,90,3.0,0,0.0
0.705,0.009439396781978427,77.5,0,90,3.0,0,0.0
0.71,0.004178588733610924,77.5,0,90,3.0,0,0.0
0.715,0.0017299316936037381,77.5,0,90,3.0,0,0.0
0.72,0.0008997325756988589,77.5,0,90,3.0,0,0.0
0.725,0.001634769674224814,77.5,0,90,3.0,0,0.0
0.73,0.00614904736476635,77.5,0,90,3.0,0,0.0
0.735,0.02168080359963608,77.5,0,90,3.0,0,0.0
0.74,0.06433400338904088,77.5,0,90,3.0,0,0.0
0.745,0.1593410769217493,77.5,0,90,3.0,0,0.0
0.75,0.3291989194808569,77.5,0,90,3.0,0,0.0
0.755,0.5672906802982638,77.5,0,90,3.0,0,0.0
0.76,0.815339152120446,77.5,0,90,3.0,0,0.0
0.765,0.9768711246313155,77.50000284586159,1,90,3.0,0,5.8677558500516847e-08
0.77,0.9726380909165361,77.50000527961552,0,90,3.0,0,1.0885805199295553e-07
0.775,0.7921091683291741,77.50001031954956,0,90,3.0,0,2.1277421772716367e-07
0.78,0.49139090102639077,77.5000219076864,0,90,3.0,0,4.517048742836215e-07
0.785,0.15739335672107918,77.5000513062313,0,90,3.0,0,1.0578604391548184e-06
0.79,-0.11102342218909485,77.50013076005604,0,90,3.0,0,2.6960836296509407e-06
0.795,-0.2314207883647528,77.50035020381222,0,90,3.0,0,7.220697159130761e-06
0.8,-0.2029124434754801,77.50095018691317,0,90,3.0,0,1.9591482745824776e-05
0.805,-0.11151350554305876,77.50254252172627,0,90,3.0,0,5.242312837668747e-05
0.81,-0.039430666652076896,77.50659976740856,0,90,3.0,0,0.00013607767852699768
0.815,-0.006087703519843621,77.51646537881305,0,90,3.0,0,0.00033949234666087036
0.82,0.005350271385530551,77.53928253215116,0,90,3.0,0,0.00080994911651881
0.825,0.010381647827441833,77.58937615985101,0,90,3.0,0,0.0018428074196085336
0.83,0.015115203303506243,77.69363594416527,0,90,3.0,0,0.003992493694129186
0.835,0.021170964062928475,77.89914273187748,0,90,3.0,0,0.008229747049020112
0.84,0.029082821134029553,78.28242166935907,0,90,3.0,0,0.016132405553795196
0.845,0.03923107061708144,78.95815265228912,0,90,3.0,0,0.03006500313998176
0.85,0.051969043308817596,80.08310908029944,0,90,3.0,0,0.05325998103710179
0.855,0.06760532616283861,81.84927459141106,0,90,3.0,0,0.08967576477136206
0.86,0.08636519236693461,84.45983730743244,0,90,3.0,0,0.14350180015324612
0.865,0.10834733138818661,88.08459313200352,0,90,3.0,0,0.2182390336495571
0.87,0.1334809643017884,92.79797719482352,0,90,3.0,0,0.31542221020254674
0.875,0.16148868344343945,98.51242125918112,0,90,3.0,0,0.4332457991583737
0.88,0.191860907532018,104.92855626497301,0,90,3.0,0,0.5655372425767631
0.885,0.22384764873847726,111.52691835651606,0,90,3.0,0,0.7015859454951766
0.89,0.25647215537198226,117.61903404505797,0,90,3.0,0,0.827196578248618
0.895,0.2885689161419028,122.45858606973496,0,90,3.0,0,0.9269811560770096
0.9,0.31884566517832524,125.39083977274626,0,90,3.0,0,0.9874399953143559
0.905,0.3459657668955683,126.0,0,90,3.0,0,1.0
0.91,0.3686441789190902,124.20909158519541,0,90,3.0,0,0.9630740533029981
0.915,0.3857476379544367,120.29953639901376,0,90,3.0,0,0.8824646680209023
0.92,0.3963882865005728,114.84382327361675,0,90,3.0,0,0.7699757376003453
0.925,0.4,108.57369951396845,0,90,3.0,0,0.6406948353395556
0.93,0.39638828650057273,102.2258821880279,0,90,3.0,0,0.5098120038768639
0.935,0.38574763795443656,96.40992335364712,0,90,3.0,0,0.389895326879322
0.94,0.36864417891908974,91.52930221937348,0,90,3.0,0,0.2892639632860511
0.945,0.345965766895568,87.76478426184879,0,90,3.0,0,0.21164503632677914
0.95,0.3188456651783249,85.10862158827653,0,90,3.0,0,0.15687879563456772
0.955,0.28856891614190205,83.42656336784474,0,90,3.0,0,0.1221971828421595
0.96,0.2564721553719815,82.52378753042284,0,90,3.0,0,0.1035832480499554
0.965,0.22384764873847685,82.19783132916163,0,90,3.0,0,0.09686250163219856
0.97,0.19186090753201765,82.27134594925722,0,90,3.0,0,0.09837826699499432
0.975,0.16148868344343878,82.60568848479885,0,90,3.0,0,0.10527192752162572
0.98,0.1334809643017881,83.10088201483204,0,90,3.0,0,0.11548210339859873
0.985,0.10834733138818531,83.68840901871987,0,90,3.0,0,0.12759606224164674
0.99,0.08636519236690572,84.32197791292448,0,90,3.0,0,0.14065933841081404
0.995,0.06760532616242629,84.96931088968523,0,90,3.0,0,0.15400641009660274
1.0,0.05196904332202373,85.60616534397113,0,90,3.0,0,0.16713742977260057
1.005,0.03923107185803287,86.21263167382902,0,90,3.0,0,0.1796418901820417
1.01,0.02908287038705761,86.77121984433278,0,90,3.0,0,0.19115917204809849
1.015,0.02117220077308346,87.26614028210291,0,90,3.0,0,0.20136371715676102
1.02,0.0151361834125735,87.68327944307798,0,90,3.0,0,0.20996452459954595
1.025,0.010626454858290009,88.01051741167255,0,90,3.0,0,0.21671169920974334
1.03,0.007326255555493652,88.23816273562356,0,90,3.0,0,0.22140541722935178
1.035,0.004960179211183015,88.35936913531009,0,90,3.0,0,0.22390451825381627
1.04,0.0032978759379303545,88.3704549759066,0,90,3.0,0,0.22413309228673395
1.045,0.002153242296767213,88.27108106749418,0,90,3.0,0,0.22208414572152949
1.05,0.001380616732225004,88.06426526041847,0,90,3.0,0,0.2178199022766694
1.055,0.0008693106590991584,87.75622938752784,0,90,3.0,0,0.21146864716552244
1.06,0.000537524815942247,87.35608811985259,0,90,3.0,0,0.20321831174953786
1.065,0.0003263951340288585,86.87540102954962,0,90,3.0,0,0.1933072377226726
1.07,0.00019463030985187395,86.32761843902698,0,90,3.0,0,0.18201275132014386
1.075,0.00011397219555062695,85.72745804544682,0,90,3.0,0,0.16963831021539844
1.08,6.55403863487943e-05,85.09025249472462,0,90,3.0,0,0.1565000514376211
1.085,3.701184389455385e-05,84.43130793834682,0,90,3.0,0,0.14291356573910968
1.09,2.0525516217290957e-05,83.7653103417945,0,90,3.0,0,0.12918165653184543
1.095,1.1178128483661116e-05,83.10581041043784,0,90,3.0,0,0.11558371980284206
1.1,5.978135409912517e-06,82.46481016288601,0,90,3.0,0,0.1023672198533198
1.105,3.1396702713238487e-06,81.85246524967621,0,90,3.0,0,0.08974155153971576
1.11,1.6192875458531019e-06,81.276907956434,0,90,3.0,0,0.07787439085430932
1.115,8.201353897972012e-07,80.74418725350604,0,90,3.0,0,0.06689045883517611
1.12,4.0791415086824765e-07,80.25831492720756,0,90,3.0,0,0.056872472725929164
1.125,1.9923866938774793e-07,79.82140122596148,0,90,3.0,0,0.04786394280332949
1.13,9.556527981051257e-08,79.43385983225944,0,90,3.0,0,0.039873398603287494
1.135,4.501406988770349e-08,79.09466036456183,0,90,3.0,0,0.03287959514560479
1.14,0.0,78.80160686539986,0,90,3.0,0,0.026837254956698177
1.145,0.0,78.55162253760456,0,90,3.0,0,0.021682938919681614
1.15,0.0,78.34102394918298,0,90,3.0,0,0.017340699983154285
1.155,0.0,78.16577159895577,0,90,3.0,0,0.0137272494630056
1.16,0.0,78.02168769123986,0,90,3.0,0,0.010756447242059007
1.165,0.0,77.90463583247852,0,90,3.0,0,0.008343006855227193
1.17,0.0,77.81066083961933,0,90,3.0,0,0.006405378136481049
1.175,0.0,77.73608973677702,0,90,3.0,0,0.004867829624268409
1.18,0.0,77.67759720552577,0,90,3.0,0,0.003661798052077754
1.185,0.0,77.63224022257143,0,90,3.0,0,0.0027266025272458896
1.19,0.0,77.59746741293033,0,90,3.0,0,0.0020096373800067655
1.195,0.0,77.57110886220912,0,90,3.0,0,0.001466162107404441
1.2,0.0,77.55135189140306,0,90,3.0,0,0.0010588018845991423
1.205,0.0,77.53670773455,0,90,3.0,1,0.0007568605061856994
1.21,0.0,77.52597330075044,0,90,3.0,1,0.0005355319742358057
1.215,0.0,77.51819135838316,0,90,3.0,1,0.00037507955429202044
1.22,0.0,77.51261163923783,0,90,3.0,1,0.00026003379871818866
1.225,0.0,77.50865458747553,0,90,3.0,1,0.00017844510258831027
1.23,0.0,77.50587881276304,0,90,3.0,1,0.00012121263428955844
1.235,0.0,77.5039527678497,0,90,3.0,1,8.150036803498289e-05
1.24,0.0,77.5026307611049,0,90,3.0,1,5.424249700817218e-05
1.245,0.0,77.50173312521085,0,90,3.0,1,3.5734540429848964e-05
1.25,0.0,77.50113017810872,0,90,3.0,1,2.3302641416991072e-05
1.255,0.0,77.50072951170684,0,90,3.0,1,1.5041478491477542e-05
1.26,0.0,77.50046610747096,0,90,3.0,1,9.610463318680203e-06
1.265,0.0,77.50029478697198,0,90,3.0,1,6.078081896445378e-06
1.27,0.0,77.50018454357595,0,90,3.0,1,3.805022184636626e-06
1.275,0.0,77.5001143557486,0,90,3.0,1,2.357850486457688e-06
1.28,0.0,77.50007014318696,0,90,3.0,1,1.446251277527444e-06
1.285,0.0,77.50004258742786,0,90,3.0,1,8.780912960048095e-07
1.29,0.0,77.50002559444704,0,90,3.0,1,5.277205574886991e-07
1.295,0.0,77.50001522574371,0,90,3.0,1,3.139328599872053e-07
1.3,0.0,77.5000089656071,0,90,3.0,1,1.8485787822822944e-07
1.305,0.0,77.50000522575824,0,90,3.0,1,1.0774759265793186e-07
1.31,0.0,77.50000301500023,0,90,3.0,1,6.21649532309e-08
1.315,0.001684486749771458,77.50000172184403,0,90,3.0,1,3.5501938745040105e-08
1.32,0.004172395771277602,77.50000097334923,0,90,3.0,1,2.0069056299970978e-08
1.325,0.009438687428818865,77.50000054464309,0,90,3.0,1,1.1229754354363397e-08
1.33,0.019500507867137046,77.50000030166417,0,90,3.0,1,6.219879850570728e-09
1.335,0.03679496976339974,77.50000016538796,0,90,3.0,1,3.410061017066911e-09
1.34,0.06340728953298436,77.50000008975371,0,90,3.0,1,1.850592000373956e-09
1.345,0.09979255396093453,77.5000000482136,0,90,3.0,1,9.940947034620061e-10
1.35,0.14343835518453557,77.50000002563627,0,90,3.0,1,5.285828498842617e-10
1.355,0.18829581417209276,77.50000001349301,0,90,3.0,1,2.782063422704802e-10
1.36,0.2257481735193119,77.50000000702961,0,90,3.0,1,1.449404628390804e-10
1.365,0.24718154073554727,77.50000000362512,0,90,3.0,1,7.474470069225681e-11
1.37,0.24718154074102772,77.50000000185047,0,90,3.0,1,3.8153947355464515e-11
1.375,0.22574817354072055,77.50000000093499,0,90,3.0,1,1.927812319859795e-11
1.38,0.18829581422840957,77.50000000046764,0,90,3.0,1,9.641991672436131e-12
1.385,0.14343835532456656,77.50000000023151,0,90,3.0,1,4.773382147739296e-12
1.39,0.09979255431561854,77.50000000011345,0,90,3.0,1,2.3390773853908783e-12
1.395,0.06340729067170194,77.50000000005502,0,90,3.0,1,1.1345243187064363e-12
1.4,0.03679497683410042,77.50000000002642,0,90,3.0,1,5.447005961971242e-13
1.405,0.019500578284482293,77.50000000001256,0,90,3.0,1,2.590184653245066e-13
1.41,0.009439396781978427,77.50000000000591,0,90,3.0,1,1.2189104250565017e-13
1.415,0.004178588733610924,77.50000000000276,0,90,3.0,1,5.684341886080802e-14
1.42,0.0017299316936037381,77.50000000000126,0,90,3.0,1,2.6077650920679964e-14
1.425,0.0008997325756988589,77.50000000000058,0,90,3.0,1,1.2013299862335714e-14
1.43,0.001634769674224814,77.50000000000026,0,90,3.0,1,5.274131646879094e-15
1.435,0.00614904736476635,77.50000000000011,0,90,3.0,1,2.344058509724042e-15
1.44,0.02168080359963608,77.50000000000006,0,90,3.0,1,1.172029254862021e-15
1.445,0.06433400338904088,77.50000000000003,0,90,3.0,1,5.860146274310105e-16
1.45,0.1593410769217493,77.50000000000001,0,90,3.0,1,2.9300731371550523e-16
1.455,0.3291989194808569,77.5,0,90,3.0,1,0.0
1.46,0.5672906802982638,77.5,0,90,3.0,1,0.0
1.465,0.815339152120446,77.5,0,90,3.0,1,0.0
1.47,0.9768711246313155,77.50000284322633,1,90,3.0,1,5.862322322426144e-08
1.475,0.9726380909165361,77.50000534910116,0,90,3.0,1,1.102907455352232e-07
1.48,0.7921091683291741,77.50001063505204,0,90,3.0,1,2.1927942341171353e-07
1.485,0.49139090102639077,77.50002307583767,0,90,3.0,1,4.757904675148218e-07
1.49,0.15739335672107918,77.5000554713907,0,90,3.0,1,1.143740014331155e-06
1.495,-0.11102342218909485,77.50014526993121,0,90,3.0,1,2.9952563136014092e-06
1.5,-0.2314207883647528,77.5003988898635,0,90,3.0,1,8.224533268130659e-06
1.505,-0.2029124434754801,77.5011054659756,0,90,3.0,1,2.279311289893738e-05
1.51,-0.11151350554305876,77.50300976888175,0,90,3.0,1,6.205709034543127e-05
1.515,-0.039430666652076896,77.50792185780857,0,90,3.0,1,0.00016333727440347813
1.52,-0.006087703519843621,77.51997904089026,0,90,3.0,1,0.0004119389874281015
1.525,0.005350271385530551,77.54805187102536,0,90,3.0,1,0.000990760227327109
1.53,0.010381647827441833,77.60993273918042,0,90,3.0,1,0.0022666544160911822
1.535,0.015115203303506243,77.73890414692885,0,90,3.0,1,0.0049258586995638304
1.54,0.021170964062928475,77.99279598451152,0,90,3.0,1,0.01016074194869107
1.545,0.029082821134029553,78.46442565053172,0,90,3.0,1,0.01988506495941697
1.55,0.03923107061708144,79.29027244272471,0,90,3.0,1,0.03691283387061265
1.555,0.051969043308817596,80.65176405432197,0,90,3.0,1,0.06498482586230872
1.56,0.06760532616283861,82.76179436299392,0,90,3.0,1,0.10849060542255515
1.565,0.08636519236693461,85.82984126010565,0,90,3.0,1,0.1717493043320753
1.57,0.10834733138818661,90.00401066771741,0,90,3.0,1,0.257814652942627
1.575,0.1334809643017884,95.29777724070067,0,90,3.0,1,0.3669644791897045
1.58,0.16148868344343945,101.52070486511198,0,90,3.0,1,0.4952722652600408
1.585,0.191860907532018,108.24076061437154,0,90,3.0,1,0.633830115760238
1.59,0.22384764873847726,114.80477932285345,0,90,3.0,1,0.7691707076877
1.595,0.25647215537198226,120.42962228136281,0,90,3.0,1,0.8851468511621198
1.6,0.2885689161419028,124.35209848293255,0,90,3.0,1,0.9660226491326298
1.605,0.31884566517832524,126.0,0,90,3.0,1,1.0
1.61,0.3459657668955683,125.13199699060715,0,90,3.0,1,0.982103030734168
1.615,0.3686441789190902,121.89956504594475,0,90,3.0,1,0.9154549494009228
1.62,0.3857476379544367,116.80934959217932,0,90,3.0,1,0.8105020534469962
1.625,0.3963882865005728,110.59911497723489,0,90,3.0,1,0.6824559789120596
1.63,0.4,104.06935062625563,0,90,3.0,1,0.5478216623970232
1.635,0.39638828650057273,97.92347769263611,0,90,3.0,1,0.421102632837858
1.64,0.38574763795443656,92.65949215512845,0,90,3.0,1,0.3125668485593494
1.645,0.36864417891908974,88.53181629485155,0,90,3.0,1,0.22746012979075364
1.65,0.345965766895568,85.57626122980984,0,90,3.0,1,0.16652085009917206
1.655,0.3188456651783249,83.67383914290984,0,90,3.0,1,0.12729565243113075
1.66,0.28856891614190205,82.62499201165721,0,90,3.0,1,0.1056699383846848
1.665,0.2564721553719815,82.2123239726345,0,90,3.0,1,0.09716131902339162
1.67,0.22384764873847685,82.24122011682826,0,90,3.0,1,0.09775711581089194
1.675,0.19186090753201765,82.5580522820505,0,90,3.0,1,0.10428973777423704
1.68,0.16148868344343878,83.05182219454407,0,90,3.0,1,0.11447056071224893
1.685,0.1334809643017881,83.64676889072895,0,90,3.0,1,0.12673750290162783
1.69,0.10834733138818531,84.29215130262087,0,90,3.0,1,0.1400443567550694
1.695,0.08636519236690572,84.95297587109219,0,90,3.0,1,0.15366960558952975
1.7,0.06760532616242629,85.6032141410097,0,90,3.0,1,0.16707658022700414
1.705,0.05196904332202373,86.22161625213593,0,90,3.0,1,0.17982713921929755
1.71,0.03923107185803287,86.78956826301784,0,90,3.0,1,0.19153748995913075
1.715,0.02908287038705761,87.29030500025087,0,90,3.0,1,0.20186195876805912
1.72,0.02117220077308346,87.70890109634271,0,90,3.0,1,0.21049280611015905
1.725,0.0151361834125735,88.03263653005703,0,90,3.0,1,0.21716776350633057
1.73,0.010626454858290009,88.25148247455117,0,90,3.0,1,0.22168005102167357
1.735,0.007326255555493652,88.35855638009744,0,90,3.0,1,0.22388776041438022
1.74,0.004960179211183015,88.35045923154104,0,90,3.0,1,0.22372080889775336
1.745,0.0032978759379303545,88.22744713680183,0,90,3.0,1,0.2211844770474604
1.75,0.002153242296767213,87.99341542663203,0,90,3.0,1,0.21635908096148507
1.755,0.001380616732225004,87.65569305578572,0,90,3.0,1,0.20939573310898388
1.76,0.0008693106590991584,87.22466123620943,0,90,3.0,1,0.20050847909710162
1.765,0.000537524815942247,86.71322360224083,0,90,3.0,1,0.189963373242079
1.77,0.0003263951340288585,86.13616550482689,0,90,3.0,1,0.17806526814076065
1.775,0.00019463030985187395,85.50944672085147,0,90,3.0,1,0.1651432313577623
1.78,0.00011397219555062695,84.84947457720351,0,90,3.0,1,0.15153555829285587
1.785,6.55403863487943e-05,84.17240320268115,0,90,3.0,1,0.1375753237666217
1.79,3.701184389455385e-05,83.49349969202193,0,90,3.0,1,0.12357731323756552
1.795,2.0525516217290957e-05,82.8266100918151,0,90,3.0,1,0.10982701220237316
1.8,1.1178128483661116e-05,82.18374823881719,0,90,3.0,1,0.09657212863540593
1.805,5.978135409912517e-06,81.57481966179543,0,90,3.0,1,0.08401690024320475
1.81,3.1396702713238487e-06,81.00748205938964,0,90,3.0,1,0.07231921771937412
1.815,1.6192875458531019e-06,80.48713423047259,0,90,3.0,1,0.061590396504589515
1.82,8.201353897972012e-07,80.01701749313209,0,90,3.0,1,0.051897267899630665
1.825,4.0791415086824765e-07,79.59840805263835,0,90,3.0,1,0.04326614541522367
1.83,1.9923866938774793e-07,79.23087565482302,0,90,3.0,1,0.03568815783140255
1.835,9.556527981051257e-08,78.91258311223406,0,90,3.0,1,0.029125424994516702
1.84,4.501406988770349e-08,78.64060262096777,0,90,3.0,1,0.023517579813768435
1.845,0.0,78.41122774696173,0,90,3.0,1,0.018788200968283056
1.85,0.0,78.22026402057521,0,90,3.0,1,0.01485080454794257
1.855,0.0,78.06328569392375,0,90,3.0,1,0.0116141380190463
1.86,0.0,77.93585088962875,0,90,3.0,1,0.00898661628100522
1.865,0.0,77.83367169477451,0,90,3.0,1,0.006879828758237296
1.87,0.0,77.75273943637394,0,90,3.0,1,0.005211122399462747
1.875,0.0,77.68940824197168,0,90,3.0,1,0.0039053245767356024
1.88,0.0,77.64044198158881,0,90,3.0,1,0.0028957109605939712
1.885,0.0,77.60303083963844,0,90,3.0,1,0.00212434720903991
1.89,0.0,77.57478418147271,0,90,3.0,1,0.0015419418860352196
1.895,0.0,77.55370620498225,0,90,3.0,1,0.001107344432623672
1.9,0.0,77.53816026664151,0,90,3.0,1,0.0007868096214744733
1.905,0.0,77.5268269037557,0,90,3.0,1,0.0005531320362000976
1.91,0.0,77.51865958225872,0,90,3.0,1,0.00038473365481898506
1.915,0.0,77.51284119666562,0,90,3.0,1,0.00026476694155915014
1.92,0.0,77.50874341903805,0,90,3.0,1,0.00018027668119700757
1.925,0.0,77.505890189993,0,90,3.0,1,0.00012144721635044119
1.93,0.0,77.50392599307456,0,90,3.0,1,8.09483108156721e-05
1.935,0.0,77.50258905913398,0,90,3.0,1,5.338266255632296e-05
1.94,0.0,77.5016892993909,0,90,3.0,1,3.483091527636903e-05
1.945,0.0,77.50109054476202,0,90,3.0,1,2.2485459010757733e-05
1.95,0.0,77.50069655045753,0,90,3.0,1,1.436186510378067e-05
1.955,0.0,77.50044018362493,0,90,3.0,1,9.075951029515017e-06
1.96,0.0,77.50027522469445,0,90,3.0,1,5.674735968003793e-06
1.965,0.0,77.50017026019599,0,90,3.0,1,3.510519504872493e-06
1.97,0.0,77.50010421040284,0,90,3.0,1,2.1486680997647275e-06
1.975,0.0,77.50006310753771,0,90,3.0,1,1.3011863445954827e-06
1.98,0.0,77.5000378114743,0,90,3.0,1,7.796180268049977e-07
1.985,0.0,77.50002241497207,0,90,3.0,1,4.6216437247672616e-07
1.99,0.0,77.5000131469499,0,90,3.0,1,2.710711318914693e-07
1.995,0.0,77.50000762928833,0,90,3.0,1,1.57304914093458e-07
2.0,0.0,77.50000438041506,0,90,3.0,1,9.031783636216751e-08
2.005,0.001684486749771458,77.50000248839153,0,90,3.0,1,5.1307041859058467e-08
2.01,0.004172395771277602,77.50000139860276,0,90,3.0,1,2.8837170360667496e-08
2.015,0.009438687428818865,77.50000077775401,0,90,3.0,1,1.6036165165526644e-08
2.02,0.019500507867137046,77.50000042791977,0,90,3.0,1,8.823088092895821e-09
2.025,0.03679496976339974,77.50000023294568,0,90,3.0,1,4.803003722119365e-09
2.03,0.06340728953298436,77.50000012546401,0,90,3.0,1,2.586886855929198e-09
2.035,0.09979255396093453,77.50000006685839,0,90,3.0,1,1.3785235221371999e-09
2.04,0.14343835518453557,77.50000003525047,0,90,3.0,1,7.268137248980359e-10
2.045,0.18829581417209276,77.50000001838849,0,90,3.0,1,3.791441387650209e-10
2.05,0.2257481735193119,77.50000000949072,0,90,3.0,1,1.9568493446490017e-10
2.055,0.24718154073554727,77.50000000484647,0,90,3.0,1,9.99272142695359e-11
2.06,0.24718154074102772,77.50000000244863,0,90,3.0,1,5.048721120437756e-11
2.065,0.22574817354072055,77.50000000122404,0,90,3.0,1,2.5237891959571327e-11
2.07,0.18829581422840957,77.50000000060538,0,90,3.0,1,1.2482111564280523e-11
2.075,0.14343835532456656,77.50000000029624,0,90,3.0,1,6.108030461713422e-12
2.08,0.09979255431561854,77.50000000014343,0,90,3.0,1,2.9573228173305944e-12
2.085,0.06340729067170194,77.50000000006871,0,90,3.0,1,1.4166903618144677e-12
2.09,0.03679497683410042,77.50000000003256,0,90,3.0,1,6.712797557222225e-13
2.095,0.019500578284482293,77.50000000001526,0,90,3.0,1,3.146898549304526e-13
2.1,0.009439396781978427,77.50000000000708,0,90,3.0,1,1.4591764223032162e-13
2.105,0.004178588733610924,77.50000000000325,0,90,3.0,1,6.70986748408507e-14
2.11,0.0017299316936037381,77.50000000000148,0,90,3.0,1,3.047276062641254e-14
2.115,0.0008997325756988589,77.50000000000067,0,90,3.0,1,1.3771343744628746e-14
2.12,0.001634769674224814,77.5000000000003,0,90,3.0,1,6.15315358802561e-15
2.125,0.00614904736476635,77.50000000000013,0,90,3.0,1,2.637065823439547e-15
2.13,0.02168080359963608,77.50000000000006,0,90,3.0,1,1.172029254862021e-15
2.135,0.06433400338904088,77.50000000000003,0,90,3.0,1,5.860146274310105e-16
2.14,0.1593410769217493,77.50000000000001,0,90,3.0,1,2.9300731371550523e-16
2.145,0.3291989194808569,77.5,0,90,3.0,1,0.0
2.15,0.5672906802982638,77.5,0,90,3.0,1,0.0
2.155,0.815339152120446,77.5,0,90,3.0,1,0.0
2.16,0.9768711246313155,77.50000284403532,1,90,3.0,1,5.8639903544616635e-08
2.165,0.9726380909165361,77.50000563434857,0,90,3.0,1,1.161721354257923e-07
2.17,0.7921091683291741,77.50001194034442,0,90,3.0,1,2.4619266848754496e-07
2.175,0.49139090102639077,77.50002813743002,0,90,3.0,1,5.801531963196297e-07
2.18,0.15739335672107918,77.50007456926916,0,90,3.0,1,1.5375107043195215e-06
2.185,-0.11102342218909485,77.50021555237494,0,90,3.0,1,4.444378864730322e-06
2.19,-0.2314207883647528,77.50064634651709,0,90,3.0,1,1.332673231106653e-05
2.195,-0.2029124434754801,77.50192715835341,0,90,3.0,1,3.973522378166224e-05
2.2,-0.11151350554305876,77.50556436458237,0,90,3.0,1,0.00011472916664678985
2.205,-0.039430666652076896,77.5153360380951,0,90,3.0,1,0.0003162069710329893
2.21,-0.006087703519843621,77.54004933030063,0,90,3.0,1,0.0008257593876419144
2.215,0.005350271385530551,77.59872426259801,0,90,3.0,1,0.002035551806144569
2.22,0.010381647827441833,77.72927397114614,0,90,3.0,1,0.004727298374147262
2.225,0.015115203303506243,78.0011213460085,0,90,3.0,1,0.01033239888677326
2.23,0.021170964062928475,78.53026214977955,0,90,3.0,1,0.02124251855215558
2.235,0.029082821134029553,79.49175422945842,0,90,3.0,1,0.041067097514606646
2.24,0.03923107061708144,81.12018821167895,0,90,3.0,1,0.0746430559109062
2.245,0.051969043308817596,83.68572301825407,0,90,3.0,1,0.12754068078874364
2.25,0.06760532616283861,87.43548636982642,0,90,3.0,1,0.204855389068586
2.255,0.08636519236693461,92.5008021671065,0,90,3.0,1,0.30929489004343297
2.26,0.10834733138818661,98.78935026029112,0,90,3.0,1,0.4389556754699199
2.265,0.1334809643017884,105.90117170753103,0,90,3.0,1,0.585591169227444
2.27,0.16148868344343945,113.11621193300405,0,90,3.0,1,0.7343548852165784
2.275,0.191860907532018,119.48749438013431,0,90,3.0,1,0.8657215336110167
2.28,0.22384764873847726,124.03653874510518,0,90,3.0,1,0.9595162627856737
2.285,0.25647215537198226,126.0,0,90,3.0,1,1.0
2.29,0.2885689161419028,125.04326482741723,0,90,3.0,1,0.9802735015962316
2.295,0.31884566517832524,121.35937653466117,0,90,3.0,1,0.9043170419517766
2.3,0.3459657668955683,115.61360140385835,0,90,3.0,1,0.7858474516259455
2.305,0.3686441789190902,108.75594891707162,0,90,3.0,1,0.6444525549911674
2.31,0.3857476379544367,101.77461151529064,0,90,3.0,1,0.5005074539235185
2.315,0.3963882865005728,95.47810717617381,0,90,3.0,1,0.37068262218915066
2.32,0.4,90.36949924832,0,90,3.0,1,0.26535049996536075
2.325,0.39638828650057273,86.62992216347705,0,90,3.0,1,0.18824581780365046
2.33,0.38574763795443656,84.18612234560806,0,90,3.0,1,0.1378581926929496
2.335,0.36864417891908974,82.81567309579101,0,90,3.0,1,0.1096015071297116
2.34,0.345965766895568,82.24668045311486,0,90,3.0,1,0.09786970006422396
2.345,0.3188456651783249,82.22677563441158,0,90,3.0,1,0.09745929143116662
2.35,0.28856891614190205,82.55618463062414,0,90,3.0,1,0.10425122949740505
2.355,0.2564721553719815,83.09295775268306,0,90,3.0,1,0.11531871655016625
2.36,0.22384764873847685,83.74288099322293,0,90,3.0,1,0.12871919573655516
2.365,0.19186090753201765,84.44470761789947,0,90,3.0,1,0.1431898477917416
2.37,0.16148868344343878,85.15701212826306,0,90,3.0,1,0.15787653872707344
2.375,0.1334809643017881,85.84902108131057,0,90,3.0,1,0.17214476456310449
2.38,0.10834733138818531,86.49535961413758,0,90,3.0,1,0.18547133225025947
2.385,0.08636519236690572,87.07368281210313,0,90,3.0,1,0.1973955218990336
2.39,0.06760532616242629,87.56407233300035,0,90,3.0,1,0.2075066460412444
2.395,0.05196904332202373,87.94934169797176,0,90,3.0,1,0.21545034428807755
2.4,0.03923107185803287,88.21569761819234,0,90,3.0,1,0.22094221893180077
2.405,0.02908287038705761,88.35343302302121,0,90,3.0,1,0.22378212418600435
2.41,0.02117220077308346,88.35747043745516,0,90,3.0,2,0.22386536984443636
2.415,0.0151361834125735,88.22765859398775,0,90,3.0,2,0.22118883698943825
2.42,0.010626454858290009,87.96877763919233,0,90,3.0,2,0.21585108534417166
2.425,0.007326255555493652,87.59024579975109,0,90,3.0,2,0.20804630514950698
2.43,0.004960179211183015,87.10555038207744,0,90,3.0,2,0.19805258519747296
2.435,0.0032978759379303545,86.53145038403952,0,90,3.0,2,0.18621547183586631
2.44,0.002153242296767213,85.88701624442398,0,90,3.0,2,0.17292816998812321
2.445,0.001380616732225004,85.1925832624303,0,90,3.0,2,0.1586099641738207
2.45,0.0008693106590991584,84.46869833167638,0,90,3.0,2,0.14368450168404903
2.455,0.000537524815942247,83.73513500639436,0,90,3.0,2,0.1285594846679249
2.46,0.0003263951340288585,83.0100405618299,0,90,3.0,2,0.11360908374907003
2.465,0.00019463030985187395,82.30926233944837,0,90,3.0,2,0.09916004823604879
2.47,0.00011397219555062695,81.6458814331628,0,90,3.0,2,0.08548209140541854
2.475,6.55403863487943e-05,81.02996195780577,0,90,3.0,2,0.07278272077950036
2.48,3.701184389455385e-05,80.46850585648903,0,90,3.0,2,0.06120630631936147
2.485,2.0525516217290957e-05,79.96558814237727,0,90,3.0,2,0.05083686891499528
2.49,1.1178128483661116e-05,79.52263674653703,0,90,3.0,2,0.04170385044406251
2.495,5.978135409912517e-06,79.13881522901951,0,90,3.0,2,0.03379000472205183
2.5,3.1396702713238487e-06,78.81146536827063,0,90,3.0,2,0.02704052305712643
2.505,1.6192875458531019e-06,78.53656943790337,0,90,3.0,2,0.02137256572996633
2.51,8.201353897972012e-07,78.30919783276481,0,90,3.0,2,0.016684491397212564
2.515,4.0791415086824765e-07,78.12391547782335,0,90,3.0,2,0.012864236656151455
2.52,1.9923866938774793e-07,77.97512900761184,0,90,3.0,2,0.009796474383749296
2.525,9.556527981051257e-08,77.85736504432592,0,90,3.0,2,0.007368351429400348
2.53,4.501406988770349e-08,77.76547726284619,0,90,3.0,2,0.005473757996828657
2.535,0.0,77.69478581665143,0,90,3.0,2,0.00401620240518417
2.54,0.0,77.6411568854654,0,90,3.0,2,0.00291045124670941
2.545,0.0,77.60103260291042,0,90,3.0,2,0.002083146451761279
2.55,0.0,77.57142261616407,0,90,3.0,2,0.0014726312611148655
2.555,0.0,77.54986831612662,0,90,3.0,2,0.0010282127036416499
2.56,0.0,77.53438970032784,0,90,3.0,2,0.0007090659861409428
2.565,0.0,77.52342323181401,0,90,3.0,2,0.00048295323327850095
2.57,0.0,77.5157572338132,0,90,3.0,2,0.0003248914188289516
2.575,0.0,77.5104695467323,0,90,3.0,2,0.0002158669429339278
2.58,0.0,77.50687053439142,0,90,3.0,2,0.0001416605029159711
2.585,0.0,77.50445315583923,0,90,3.0,2,9.18176461696771e-05
2.59,0.0,77.50285075573734,0,90,3.0,2,5.8778468811167315e-05
2.595,0.0,77.50180246507347,0,90,3.0,2,3.7164228318914934e-05
2.6,0.0,77.50112561130648,0,90,3.0,2,2.320848054592744e-05
2.605,0.0,77.50069426420308,0,90,3.0,2,1.4314725836628867e-05
2.61,0.0,77.50042293715272,0,90,3.0,2,8.720353664334793e-06
2.615,0.0,77.50025447295847,0,90,3.0,2,5.246865123178123e-06
2.62,0.0,77.5001512245073,0,90,3.0,2,3.1180310784715326e-06
2.625,0.0,77.50008876003304,0,90,3.0,2,1.8301037739641372e-06
2.63,0.0,77.50005145498665,0,90,3.0,2,1.0609275597237956e-06
2.635,0.0,77.50002946132142,0,90,3.0,2,6.074499261445715e-07
2.64,0.0,77.50001666064122,0,90,3.0,2,3.4351837571521924e-07
2.645,0.001684486749771458,77.50000930563341,0,90,3.0,2,1.9186873015014592e-07
2.65,0.004172395771277602,77.50000513351583,0,90,3.0,2,1.0584568716572885e-07
2.655,0.009438687428818865,77.50000279703956,0,90,3.0,2,5.767091868891811e-08
2.66,0.019500507867137046,77.50000150520984,0,90,3.0,2,3.103525438474236e-08
2.665,0.03679496976339974,77.50000080003728,0,90,3.0,2,1.649561411176899e-08
2.67,0.06340728953298436,77.50000041998922,0,90,3.0,2,8.659571552381805e-09
2.675,0.09979255396093453,77.50000021776135,0,90,3.0,2,4.48992482139972e-09
2.68,0.14343835518453557,77.50000011151626,0,90,3.0,2,2.2993042796198217e-09
2.685,0.18829581417209276,77.50000005640405,0,90,3.0,2,1.162970054736565e-09
2.69,0.2257481735193119,77.50000002817715,0,90,3.0,2,5.809722645692803e-10
2.695,0.24718154073554727,77.50000001390269,0,90,3.0,2,2.866534501175845e-10
2.7,0.24718154074102772,77.5000000067751,0,90,3.0,2,1.396927018504357e-10
2.705,0.22574817354072055,77.50000000326096,0,90,3.0,2,6.723638827829698e-11
2.71,0.18829581422840957,77.50000000155022,0,90,3.0,2,3.196328883128332e-11
2.715,0.14343835532456656,77.50000000072787,0,90,3.0,2,1.5007541601194463e-11
2.72,0.09979255431561854,77.50000000033754,0,90,3.0,2,6.9595097153706806e-12
2.725,0.06340729067170194,77.5000000001546,0,90,3.0,2,3.1876265659109813e-12
2.73,0.03679497683410042,77.50000000006995,0,90,3.0,2,1.4421819981077167e-12
2.735,0.019500578284482293,77.50000000003125,0,90,3.0,2,6.44323082860396e-13
2.74,0.009439396781978427,77.50000000001378,0,90,3.0,2,2.8421709430404007e-13
2.745,0.004178588733610924,77.50000000000601,0,90,3.0,2,1.239420937016587e-13
2.75,0.0017299316936037381,77.50000000000259,0,90,3.0,2,5.332733109622195e-14
2.755,0.0008997325756988589,77.5000000000011,0,90,3.0,2,2.25615631560939e-14
2.76,0.001634769674224814,77.50000000000045,0,90,3.0,2,9.376234038896167e-15
2.765,0.00614904736476635,77.50000000000018,0,90,3.0,2,3.809095078301568e-15
2.77,0.02168080359963608,77.50000000000007,0,90,3.0,2,1.465036568577526e-15
2.775,0.06433400338904088,77.50000000000003,0,90,3.0,2,5.860146274310105e-16
2.78,0.1593410769217493,77.50000000000001,0,90,3.0,2,2.9300731371550523e-16
2.785,0.3291989194808569,77.5,0,90,3.0,2,0.0
2.79,0.5672906802982638,77.5,0,90,3.0,2,0.0
2.795,0.815339152120446,77.5,0,90,3.0,2,0.0
2.8,0.9768711246313155,77.50000284322633,1,90,3.0,2,5.862322322426144e-08
2.805,0.9726380909165361,77.50000534910116,0,90,3.0,2,1.102907455352232e-07
2.81,0.7921091683291741,77.50001063505204,0,90,3.0,2,2.1927942341171353e-07
2.815,0.49139090102639077,77.50002307583767,0,90,3.0,2,4.757904675148218e-07
2.82,0.15739335672107918,77.5000554713907,0,90,3.0,2,1.143740014331155e-06
2.825,-0.11102342218909485,77.50014526993121,0,90,3.0,2,2.9952563136014092e-06
2.83,-0.2314207883647528,77.5003988898635,0,90,3.0,2,8.224533268130659e-06
2.835,-0.2029124434754801,77.5011054659756,0,90,3.0,2,2.279311289893738e-05
2.84,-0.11151350554305876,77.50300976888175,0,90,3.0,2,6.205709034543127e-05
2.845,-0.039430666652076896,77.50792185780857,0,90,3.0,2,0.00016333727440347813
2.85,-0.006087703519843621,77.51997904089026,0,90,3.0,2,0.0004119389874281015
2.855,0.005350271385530551,77.54805187102536,0,90,3.0,2,0.000990760227327109
2.86,0.010381647827441833,77.60993273918042,0,90,3.0,2,0.0022666544160911822
2.865,0.015115203303506243,77.73890414692885,0,90,3.0,2,0.0049258586995638304
2.87,0.021170964062928475,77.99279598451152,0,90,3.0,2,0.01016074194869107
2.875,0.029082821134029553,78.46442565053172,0,90,3.0,2,0.01988506495941697
2.88,0.03923107061708144,79.29027244272471,0,90,3.0,2,0.03691283387061265
2.885,0.051969043308817596,80.65176405432197,0,90,3.0,2,0.06498482586230872
2.89,0.06760532616283861,82.76179436299392,0,90,3.0,2,0.10849060542255515
2.895,0.08636519236693461,85.82984126010565,0,90,3.0,2,0.1717493043320753
2.9,0.10834733138818661,90.00401066771741,0,90,3.0,2,0.257814652942627
2.905,0.1334809643017884,95.29777724070067,0,90,3.0,2,0.3669644791897045
2.91,0.16148868344343945,101.52070486511198,0,90,3.0,2,0.4952722652600408
2.915,0.191860907532018,108.24076061437154,0,90,3.0,2,0.633830115760238
2.92,0.22384764873847726,114.80477932285345,0,90,3.0,2,0.7691707076877
2.925,0.25647215537198226,120.42962228136281,0,90,3.0,2,0.8851468511621198
2.93,0.2885689161419028,124.35209848293255,0,90,3.0,2,0.9660226491326298
2.935,0.31884566517832524,126.0,0,90,3.0,2,1.0
2.94,0.3459657668955683,125.13199699060715,0,90,3.0,2,0.982103030734168
2.945,0.3686441789190902,121.89956504594475,0,90,3.0,2,0.9154549494009228
2.95,0.3857476379544367,116.80934959217932,0,90,3.0,2,0.8105020534469962
2.955,0.3963882865005728,110.59911497723489,0,90,3.0,2,0.6824559789120596
2.96,0.4,104.06935062625563,0,90,3.0,2,0.5478216623970232
2.965,0.39638828650057273,97.92347769263611,0,90,3.0,2,0.421102632837858
2.97,0.38574763795443656,92.65949215512845,0,90,3.0,2,0.3125668485593494
2.975,0.36864417891908974,88.53181629485155,0,90,3.0,2,0.22746012979075364
2.98,0.345965766895568,85.57626122980984,0,90,3.0,2,0.16652085009917206
2.985,0.3188456651783249,83.67383914290984,0,90,3.0,2,0.12729565243113075
2.99,0.28856891614190205,82.62499201165721,0,90,3.0,2,0.1056699383846848
2.995,0.2564721553719815,82.2123239726345,0,90,3.0,2,0.09716131902339162
3.0,0.22384764873847685,82.24122011682826,0,90,3.0,2,0.09775711581089194
3.005,0.19186090753201765,82.5580522820505,0,90,3.0,2,0.10428973777423704
3.01,0.16148868344343878,83.05182219454407,0,90,3.0,2,0.11447056071224893
3.015,0.1334809643017881,83.64676889072895,0,90,3.0,2,0.12673750290162783
3.02,0.10834733138818531,84.29215130262087,0,90,3.0,2,0.1400443567550694
3.025,0.08636519236690572,84.95297587109219,0,90,3.0,2,0.15366960558952975
3.03,0.06760532616242629,85.6032141410097,0,90,3.0,2,0.16707658022700414
3.035,0.05196904332202373,86.22161625213593,0,90,3.0,2,0.17982713921929755
3.04,0.03923107185803287,86.78956826301784,0,90,3.0,2,0.19153748995913075
3.045,0.02908287038705761,87.29030500025087,0,90,3.0,2,0.20186195876805912
3.05,0.02117220077308346,87.70890109634271,0,90,3.0,2,0.21049280611015905
3.055,0.0151361834125735,88.03263653005703,0,90,3.0,2,0.21716776350633057
3.06,0.010626454858290009,88.25148247455117,0,90,3.0,2,0.22168005102167357
3.065,0.007326255555493652,88.35855638009744,0,90,3.0,2,0.22388776041438022
3.07,0.004960179211183015,88.35045923154104,0,90,3.0,2,0.22372080889775336
3.075,0.0032978759379303545,88.22744713680183,0,90,3.0,2,0.2211844770474604
3.08,0.002153242296767213,87.99341542663203,0,90,3.0,2,0.21635908096148507
3.085,0.001380616732225004,87.65569305578572,0,90,3.0,2,0.20939573310898388
3.09,0.0008693106590991584,87.22466123620943,0,90,3.0,2,0.20050847909710162
3.095,0.000537524815942247,86.71322360224083,0,90,3.0,2,0.189963373242079
3.1,0.0003263951340288585,86.13616550482689,0,90,3.0,2,0.17806526814076065
3.105,0.00019463030985187395,85.50944672085147,0,90,3.0,2,0.1651432313577623
3.11,0.00011397219555062695,84.84947457720351,0,90,3.0,2,0.15153555829285587
3.115,6.55403863487943e-05,84.17240320268115,0,90,3.0,2,0.1375753237666217
3.12,3.701184389455385e-05,83.49349969202193,0,90,3.0,2,0.12357731323756552
3.125,2.0525516217290957e-05,82.8266100918151,0,90,3.0,2,0.10982701220237316
3.13,1.1178128483661116e-05,82.18374823881719,0,90,3.0,2,0.09657212863540593
3.135,5.978135409912517e-06,81.57481966179543,0,90,3.0,2,0.08401690024320475
3.14,3.1396702713238487e-06,81.00748205938964,0,90,3.0,2,0.07231921771937412
3.145,1.6192875458531019e-06,80.48713423047259,0,90,3.0,2,0.061590396504589515
3.15,8.201353897972012e-07,80.01701749313209,0,90,3.0,2,0.051897267899630665
3.155,4.0791415086824765e-07,79.59840805263835,0,90,3.0,2,0.04326614541522367
3.16,1.9923866938774793e-07,79.23087565482302,0,90,3.0,2,0.03568815783140255
3.165,9.556527981051257e-08,78.91258311223406,0,90,3.0,2,0.029125424994516702
3.17,4.501406988770349e-08,78.64060262096777,0,90,3.0,2,0.023517579813768435
3.175,0.0,78.41122774696173,0,90,3.0,2,0.018788200968283056
3.18,0.0,78.22026402057521,0,90,3.0,2,0.01485080454794257
3.185,0.0,78.06328569392375,0,90,3.0,2,0.0116141380190463
3.19,0.0,77.93585088962875,0,90,3.0,2,0.00898661628100522
3.195,0.0,77.83367169477451,0,90,3.0,2,0.006879828758237296
3.2,0.0,77.75273943637394,0,90,3.0,2,0.005211122399462747
3.205,0.0,77.68940824197168,0,90,3.0,2,0.0039053245767356024
3.21,0.0,77.64044198158881,0,90,3.0,2,0.0028957109605939712
3.215,0.0,77.60303083963844,0,90,3.0,2,0.00212434720903991
3.22,0.0,77.57478418147271,0,90,3.0,2,0.0015419418860352196
3.225,0.0,77.55370620498225,0,90,3.0,2,0.001107344432623672
3.23,0.0,77.53816026664151,0,90,3.0,2,0.0007868096214744733
3.235,0.0,77.5268269037557,0,90,3.0,2,0.0005531320362000976
3.24,0.0,77.51865958225872,0,90,3.0,2,0.00038473365481898506
3.245,0.0,77.51284119666562,0,90,3.0,2,0.00026476694155915014
3.25,0.0,77.50874341903805,0,90,3.0,2,0.00018027668119700757
3.255,0.0,77.505890189993,0,90,3.0,2,0.00012144721635044119
3.26,0.0,77.50392599307456,0,90,3.0,2,8.09483108156721e-05
3.265,0.0,77.50258905913398,0,90,3.0,2,5.338266255632296e-05
3.27,0.0,77.5016892993909,0,90,3.0,2,3.483091527636903e-05
3.275,0.0,77.50109054476202,0,90,3.0,2,2.2485459010757733e-05
3.28,0.0,77.50069655045753,0,90,3.0,2,1.436186510378067e-05
3.285,0.0,77.50044018362493,0,90,3.0,2,9.075951029515017e-06
3.29,0.0,77.50027522469445,0,90,3.0,2,5.674735968003793e-06
3.295,0.0,77.50017026019599,0,90,3.0,2,3.510519504872493e-06
3.3,0.0,77.50010421040284,0,90,3.0,2,2.1486680997647275e-06
3.305,0.0,77.50006310753771,0,90,3.0,2,1.3011863445954827e-06
3.31,0.0,77.5000378114743,0,90,3.0,2,7.796180268049977e-07
3.315,0.0,77.50002241497207,0,90,3.0,2,4.6216437247672616e-07
3.32,0.0,77.5000131469499,0,90,3.0,2,2.710711318914693e-07
3.325,0.0,77.50000762928833,0,90,3.0,2,1.57304914093458e-07
3.33,0.0,77.50000438041506,0,90,3.0,2,9.031783636216751e-08
3.335,0.001684486749771458,77.50000248839153,0,90,3.0,2,5.1307041859058467e-08
3.34,0.004172395771277602,77.50000139860276,0,90,3.0,2,2.8837170360667496e-08
3.345,0.009438687428818865,77.50000077775401,0,90,3.0,2,1.6036165165526644e-08
3.35,0.019500507867137046,77.50000042791977,0,90,3.0,2,8.823088092895821e-09
3.355,0.03679496976339974,77.50000023294568,0,90,3.0,2,4.803003722119365e-09
3.36,0.06340728953298436,77.50000012546401,0,90,3.0,2,2.586886855929198e-09
3.365,0.09979255396093453,77.50000006685839,0,90,3.0,2,1.3785235221371999e-09
3.37,0.14343835518453557,77.50000003525047,0,90,3.0,2,7.268137248980359e-10
3.375,0.18829581417209276,77.50000001838849,0,90,3.0,2,3.791441387650209e-10
3.38,0.2257481735193119,77.50000000949072,0,90,3.0,2,1.9568493446490017e-10
3.385,0.24718154073554727,77.50000000484647,0,90,3.0,2,9.99272142695359e-11
3.39,0.24718154074102772,77.50000000244863,0,90,3.0,2,5.048721120437756e-11
3.395,0.22574817354072055,77.50000000122404,0,90,3.0,2,2.5237891959571327e-11
3.4,0.18829581422840957,77.50000000060538,0,90,3.0,2,1.2482111564280523e-11
3.405,0.14343835532456656,77.50000000029624,0,90,3.0,2,6.108030461713422e-12
3.41,0.09979255431561854,77.50000000014343,0,90,3.0,2,2.9573228173305944e-12
3.415,0.06340729067170194,77.50000000006871,0,90,3.0,2,1.4166903618144677e-12
3.42,0.03679497683410042,77.50000000003256,0,90,3.0,2,6.712797557222225e-13
3.425,0.019500578284482293,77.50000000001526,0,90,3.0,2,3.146898549304526e-13
3.43,0.009439396781978427,77.50000000000708,0,90,3.0,2,1.4591764223032162e-13
3.435,0.004178588733610924,77.50000000000325,0,90,3.0,2,6.70986748408507e-14
3.44,0.0017299316936037381,77.50000000000148,0,90,3.0,2,3.047276062641254e-14
3.445,0.0008997325756988589,77.50000000000067,0,90,3.0,2,1.3771343744628746e-14
3.45,0.001634769674224814,77.5000000000003,0,90,3.0,2,6.15315358802561e-15
3.455,0.00614904736476635,77.50000000000013,0,90,3.0,2,2.637065823439547e-15
3.46,0.02168080359963608,77.50000000000006,0,90,3.0,2,1.172029254862021e-15
3.465,0.06433400338904088,77.50000000000003,0,90,3.0,2,5.860146274310105e-16
3.47,0.1593410769217493,77.50000000000001,0,90,3.0,2,2.9300731371550523e-16
3.475,0.3291989194808569,77.5,0,90,3.0,2,0.0
3.48,0.5672906802982638,77.5,0,90,3.0,2,0.0
3.485,0.815339152120446,77.5,0,90,3.0,2,0.0
3.49,0.9768711246313155,77.50000284291268,1,90,3.0,2,5.861675625984043e-08
3.495,0.9726380909165361,77.50000522692886,0,90,3.0,2,1.0777172913539917e-07
3.5,0.7921091683291741,77.50001010593378,0,90,3.0,2,2.0836976870631373e-07
3.505,0.49139090102639077,77.50002115808796,0,90,3.0,2,4.362492363045546e-07
3.51,0.15739335672107918,77.50004873144633,0,90,3.0,2,1.0047720892187725e-06
3.515,-0.11102342218909485,77.50012204127654,0,90,3.0,2,2.5163149802182555e-06
3.52,-0.2314207883647528,77.50032158556677,0,90,3.0,2,6.630630242602117e-06
3.525,-0.2029124434754801,77.50086047282088,0,90,3.0,2,1.7741707646911384e-05
3.53,-0.11151350554305876,77.50227619849099,0,90,3.0,2,4.6931927649260726e-05
3.535,-0.039430666652076896,77.50585406698202,0,90,3.0,2,0.00012070241200050761
3.54,-0.006087703519843621,77.51449898858581,0,90,3.0,2,0.0002989482182642016
3.545,0.005350271385530551,77.53440094392403,0,90,3.0,2,0.0007092978128665301
3.55,0.010381647827441833,77.57796670837776,0,90,3.0,2,0.0016075609974795506
3.555,0.015115203303506243,77.6685259197955,0,90,3.0,2,0.0034747612328968895
3.56,0.021170964062928475,77.84710211151138,0,90,3.0,2,0.00715674456724486
3.565,0.029082821134029553,78.18086360927958,0,90,3.0,2,0.014038424933599664
3.57,0.03923107061708144,78.7715875433569,0,90,3.0,2,0.02621829986302889
3.575,0.051969043308817596,79.76067812311462,0,90,3.0,2,0.04661192006421888
3.58,0.06760532616283861,81.32552390807211,0,90,3.0,2,0.07887678160973431
3.585,0.08636519236693461,83.66132971593116,0,90,3.0,2,0.1270377261016734
3.59,0.10834733138818661,86.94435559703112,0,90,3.0,2,0.19472898138208494
3.595,0.1334809643017884,91.27765000366787,0,90,3.0,2,0.284075257807585
3.6,0.16148868344343945,96.628418341855,0,90,3.0,2,0.3944003781825772
3.605,0.191860907532018,102.77464193552817,0,90,3.0,2,0.5211266378459416
3.61,0.22384764873847726,109.2832947276284,0,90,3.0,2,0.6553256644871835
3.615,0.25647215537198226,115.5393329500605,0,90,3.0,3,0.7843161433002165
3.62,0.2885689161419028,120.83191669137463,0,90,3.0,3,0.8934415812654563
3.625,0.31884566517832524,124.48492700457163,0,90,3.0,3,0.9687613815375594
3.63,0.3459657668955683,126.0,0,90,3.0,3,1.0
3.635,0.3686441789190902,125.17073715235551,0,90,3.0,3,0.9829017969557838
3.64,0.3857476379544367,122.13222029908319,0,90,3.0,3,0.9202519649295502
3.645,0.3963882865005728,117.32968092689705,0,90,3.0,3,0.821230534575197
3.65,0.4,111.41655459304312,0,90,3.0,3,0.6993104039802704
3.655,0.39638828650057273,105.11429578624514,0,90,3.0,3,0.5693669234277348
3.66,0.38574763795443656,99.07544972812437,0,90,3.0,3,0.4448546335695746
3.665,0.36864417891908974,93.78509210187892,0,90,3.0,3,0.3357750948841014
3.67,0.345965766895568,89.51831812564839,0,90,3.0,3,0.24780037372470912
3.675,0.3188456651783249,86.35143581333647,0,90,3.0,3,0.18250383120281372
3.68,0.28856891614190205,84.20981931374517,0,90,3.0,3,0.13834678997412725
3.685,0.2564721553719815,82.92999868673395,0,90,3.0,3,0.11195873580894748
3.69,0.22384764873847685,82.31678578427645,0,90,3.0,3,0.09931517080982366
3.695,0.19186090753201765,82.18425183246814,0,90,3.0,3,0.09658251200965227
3.7,0.16148868344343878,82.37782282094385,0,90,3.0,3,0.10057366641121336
3.705,0.1334809643017881,82.78069542455634,0,90,3.0,3,0.10888031803208952
3.71,0.10834733138818531,83.31030373623537,0,90,3.0,3,0.1198000770357808
3.715,0.08636519236690572,83.91036403083501,0,90,3.0,3,0.13217245424402088
3.72,0.06760532616242629,84.54240741608544,0,90,3.0,3,0.14520427662031832
3.725,0.05196904332202373,85.17885117145109,0,90,3.0,3,0.15832682827734199
3.73,0.03923107185803287,85.79822972686465,0,90,3.0,3,0.17109752014153912
3.735,0.02908287038705761,86.38238945811577,0,90,3.0,3,0.18314205068279932
3.74,0.02117220077308346,86.91513824815956,0,90,3.0,3,0.19412656181772298
3.745,0.0151361834125735,87.38182755512767,0,90,3.0,3,0.20374902175520973
3.75,0.010626454858290009,87.76945625933718,0,90,3.0,3,0.21174136617190054
3.755,0.007326255555493652,88.06701587257524,0,90,3.0,3,0.2178766159293864
3.76,0.004960179211183015,88.26590102215914,0,90,3.0,3,0.2219773406630751
3.765,0.0032978759379303545,88.36027952866407,0,90,3.0,3,0.22392328925080549
3.77,0.002153242296767213,88.34736028951566,0,90,3.0,3,0.22365691318588996
3.775,0.001380616732225004,88.22752467406713,0,90,3.0,3,0.22118607575396138
3.78,0.0008693106590991584,88.00430591779762,0,90,3.0,3,0.216583627171085
3.785,0.000537524815942247,87.68421547101619,0,90,3.0,3,0.20998382414466366
3.79,0.0003263951340288585,87.27642730310674,0,90,3.0,3,0.20157582068261326
3.795,0.00019463030985187395,86.79234121998647,0,90,3.0,3,0.19159466432961791
3.8,0.00011397219555062695,86.24505409713203,0,90,3.0,3,0.1803103937552995
3.805,6.55403863487943e-05,85.64877318084139,0,90,3.0,3,0.16801594187301833
3.81,3.701184389455385e-05,85.0182079909067,0,90,3.0,3,0.15501459775065365
3.815,2.0525516217290957e-05,84.36797682077905,0,90,3.0,3,0.14160776950059895
3.82,1.1178128483661116e-05,83.71206058866679,0,90,3.0,3,0.12808372347766572
3.825,5.978135409912517e-06,83.06333129407486,0,90,3.0,3,0.1147078617335022
3.83,3.1396702713238487e-06,82.43317520844727,0,90,3.0,3,0.10171495275149003
3.835,1.6192875458531019e-06,81.83122290878103,0,90,3.0,3,0.08930356512950577
3.84,8.201353897972012e-07,81.2651901026225,0,90,3.0,3,0.07763278562108243
3.845,4.0791415086824765e-07,80.74082558665786,0,90,3.0,3,0.06682114611665696
3.85,1.9923866938774793e-07,80.26195620089626,0,90,3.0,3,0.0569475505339436
3.855,9.556527981051257e-08,79.8306136902024,0,90,3.0,3,0.04805389051963707
3.86,4.501406988770349e-08,79.44722517980838,0,90,3.0,3,0.04014897277955432
3.865,0.0,79.11084753982108,0,90,3.0,3,0.033213351336517115
3.87,0.0,78.81942611946013,0,90,3.0,3,0.027204662256909946
3.875,0.0,78.57005991099739,0,90,3.0,3,0.02206309094839972
3.88,0.0,78.35925780995424,0,90,3.0,3,0.017716655875345228
3.885,0.0,78.18317389066814,0,90,3.0,3,0.014086059601405024
3.89,0.0,78.03781314146194,0,90,3.0,3,0.011088930751792556
3.895,0.0,77.91920257088249,0,90,3.0,3,0.008643351976958558
3.9,0.0,77.82352574244823,0,90,3.0,3,0.006670633864911868
3.905,0.0,77.7472214363384,0,90,3.0,3,0.00509734920285375
3.91,0.0,77.68704917015539,0,90,3.0,3,0.0038566839207296957
3.915,0.0,77.64012570929647,0,90,3.0,3,0.00288918988240144
3.92,0.0,77.60393749359159,0,90,3.0,3,0.0021430411049811818
3.925,0.0,77.57633417800548,0,90,3.0,3,0.00157390057743261
3.93,0.0,77.55550833549475,0,90,3.0,3,0.0011445017627783479
3.935,0.0,77.53996591435897,0,90,3.0,3,0.0008240394713190312
3.94,0.0,77.52849139278503,0,90,3.0,3,0.00058745139762945
3.945,0.0,77.52011082950858,0,90,3.0,3,0.0004146562785274572
3.95,0.0,77.51405525295831,0,90,3.0,3,0.0002897990300683437
3.955,0.0,77.50972612229039,0,90,3.0,3,0.0002005386039255291
3.96,0.0,77.50666397199244,0,90,3.0,3,0.00013740148438016862
3.965,0.0,77.50452083834722,0,90,3.0,3,9.321316179832194e-05
3.97,0.0,77.5030366670062,0,90,3.0,3,6.261169084947264e-05
3.975,0.0,77.50201961106382,0,90,3.0,3,4.164146523330554e-05
3.98,0.0,77.50132993583813,0,90,3.0,3,2.7421357487193894e-05
3.985,0.0,77.50086713360042,0,90,3.0,3,1.787904330768404e-05
3.99,0.0,77.50055980106244,0,90,3.0,3,1.1542289947150606e-05
3.995,0.0,77.50035782757026,0,90,3.0,3,7.377888046498013e-06
4.0,0.0,77.50022646769418,0,90,3.0,3,4.669436993326505e-06
4.005,0.0,77.50014191591274,0,90,3.0,3,2.926101293508406e-06
4.01,0.0,77.50008805384176,0,90,3.0,3,1.8155431291688728e-06
4.015,0.0,77.5000540950966,0,90,3.0,3,1.1153628165207994e-06
4.02,0.0,77.50003290484658,0,90,3.0,3,6.784504448918147e-07
4.025,0.0,77.50001981774416,0,90,3.0,3,4.0861328165726834e-07
4.03,0.0,77.50001181791718,0,90,3.0,3,2.436683955365129e-07
4.035,0.0,77.50000697782454,0,90,3.0,3,1.4387267093607265e-07
4.04,0.0,77.50000407935522,0,90,3.0,3,8.411041694061985e-08
4.045,0.0,77.50000236132293,0,90,3.0,3,4.8687070668315706e-08
4.05,0.001684486749771458,77.50000135335465,0,90,3.0,3,2.79042195444097e-08
4.055,0.004172395771277602,77.50000076799826,0,90,3.0,3,1.583501564466095e-08
4.06,0.009438687428818865,77.50000043152029,0,90,3.0,3,8.897325597928036e-09
4.065,0.019500507867137046,77.50000024006818,0,90,3.0,3,4.949859280760889e-09
4.07,0.03679496976339974,77.50000013223924,0,90,3.0,3,2.7265821948454573e-09
4.075,0.06340728953298436,77.50000007212378,0,90,3.0,3,1.487088299007755e-09
4.08,0.09979255396093453,77.50000003894834,0,90,3.0,3,8.030586230365161e-10
4.085,0.14343835518453557,77.50000002082533,0,90,3.0,3,4.293881538990146e-10
4.09,0.18829581417209276,77.50000001102522,0,90,3.0,3,2.2732415720721413e-10
4.095,0.2257481735193119,77.5000000057793,0,90,3.0,3,1.191608003564491e-10
4.1,0.24718154073554727,77.50000000299954,0,90,3.0,3,6.184622573518654e-11
4.105,0.24718154074102772,77.50000000154144,0,90,3.0,3,3.1782210311407136e-11
4.11,0.22574817354072055,77.50000000078431,0,90,3.0,3,1.617136665127245e-11
4.115,0.18829581422840957,77.50000000039513,0,90,3.0,3,8.147068357859623e-12
4.12,0.14343835532456656,77.5000000001971,0,90,3.0,3,4.0640114412340575e-12
4.125,0.09979255431561854,77.50000000009734,0,90,3.0,3,2.0071000989512108e-12
4.13,0.06340729067170194,77.5000000000476,0,90,3.0,3,9.815745009469425e-13
4.135,0.03679497683410042,77.50000000002305,0,90,3.0,3,4.752578628465495e-13
4.14,0.019500578284482293,77.50000000001106,0,90,3.0,3,2.2795969007066307e-13
4.145,0.009439396781978427,77.50000000000524,0,90,3.0,3,1.0811969876102142e-13
4.15,0.004178588733610924,77.50000000000246,0,90,3.0,3,5.069026527278241e-14
4.155,0.0017299316936037381,77.50000000000115,0,90,3.0,3,2.3733592410955925e-14
4.16,0.0008997325756988589,77.50000000000053,0,90,3.0,3,1.0841270607473693e-14
4.165,0.001634769674224814,77.50000000000024,0,90,3.0,3,4.9811243331635886e-15
4.17,0.00614904736476635,77.50000000000011,0,90,3.0,3,2.344058509724042e-15
4.175,0.02168080359963608,77.50000000000004,0,90,3.0,3,8.790219411465157e-16
4.18,0.06433400338904088,77.50000000000001,0,90,3.0,3,2.9300731371550523e-16
4.185,0.1593410769217493,77.50000000000001,0,90,3.0,3,2.9300731371550523e-16
4.19,0.3291989194808569,77.5,0,90,3.0,3,0.0
4.195,0.5672906802982638,77.5,0,90,3.0,3,0.0
4.2,0.815339152120446,77.5,0,90,3.0,3,0.0
4.205,0.9768711246313155,77.50000284322633,1,90,3.0,3,5.862322322426144e-08
4.21,0.9726380909165361,77.50000534910116,0,90,3.0,3,1.102907455352232e-07
4.215,0.7921091683291741,77.50001063505204,0,90,3.0,3,2.1927942341171353e-07
4.22,0.49139090102639077,77.50002307583767,0,90,3.0,3,4.757904675148218e-07
4.225,0.15739335672107918,77.5000554713907,0,90,3.0,3,1.143740014331155e-06
4.23,-0.11102342218909485,77.50014526993121,0,90,3.0,3,2.9952563136014092e-06
4.235,-0.2314207883647528,77.5003988898635,0,90,3.0,3,8.224533268130659e-06
4.24,-0.2029124434754801,77.5011054659756,0,90,3.0,3,2.279311289893738e-05
4.245,-0.11151350554305876,77.50300976888175,0,90,3.0,3,6.205709034543127e-05
4.25,-0.039430666652076896,77.50792185780857,0,90,3.0,3,0.00016333727440347813
4.255,-0.006087703519843621,77.51997904089026,0,90,3.0,3,0.0004119389874281015
4.26,0.005350271385530551,77.54805187102536,0,90,3.0,3,0.000990760227327109
4.265,0.010381647827441833,77.60993273918042,0,90,3.0,3,0.0022666544160911822
4.27,0.015115203303506243,77.73890414692885,0,90,3.0,3,0.0049258586995638304
4.275,0.021170964062928475,77.99279598451152,0,90,3.0,3,0.01016074194869107
4.28,0.029082821134029553,78.46442565053172,0,90,3.0,3,0.01988506495941697
4.285,0.03923107061708144,79.29027244272471,0,90,3.0,3,0.03691283387061265
4.29,0.051969043308817596,80.65176405432197,0,90,3.0,3,0.06498482586230872
4.295,0.06760532616283861,82.76179436299392,0,90,3.0,3,0.10849060542255515
4.3,0.08636519236693461,85.82984126010565,0,90,3.0,3,0.1717493043320753
4.305,0.10834733138818661,90.00401066771741,0,90,3.0,3,0.257814652942627
4.31,0.1334809643017884,95.29777724070067,0,90,3.0,3,0.3669644791897045
4.315,0.16148868344343945,101.52070486511198,0,90,3.0,3,0.4952722652600408
4.32,0.191860907532018,108.24076061437154,0,90,3.0,3,0.633830115760238
4.325,0.22384764873847726,114.80477932285345,0,90,3.0,3,0.7691707076877
4.33,0.25647215537198226,120.42962228136281,0,90,3.0,3,0.8851468511621198
4.335,0.2885689161419028,124.35209848293255,0,90,3.0,3,0.9660226491326298
4.34,0.31884566517832524,126.0,0,90,3.0,3,1.0
4.345,0.3459657668955683,125.13199699060715,0,90,3.0,3,0.982103030734168
4.35,0.3686441789190902,121.89956504594475,0,90,3.0,3,0.9154549494009228
4.355,0.3857476379544367,116.80934959217932,0,90,3.0,3,0.8105020534469962
4.36,0.3963882865005728,110.59911497723489,0,90,3.0,3,0.6824559789120596
4.365,0.4,104.06935062625563,0,90,3.0,3,0.5478216623970232
4.37,0.39638828650057273,97.92347769263611,0,90,3.0,3,0.421102632837858
4.375,0.38574763795443656,92.65949215512845,0,90,3.0,3,0.3125668485593494
4.38,0.36864417891908974,88.53181629485155,0,90,3.0,3,0.22746012979075364
4.385,0.345965766895568,85.57626122980984,0,90,3.0,3,0.16652085009917206
4.39,0.3188456651783249,83.67383914290984,0,90,3.0,3,0.12729565243113075
4.395,0.28856891614190205,82.62499201165721,0,90,3.0,3,0.1056699383846848
4.4,0.2564721553719815,82.2123239726345,0,90,3.0,3,0.09716131902339162
4.405,0.22384764873847685,82.24122011682826,0,90,3.0,3,0.09775711581089194
4.41,0.19186090753201765,82.5580522820505,0,90,3.0,3,0.10428973777423704
4.415,0.16148868344343878,83.05182219454407,0,90,3.0,3,0.11447056071224893
4.42,0.1334809643017881,83.64676889072895,0,90,3.0,3,0.12673750290162783
4.425,0.10834733138818531,84.29215130262087,0,90,3.0,3,0.1400443567550694
4.43,0.08636519236690572,84.95297587109219,0,90,3.0,3,0.15366960558952975
4.435,0.06760532616242629,85.6032141410097,0,90,3.0,3,0.16707658022700414
4.44,0.05196904332202373,86.22161625213593,0,90,3.0,3,0.17982713921929755
4.445,0.03923107185803287,86.78956826301784,0,90,3.0,3,0.19153748995913075
4.45,0.02908287038705761,87.29030500025087,0,90,3.0,3,0.20186195876805912
4.455,0.02117220077308346,87.70890109634271,0,90,3.0,3,0.21049280611015905
4.46,0.0151361834125735,88.03263653005703,0,90,3.0,3,0.21716776350633057
4.465,0.010626454858290009,88.25148247455117,0,90,3.0,3,0.22168005102167357
4.47,0.007326255555493652,88.35855638009744,0,90,3.0,3,0.22388776041438022
4.475,0.004960179211183015,88.35045923154104,0,90,3.0,3,0.22372080889775336
4.48,0.0032978759379303545,88.22744713680183,0,90,3.0,3,0.2211844770474604
4.485,0.002153242296767213,87.99341542663203,0,90,3.0,3,0.21635908096148507
4.49,0.001380616732225004,87.65569305578572,0,90,3.0,3,0.20939573310898388
4.495,0.0008693106590991584,87.22466123620943,0,90,3.0,3,0.20050847909710162
4.5,0.000537524815942247,86.71322360224083,0,90,3.0,3,0.189963373242079
4.505,0.0003263951340288585,86.13616550482689,0,90,3.0,3,0.17806526814076065
4.51,0.00019463030985187395,85.50944672085147,0,90,3.0,3,0.1651432313577623
4.515,0.00011397219555062695,84.84947457720351,0,90,3.0,3,0.15153555829285587
4.52,6.55403863487943e-05,84.17240320268115,0,90,3.0,3,0.1375753237666217
4.525,3.701184389455385e-05,83.49349969202193,0,90,3.0,3,0.12357731323756552
4.53,2.0525516217290957e-05,82.8266100918151,0,90,3.0,3,0.10982701220237316
4.535,1.1178128483661116e-05,82.18374823881719,0,90,3.0,3,0.09657212863540593
4.54,5.978135409912517e-06,81.57481966179543,0,90,3.0,3,0.08401690024320475
4.545,3.1396702713238487e-06,81.00748205938964,0,90,3.0,3,0.07231921771937412
4.55,1.6192875458531019e-06,80.48713423047259,0,90,3.0,3,0.061590396504589515
4.555,8.201353897972012e-07,80.01701749313209,0,90,3.0,3,0.051897267899630665
4.56,4.0791415086824765e-07,79.59840805263835,0,90,3.0,3,0.04326614541522367
4.565,1.9923866938774793e-07,79.23087565482302,0,90,3.0,3,0.03568815783140255
4.57,9.556527981051257e-08,78.91258311223406,0,90,3.0,3,0.029125424994516702
4.575,4.501406988770349e-08,78.64060262096777,0,90,3.0,3,0.023517579813768435
4.58,0.0,78.41122774696173,0,90,3.0,3,0.018788200968283056
4.585,0.0,78.22026402057521,0,90,3.0,3,0.01485080454794257
4.59,0.0,78.06328569392375,0,90,3.0,3,0.0116141380190463
4.595,0.0,77.93585088962875,0,90,3.0,3,0.00898661628100522
4.6,0.0,77.83367169477451,0,90,3.0,3,0.006879828758237296
4.605,0.0,77.75273943637394,0,90,3.0,3,0.005211122399462747
4.61,0.0,77.68940824197168,0,90,3.0,3,0.0039053245767356024
4.615,0.0,77.64044198158881,0,90,3.0,3,0.0028957109605939712
4.62,0.0,77.60303083963844,0,90,3.0,3,0.00212434720903991
4.625,0.0,77.57478418147271,0,90,3.0,3,0.0015419418860352196
4.63,0.0,77.55370620498225,0,90,3.0,3,0.001107344432623672
4.635,0.0,77.53816026664151,0,90,3.0,3,0.0007868096214744733
4.64,0.0,77.5268269037557,0,90,3.0,3,0.0005531320362000976
4.645,0.0,77.51865958225872,0,90,3.0,3,0.00038473365481898506
4.65,0.0,77.51284119666562,0,90,3.0,3,0.00026476694155915014
4.655,0.0,77.50874341903805,0,90,3.0,3,0.00018027668119700757
4.66,0.0,77.505890189993,0,90,3.0,3,0.00012144721635044119
4.665,0.0,77.50392599307456,0,90,3.0,3,8.09483108156721e-05
4.67,0.0,77.50258905913398,0,90,3.0,3,5.338266255632296e-05
4.675,0.0,77.5016892993909,0,90,3.0,3,3.483091527636903e-05
4.68,0.0,77.50109054476202,0,90,3.0,3,2.2485459010757733e-05
4.685,0.0,77.50069655045753,0,90,3.0,3,1.436186510378067e-05
4.69,0.0,77.50044018362493,0,90,3.0,3,9.075951029515017e-06
4.695,0.0,77.50027522469445,0,90,3.0,3,5.674735968003793e-06
4.7,0.0,77.50017026019599,0,90,3.0,3,3.510519504872493e-06
4.705,0.0,77.50010421040284,0,90,3.0,3,2.1486680997647275e-06
4.71,0.0,77.50006310753771,0,90,3.0,3,1.3011863445954827e-06
4.715,0.0,77.5000378114743,0,90,3.0,3,7.796180268049977e-07
4.72,0.0,77.50002241497207,0,90,3.0,3,4.6216437247672616e-07
4.725,0.0,77.5000131469499,0,90,3.0,3,2.710711318914693e-07
4.73,0.0,77.50000762928833,0,90,3.0,3,1.57304914093458e-07
4.735,0.0,77.50000438041506,0,90,3.0,3,9.031783636216751e-08
4.74,0.001684486749771458,77.50000248839153,0,90,3.0,3,5.1307041859058467e-08
4.745,0.004172395771277602,77.50000139860276,0,90,3.0,3,2.8837170360667496e-08
4.75,0.009438687428818865,77.50000077775401,0,90,3.0,3,1.6036165165526644e-08
4.755,0.019500507867137046,77.50000042791977,0,90,3.0,3,8.823088092895821e-09
4.76,0.03679496976339974,77.50000023294568,0,90,3.0,3,4.803003722119365e-09
4.765,0.06340728953298436,77.50000012546401,0,90,3.0,3,2.586886855929198e-09
4.77,0.09979255396093453,77.50000006685839,0,90,3.0,3,1.3785235221371999e-09
4.775,0.14343835518453557,77.50000003525047,0,90,3.0,3,7.268137248980359e-10
4.78,0.18829581417209276,77.50000001838849,0,90,3.0,3,3.791441387650209e-10
4.785,0.2257481735193119,77.50000000949072,0,90,3.0,3,1.9568493446490017e-10
4.79,0.24718154073554727,77.50000000484647,0,90,3.0,3,9.99272142695359e-11
4.795,0.24718154074102772,77.50000000244863,0,90,3.0,3,5.048721120437756e-11
4.8,0.22574817354072055,77.50000000122404,0,90,3.0,3,2.5237891959571327e-11
4.805,0.18829581422840957,77.50000000060538,0,90,3.0,3,1.2482111564280523e-11
4.81,0.14343835532456656,77.50000000029624,0,90,3.0,3,6.108030461713422e-12
4.815,0.09979255431561854,77.50000000014343,0,90,3.0,3,2.9573228173305944e-12
4.82,0.06340729067170194,77.50000000006871,0,90,3.0,4,1.4166903618144677e-12
4.825,0.03679497683410042,77.50000000003256,0,90,3.0,4,6.712797557222225e-13
4.83,0.019500578284482293,77.50000000001526,0,90,3.0,4,3.146898549304526e-13
4.835,0.009439396781978427,77.50000000000708,0,90,3.0,4,1.4591764223032162e-13
4.84,0.004178588733610924,77.50000000000325,0,90,3.0,4,6.70986748408507e-14
4.845,0.0017299316936037381,77.50000000000148,0,90,3.0,4,3.047276062641254e-14
4.85,0.0008997325756988589,77.50000000000067,0,90,3.0,4,1.3771343744628746e-14
4.855,0.001634769674224814,77.5000000000003,0,90,3.0,4,6.15315358802561e-15
4.86,0.00614904736476635,77.50000000000013,0,90,3.0,4,2.637065823439547e-15
4.865,0.02168080359963608,77.50000000000006,0,90,3.0,4,1.172029254862021e-15
4.87,0.06433400338904088,77.50000000000003,0,90,3.0,4,5.860146274310105e-16
4.875,0.1593410769217493,77.50000000000001,0,90,3.0,4,2.9300731371550523e-16
4.88,0.3291989194808569,77.5,0,90,3.0,4,0.0
4.885,0.5672906802982638,77.5,0,90,3.0,4,0.0
4.89,0.815339152120446,77.5,0,90,3.0,4,0.0
4.895,0.9768711246313155,77.50000284143212,1,90,3.0,4,5.8586229292860976e-08
4.9,0.9726380909165361,77.50000583146736,0,90,3.0,4,1.202364404603547e-07
4.905,0.7921091683291741,77.50001291995002,0,90,3.0,4,2.6639072213640117e-07
4.91,0.49139090102639077,77.50003226688011,0,90,3.0,4,6.652964971509232e-07
4.915,0.15739335672107918,77.50009146729056,0,90,3.0,4,1.8859235166891051e-06
4.92,-0.11102342218909485,77.50028231969486,0,90,3.0,4,5.821024636312247e-06
4.925,-0.2314207883647528,77.50089563317056,0,90,3.0,4,1.8466663310466604e-05
4.93,-0.2029124434754801,77.50279477482674,0,90,3.0,4,5.7624223231740184e-05
4.935,-0.11151350554305876,77.50836230615555,0,90,3.0,4,0.00017241868361952817
4.94,-0.039430666652076896,77.52367979111813,0,90,3.0,4,0.00048824311583767037
4.945,-0.006087703519843621,77.5630506413428,0,90,3.0,4,0.001300013223562846
4.95,0.005350271385530551,77.65735119887681,0,90,3.0,4,0.0032443546160167086
4.955,0.010381647827441833,77.86746710715887,0,90,3.0,4,0.007576641384719037
4.96,0.015115203303506243,78.30236463021275,0,90,3.0,4,0.016543600622943303
4.965,0.021170964062928475,79.13733108826858,0,90,3.0,4,0.03375940388182642
4.97,0.029082821134029553,80.62181224102206,0,90,3.0,4,0.06436726270148568
4.975,0.03923107061708144,83.06062494683303,0,90,3.0,4,0.11465206075944392
4.98,0.051969043308817596,86.75239811914301,0,90,3.0,4,0.19077109524006206
4.985,0.06760532616283861,91.8807685365827,0,90,3.0,4,0.2965106914759321
4.99,0.08636519236693461,98.378581699193,0,90,3.0,4,0.43048622060191766
4.995,0.10834733138818661,105.81484382460435,0,90,3.0,4,0.5838112128784403
5.0,0.1334809643017884,113.37028529184028,0,90,3.0,4,0.7395935111719645
5.005,0.16148868344343945,119.95121217066642,0,90,3.0,4,0.8752827251683799
5.01,0.191860907532018,124.43853022744858,0,90,3.0,4,0.9678047469577027
5.015,0.22384764873847726,126.0,0,90,3.0,4,1.0
5.02,0.25647215537198226,124.34766027518786,0,90,3.0,4,0.9659311396945951
5.025,0.2885689161419028,119.83188579232352,0,90,3.0,4,0.872822387470588
5.03,0.31884566517832524,113.33063921599614,0,90,3.0,4,0.7387760663091988
5.035,0.3459657668955683,105.98251867436208,0,90,3.0,4,0.5872684262755069
5.04,0.3686441789190902,98.87536492166085,0,90,3.0,4,0.4407291736424917
5.045,0.3857476379544367,92.80643509047863,0,90,3.0,4,0.3155965998036831
5.05,0.3963882865005728,88.18058983620915,0,90,3.0,4,0.22021834713833302
5.055,0.4,85.04411319426126,0,90,3.0,4,0.1555487256548713
5.06,0.39638828650057273,83.20164974082076,0,90,3.0,4,0.11755978847053104
5.065,0.38574763795443656,82.35075838790847,0,90,3.0,4,0.10001563686409218
5.07,0.36864417891908974,82.18664603062561,0,90,3.0,4,0.09663187692011567
5.075,0.345965766895568,82.4593416048419,0,90,3.0,4,0.10225446607921435
5.08,0.3188456651783249,82.98936010076446,0,90,3.0,4,0.11318268248998882
5.085,0.28856891614190205,83.65844156520596,0,90,3.0,4,0.12697817660218477
5.09,0.2564721553719815,84.39128642988611,0,90,3.0,4,0.14208837999765173
5.095,0.22384764873847685,85.13833014088996,0,90,3.0,4,0.15749134311113325
5.1,0.19186090753201765,85.86358501918068,0,90,3.0,4,0.1724450519418696
5.105,0.16148868344343878,86.53774164025361,0,90,3.0,4,0.1863451884588374
5.11,0.1334809643017881,87.13514770436207,0,90,3.0,4,0.1986628392651973
5.115,0.10834733138818531,87.63311023993182,0,90,3.0,4,0.20893010803983142
5.12,0.08636519236690572,88.01234649405333,0,90,3.0,4,0.21674941224852232
5.125,0.06760532616242629,88.25784561540895,0,90,3.0,4,0.22181124980224648
5.13,0.05196904332202373,88.35972160168467,0,90,3.0,4,0.22391178560174574
5.135,0.03923107185803287,88.31383084039841,0,90,3.0,4,0.22296558433811153
5.14,0.02908287038705761,88.12203891912183,0,90,3.0,4,0.21901111173447083
5.145,0.02117220077308346,87.79209127073761,0,90,3.0,4,0.21220806743788898
5.15,0.0151361834125735,87.33709330329839,0,90,3.0,4,0.20282666604738944
5.155,0.010626454858290009,86.77464665719775,0,90,3.0,4,0.19122982798345875
5.16,0.007326255555493652,86.12572038682296,0,90,3.0,4,0.1778499048829477
5.165,0.004960179211183015,85.41335773775471,0,90,3.0,4,0.16316201521143728
5.17,0.0032978759379303545,84.6613292794557,0,90,3.0,4,0.1476562738032103
5.175,0.002153242296767213,83.89284106707322,0,90,3.0,4,0.13181115602212826
5.18,0.001380616732225004,83.12939330715007,0,90,3.0,4,0.11606996509587768
5.185,0.0008693106590991584,82.38986307038944,0,90,3.0,4,0.10082191897710183
5.19,0.000537524815942247,81.68985722228209,0,90,3.0,4,0.08638880870684713
5.195,0.0003263951340288585,81.04135260089133,0,90,3.0,4,0.07301757939982123
5.2,0.00019463030985187395,80.45261306492628,0,90,3.0,4,0.060878619895387266
5.205,0.00011397219555062695,79.92835023724436,0,90,3.0,4,0.050069077056584727
5.21,6.55403863487943e-05,79.47007850466264,0,90,3.0,4,0.040620175353868825
5.215,3.701184389455385e-05,79.07660594892458,0,90,3.0,4,0.03250733915308413
5.22,2.0525516217290957e-05,78.74460118423498,0,90,3.0,4,0.025661880087319185
5.225,1.1178128483661116e-05,78.46918052638576,0,90,3.0,4,0.01998310363681971
5.23,5.978135409912517e-06,78.2444689160559,0,90,3.0,4,0.015349874557853478
5.235,3.1396702713238487e-06,78.06409971428411,0,90,3.0,4,0.0116309219440023
5.24,1.6192875458531019e-06,77.92163107405308,0,90,3.0,4,0.008693424207280032
5.245,8.201353897972012e-07,77.8108685318973,0,90,3.0,4,0.006409660451490697
5.25,4.0791415086824765e-07,77.72609363393019,0,90,3.0,4,0.004661724410931766
5.255,1.9923866938774793e-07,77.66220615385751,0,90,3.0,4,0.0033444567805672376
5.26,9.556527981051257e-08,77.6147925595831,0,90,3.0,4,0.0023668568986204967
5.265,4.501406988770349e-08,77.58013598383405,0,90,3.0,4,0.001652288326475351
5.27,0.0,77.55518344728331,0,90,3.0,4,0.0011378030367693226
5.275,0.0,77.53748499883328,0,90,3.0,4,0.0007728865738820285
5.28,0.0,77.52511733723763,0,90,3.0,4,0.0005178832420130192
5.285,0.0,77.51660187395179,0,90,3.0,4,0.0003423066794182526
5.29,0.0,77.51082450507081,0,90,3.0,4,0.00022318567156319368
5.295,0.0,77.5069618779409,0,90,3.0,4,0.000143543875070011
5.3,0.0,77.5044168452331,0,90,3.0,4,9.106897387824837e-05
5.305,0.0,77.50276417401062,0,90,3.0,4,5.699327856952372e-05
5.31,0.0,77.50170642025451,0,90,3.0,4,3.518392277334391e-05
5.315,0.0,77.50103913993615,0,90,3.0,4,2.1425565693892532e-05
5.32,0.0,77.50062420823656,0,90,3.0,4,1.2870272918739032e-05
5.325,0.0,77.50036987278257,0,90,3.0,4,7.626242939602552e-06
5.33,0.0,77.50021619352097,0,90,3.0,4,4.4575983705135985e-06
5.335,0.0,77.5001246523284,0,90,3.0,4,2.5701511009343053e-06
5.34,0.0,77.50007089662091,0,90,3.0,4,1.4617859981804828e-06
5.345,0.0,77.5000397757244,0,90,3.0,4,8.201180289290147e-07
5.35,0.001684486749771458,77.50002201294153,0,90,3.0,4,4.5387508305690605e-07
5.355,0.004172395771277602,77.50001201726069,0,90,3.0,4,2.4777857086603747e-07
5.36,0.009438687428818865,77.50000647143071,0,90,3.0,4,1.3343156100295487e-07
5.365,0.019500507867137046,77.50000343765706,0,90,3.0,4,7.087952694418323e-08
5.37,0.03679496976339974,77.50000180132557,0,90,3.0,4,3.714073333876794e-08
5.375,0.06340728953298436,77.50000093108493,0,90,3.0,4,1.9197627350352085e-08
5.38,0.09979255396093453,77.50000047473779,0,90,3.0,4,9.788408013114397e-09
5.385,0.14343835518453557,77.50000023877328,0,90,3.0,4,4.923160454335133e-09
5.39,0.18829581417209276,77.50000011846365,0,90,3.0,4,2.4425494021417445e-09
5.395,0.2257481735193119,77.50000005797648,0,90,3.0,4,1.1953913139991856e-09
5.4,0.24718154073554727,77.50000002798892,0,90,3.0,4,5.770910896918047e-10
5.405,0.24718154074102772,77.50000001332869,0,90,3.0,4,2.7481829870198784e-10
5.41,0.22574817354072055,77.50000000626119,0,90,3.0,4,1.290966783645419e-10
5.415,0.18829581422840957,77.5000000029013,0,90,3.0,4,5.982066617547126e-11
5.42,0.14343835532456656,77.50000000132616,0,90,3.0,4,2.734344251593095e-11
5.425,0.09979255431561854,77.50000000059795,0,90,3.0,4,1.2328868739207313e-11
5.43,0.06340729067170194,77.50000000026596,0,90,3.0,4,5.483631876185681e-12
5.435,0.03679497683410042,77.50000000011669,0,90,3.0,4,2.4058830529180133e-12
5.44,0.019500578284482293,77.5000000000505,0,90,3.0,4,1.0413479929449055e-12
5.445,0.009439396781978427,77.50000000002156,0,90,3.0,4,4.444920949064214e-13
5.45,0.004178588733610924,77.50000000000908,0,90,3.0,4,1.8723167346420783e-13
5.455,0.0017299316936037381,77.50000000000377,0,90,3.0,4,7.764693813460889e-14
5.46,0.0008997325756988589,77.50000000000155,0,90,3.0,4,3.193779719499007e-14
5.465,0.001634769674224814,77.50000000000063,0,90,3.0,4,1.289232180348223e-14
5.47,0.00614904736476635,77.50000000000024,0,90,3.0,4,4.9811243331635886e-15
5.475,0.02168080359963608,77.5000000000001,0,90,3.0,4,2.0510511960085364e-15
5.48,0.06433400338904088,77.50000000000004,0,90,3.0,4,8.790219411465157e-16
5.485,0.1593410769217493,77.50000000000001,0,90,3.0,4,2.9300731371550523e-16
5.49,0.3291989194808569,77.5,0,90,3.0,4,0.0
5.495,0.5672906802982638,77.5,0,90,3.0,4,0.0
5.5,0.815339152120446,77.5,0,90,3.0,4,0.0
5.505,0.9768711246313155,77.5000028564677,1,90,3.0,4,5.889624128602796e-08
5.51,0.9726380909165361,77.50000545335169,0,90,3.0,4,1.1244024103548654e-07
5.515,0.7921091683291741,77.50001103870419,0,90,3.0,4,2.2760214818910904e-07
5.52,0.49139090102639077,77.50002451145392,0,90,3.0,4,5.053908023807342e-07
5.525,0.15739335672107918,77.50006056508865,0,90,3.0,4,1.2487647143423357e-06
5.53,-0.11102342218909485,77.500163159277,0,90,3.0,4,3.364108803999002e-06
5.535,-0.2314207883647528,77.50045963921588,0,90,3.0,4,9.477097234556608e-06
5.54,-0.2029124434754801,77.50130157200853,0,90,3.0,4,2.6836536258334144e-05
5.545,-0.11151350554305876,77.50360621062502,0,90,3.0,4,7.435485824789184e-05
5.55,-0.039430666652076896,77.50962435840236,0,90,3.0,4,0.0001984403794301553
5.555,-0.006087703519843621,77.5245336611205,0,90,3.0,4,0.0005058486828969172
5.56,0.005350271385530551,77.55946841825335,0,90,3.0,4,0.0012261529536772287
5.565,0.010381647827441833,77.63674715233715,0,90,3.0,4,0.002819528914168054
5.57,0.015115203303506243,77.79792448353166,0,90,3.0,4,0.006142772856322871
5.575,0.021170964062928475,78.11453494517251,0,90,3.0,4,0.012670823611804292
5.58,0.029082821134029553,78.69968859351175,0,90,3.0,4,0.0247358472889021
5.585,0.03923107061708144,79.71601941372563,0,90,3.0,4,0.04569112193248727
5.59,0.051969043308817596,81.3726112396058,0,90,3.0,4,0.07984765442486191
5.595,0.06760532616283861,83.90214348528451,0,90,3.0,4,0.13200295845947446
5.6,0.08636519236693461,87.51194056320449,0,90,3.0,4,0.2064317641897833
5.605,0.10834733138818661,92.31057839827544,0,90,3.0,4,0.305372750479906
5.61,0.1334809643017884,98.22445209684186,0,90,3.0,4,0.42730829065653314
5.615,0.16148868344343945,104.93176617201091,0,90,3.0,4,0.5656034262270291
5.62,0.191860907532018,111.84734002058431,0,90,3.0,4,0.7081925777440065
5.625,0.22384764873847726,118.18353745375319,0,90,3.0,4,0.8388358237887256
5.63,0.25647215537198226,123.08912705128517,0,90,3.0,4,0.9399820010574262
5.635,0.2885689161419028,125.83623498218132,0,90,3.0,4,0.9966234016944603
5.64,0.31884566517832524,126.0,0,90,3.0,4,1.0
5.645,0.3459657668955683,123.57027949337669,0,90,3.0,4,0.9499026699665296
5.65,0.3686441789190902,118.95531468006659,0,90,3.0,4,0.8547487562900329
5.655,0.3857476379544367,112.8759914170416,0,90,3.0,4,0.7294018848874557
5.66,0.3963882865005728,106.18868862199935,0,90,3.0,4,0.5915193530309144
5.665,0.4,99.69679952472116,0,90,3.0,4,0.45766596958187955
5.67,0.39638828650057273,94.00737257354771,0,90,3.0,4,0.3403581973927363
5.675,0.38574763795443656,89.46469600444867,0,90,3.0,4,0.24669476297832307
5.68,0.36864417891908974,86.1609302263463,0,90,3.0,4,0.1785758809555937
5.685,0.345965766895568,83.99956239812894,0,90,3.0,4,0.1340115958377102
5.69,0.3188456651783249,82.77835198542279,0,90,3.0,4,0.10883199969943892
5.695,0.28856891614190205,82.26364992927617,0,90,3.0,4,0.09821958617064268
5.7,0.2564721553719815,82.24082003149722,0,90,3.0,4,0.0977488666288087
5.705,0.22384764873847685,82.53843885242503,0,90,3.0,4,0.1038853371634027
5.71,0.19186090753201765,83.03228371198631,0,90,3.0,4,0.11406770540177957
5.715,0.16148868344343878,83.63787548612598,0,90,3.0,4,0.12655413373455623
5.72,0.1334809643017881,84.29912711951967,0,90,3.0,4,0.14018818803133334
5.725,0.10834733138818531,84.97779720332112,0,90,3.0,4,0.15418138563548694
5.73,0.08636519236690572,85.64573159835365,0,90,3.0,4,0.167953228832034
5.735,0.06760532616242629,86.28008889382897,0,90,3.0,4,0.18103276069750462
5.74,0.05196904332202373,86.86092112745918,0,90,3.0,4,0.19300868304039542
5.745,0.03923107185803287,87.37030590214425,0,90,3.0,4,0.2035114618998815
5.75,0.02908287038705761,87.79235702367464,0,90,3.0,4,0.2122135468798895
5.755,0.02117220077308346,88.11364773149214,0,90,3.0,4,0.2188380975565389
5.76,0.0151361834125735,88.32375687702194,0,90,3.0,4,0.22317024488705023
5.765,0.010626454858290009,88.41576824699521,0,90,3.0,4,0.2250673865359838
5.77,0.007326255555493652,88.38662664092895,0,90,3.0,4,0.22446652867894748
5.775,0.004960179211183015,88.2372990391203,0,90,3.0,4,0.22138760905402685
5.78,0.0032978759379303545,87.97271905935307,0,90,3.0,4,0.21593235173923853
5.785,0.002153242296767213,87.60151563015489,0,90,3.0,4,0.20827867278669882
5.79,0.001380616732225004,87.1355455413843,0,90,3.0,4,0.19867104209039801
5.795,0.0008693106590991584,86.58926483861305,0,90,3.0,4,0.18740752244562983
5.8,0.000537524815942247,85.97898542150867,0,90,3.0,4,0.17482444168059108
5.805,0.0003263951340288585,85.32207004119032,0,90,3.0,4,0.16127979466371783
5.81,0.00019463030985187395,84.63612080609002,0,90,3.0,4,0.1471365114657736
5.815,0.00011397219555062695,83.93821340240603,0,90,3.0,4,0.1327466680908461
5.82,6.55403863487943e-05,83.24422209684201,0,90,3.0,4,0.11843756900705173
5.825,3.701184389455385e-05,82.5682702000534,0,90,3.0,4,0.10450041649594649
5.83,2.0525516217290957e-05,81.92232827693294,0,90,3.0,4,0.09118202632851431
5.835,1.1178128483661116e-05,81.31596934262296,0,90,3.0,4,0.0786797802602673
5.84,5.978135409912517e-06,80.7562778662365,0,90,3.0,4,0.06713974981930931
5.845,3.1396702713238487e-06,80.24789870051464,0,90,3.0,4,0.056657705165250295
5.85,1.6192875458531019e-06,79.79320384552783,0,90,3.0,4,0.047282553516037676
5.855,8.201353897972012e-07,79.39254966509434,0,90,3.0,4,0.03902164257926466
5.86,4.0791415086824765e-07,79.04459487797472,0,90,3.0,4,0.03184731707164365
5.865,1.9923866938774793e-07,78.74665010120292,0,90,3.0,4,0.025704125797998287
5.87,9.556527981051257e-08,78.4950324497986,0,90,3.0,4,0.02051613298553815
5.875,4.501406988770349e-08,78.28540306685832,0,90,3.0,4,0.0161938776671819
5.88,0.0,78.11307078741693,0,90,3.0,4,0.012640634792101656
5.885,0.0,77.97325077488534,0,90,3.0,4,0.00975774793578028
5.89,0.0,77.86127235160261,0,90,3.0,4,0.007448914466033154
5.895,0.0,77.7727349529587,0,90,3.0,4,0.005623401091931963
5.9,0.0,77.70361489944557,0,90,3.0,4,0.004198245349393168
5.905,0.0,77.65032838439267,0,90,3.0,4,0.0030995543173745416
5.91,0.0,77.60975772765077,0,90,3.0,4,0.002263045930943784
5.915,0.0,77.57924865595666,0,90,3.0,4,0.0016339929063229112
5.92,0.0,77.55658631135569,0,90,3.0,4,0.001166728069189428
5.925,0.0,77.53995706181816,0,90,3.0,4,0.0008238569447042692
5.93,0.0,77.5279021961484,0,90,3.0,4,0.000575303013369142
5.935,0.0,77.5192684114055,0,90,3.0,4,0.00039728683310320627
5.94,0.0,77.51315879480705,0,90,3.0,4,0.000271315356846487
5.945,0.0,77.50888687354049,0,90,3.0,4,0.00018323450598948688
5.95,0.0,77.50593532585206,0,90,3.0,4,0.0001223778526198859
5.955,0.0,77.50392015117043,0,90,3.0,4,8.082785918419439e-05
5.96,0.0,77.5025604938901,0,90,3.0,4,5.279368845569395e-05
5.965,0.0,77.50165389279071,0,90,3.0,4,3.4100882282752264e-05
5.97,0.0,77.5010564614286,0,90,3.0,4,2.1782709868122447e-05
5.975,0.0,77.5006673637583,0,90,3.0,4,1.3760077490646321e-05
5.98,0.0,77.50041690228181,0,90,3.0,4,8.595923336355385e-06
5.985,0.0,77.50025755418267,0,90,3.0,4,5.310395518912647e-06
5.99,0.0,77.50015734959284,0,90,3.0,4,3.2443215018505274e-06
5.995,0.0,77.5000950660219,0,90,3.0,4,1.9601241628662914e-06
6.0,0.0,77.5000567999168,0,90,3.0,4,1.1711323052683848e-06
6.005,0.0,77.50003356083515,0,90,3.0,4,6.91975982456909e-07
6.01,0.0,77.50001961013126,0,90,3.0,4,4.0433260332084156e-07
6.015,0.0,77.50001133159184,0,90,3.0,4,2.3364106877378027e-07
6.02,0.0,77.50000647536162,0,90,3.0,4,1.3351261063502365e-07
6.025,0.001684486749771458,77.50000365931513,0,90,3.0,5,7.544979642205494e-08
6.03,0.004172395771277602,77.50000204502338,0,90,3.0,5,4.216543049654685e-08
6.035,0.009438687428818865,77.50000113021072,0,90,3.0,5,2.3303313807830526e-08
6.04,0.019500507867137046,77.50000061770804,0,90,3.0,5,1.2736248234751216e-08
6.045,0.03679496976339974,77.50000033386414,0,90,3.0,5,6.8837966255065934e-09
6.05,0.06340728953298436,77.50000017845099,0,90,3.0,5,3.6794018370463013e-09
6.055,0.09979255396093453,77.50000009432587,0,90,3.0,5,1.9448632944668417e-09
6.06,0.14343835518453557,77.50000004930664,0,90,3.0,5,1.0166316540037479e-09
6.065,0.18829581417209276,77.5000000254884,0,90,3.0,5,5.255341087850519e-10
6.07,0.2257481735193119,77.50000001302995,0,90,3.0,5,2.686586989530605e-10
6.075,0.24718154073554727,77.50000000658727,0,90,3.0,5,1.3582002418505787e-10
6.08,0.24718154074102772,77.5000000032933,0,90,3.0,5,6.790297991699976e-11
6.085,0.22574817354072055,77.50000000162824,0,90,3.0,5,3.3571898983581445e-11
6.09,0.18829581422840957,77.5000000007961,0,90,3.0,5,1.6414562721656317e-11
6.095,0.14343835532456656,77.50000000038493,0,90,3.0,5,7.936689106611891e-12
6.1,0.09979255431561854,77.50000000018406,0,90,3.0,5,3.795030727243224e-12
6.105,0.06340729067170194,77.50000000008704,0,90,3.0,5,1.7946697965074695e-12
6.11,0.03679497683410042,77.5000000000407,0,90,3.0,5,8.39172946481207e-13
6.115,0.019500578284482293,77.50000000001882,0,90,3.0,5,3.879416833593289e-13
6.12,0.009439396781978427,77.50000000000861,0,90,3.0,5,1.7756243211159617e-13
6.125,0.004178588733610924,77.5000000000039,0,90,3.0,5,8.028400395804844e-14
6.13,0.0017299316936037381,77.50000000000173,0,90,3.0,5,3.574689227329164e-14
6.135,0.0008997325756988589,77.50000000000077,0,90,3.0,5,1.5822394940637283e-14
6.14,0.001634769674224814,77.50000000000034,0,90,3.0,5,7.032175529172126e-15
6.145,0.00614904736476635,77.50000000000014,0,90,3.0,5,2.930073137155052e-15
6.15,0.02168080359963608,77.50000000000006,0,90,3.0,5,1.172029254862021e-15
6.155,0.06433400338904088,77.50000000000003,0,90,3.0,5,5.860146274310105e-16
6.16,0.1593410769217493,77.50000000000001,0,90,3.0,5,2.9300731371550523e-16
6.165,0.3291989194808569,77.5,0,90,3.0,5,0.0
6.17,0.5672906802982638,77.5,0,90,3.0,5,0.0
6.175,0.815339152120446,77.5,0,90,3.0,5,0.0
6.18,0.9768711246313155,77.50000284146185,1,90,3.0,5,5.858684226416127e-08
6.185,0.9726380909165361,77.50000566108393,0,90,3.0,5,1.1672338004733394e-07
6.19,0.7921091683291741,77.50001208193964,0,90,3.0,5,2.49112157614514e-07
6.195,0.49139090102639077,77.50002873397177,0,90,3.0,5,5.924530262760039e-07
6.2,0.15739335672107918,77.50007697165655,0,90,3.0,5,1.5870444650369519e-06
6.205,-0.11102342218909485,77.5002248661891,0,90,3.0,5,4.636416270107747e-06
6.21,-0.2314207883647528,77.50068051525129,0,90,3.0,5,1.4031242294631925e-05
6.215,-0.2029124434754801,77.50204432602273,0,90,3.0,5,4.215105201498454e-05
6.22,-0.11151350554305876,77.50593777613041,0,90,3.0,5,0.00012242837382286874
6.225,-0.039430666652076896,77.5164399231014,0,90,3.0,5,0.00033896748662683775
6.23,-0.006087703519843621,77.5430754284251,0,90,3.0,5,0.0008881531634040833
6.235,0.005350271385530551,77.60641853580098,0,90,3.0,5,0.0021941966144532724
6.24,0.010381647827441833,77.74742477142738,0,90,3.0,5,0.005101541678914966
6.245,0.015115203303506243,78.0408498094408,0,90,3.0,5,0.011151542462696914
6.25,0.021170964062928475,78.61092688858213,0,90,3.0,5,0.022905709042930475
6.255,0.029082821134029553,79.6435860439409,0,90,3.0,5,0.04419765039053402
6.26,0.03923107061708144,81.38481376725014,0,90,3.0,5,0.08009925293299251
6.265,0.051969043308817596,84.11198300521768,0,90,3.0,5,0.13632954649933363
6.27,0.06760532616283861,88.06822919931167,0,90,3.0,5,0.21790163297549842
6.275,0.08636519236693461,93.3624433467146,0,90,3.0,5,0.3270606875611258
6.28,0.10834733138818661,99.85796314992469,0,90,3.0,5,0.4609889309262822
6.285,0.1334809643017884,107.09329543873122,0,90,3.0,5,0.6101710399738396
6.29,0.16148868344343945,114.28467844096284,0,90,3.0,5,0.7584469781641822
6.295,0.191860907532018,120.44171590167264,0,90,3.0,5,0.8853962041581988
6.3,0.22384764873847726,124.58441298286456,0,90,3.0,5,0.9708126388219498
6.305,0.25647215537198226,126.0,0,90,3.0,5,1.0
6.31,0.2885689161419028,124.44805851086043,0,90,3.0,5,0.9680012064094935
6.315,0.31884566517832524,120.23336770229193,0,90,3.0,5,0.8811003649957099
6.32,0.3459657668955683,114.1166790767293,0,90,3.0,5,0.7549830737469958
6.325,0.3686441789190902,107.09975419133913,0,90,3.0,5,0.6103042101307037
6.33,0.3857476379544367,100.16845034237797,0,90,3.0,5,0.46739072870882403
6.335,0.3963882865005728,94.08390247082684,0,90,3.0,5,0.34193613341911017
6.34,0.4,89.27867445647695,0,90,3.0,5,0.2428592671438546
6.345,0.39638828650057273,85.864344835223,0,90,3.0,5,0.1724607182520205
6.35,0.38574763795443656,83.71609774519702,0,90,3.0,5,0.1281669638184952
6.355,0.36864417891908974,82.5841699556867,0,90,3.0,5,0.10482824650900421
6.36,0.345965766895568,82.19056841459238,0,90,3.0,5,0.09671275081633768
6.365,0.3188456651783249,82.29034138789683,0,90,3.0,5,0.098769925523646
6.37,0.28856891614190205,82.69662523703138,0,90,3.0,5,0.10714691210373987
6.375,0.2564721553719815,83.28017122082787,0,90,3.0,5,0.11917878805830655
6.38,0.22384764873847685,83.95647708211006,0,90,3.0,5,0.1331232388063929
6.385,0.19186090753201765,84.67048907652408,0,90,3.0,5,0.1478451355984346
6.39,0.16148868344343878,85.38412783726835,0,90,3.0,5,0.16255933685089385
6.395,0.1334809643017881,86.06814495598806,0,90,3.0,5,0.17666278259769197
6.4,0.10834733138818531,86.69778161152293,0,90,3.0,5,0.1896449816808851
6.405,0.08636519236690572,87.25104168924796,0,90,3.0,5,0.20105240596387536
6.41,0.06760532616242629,87.70847176089451,0,90,3.0,5,0.21048395383287652
6.415,0.05196904332202373,88.05365884673252,0,90,3.0,5,0.21760121333469107
6.42,0.03923107185803287,88.27395822955663,0,90,3.0,5,0.2221434686506521
6.425,0.02908287038705761,88.36117218288662,0,90,3.0,5,0.22394169449250761
6.43,0.02117220077308346,88.31202622987558,0,90,3.0,5,0.22292837587372338
6.435,0.0151361834125735,88.12836388999429,0,90,3.0,5,0.2191415235050369
6.44,0.010626454858290009,87.81702923229327,0,90,3.0,5,0.2127222522122323
6.445,0.007326255555493652,87.38944286440807,0,90,3.0,5,0.20390603844140345
6.45,0.004960179211183015,86.86090652517962,0,90,3.0,5,0.1930083819624663
6.455,0.0032978759379303545,86.24969489964558,0,90,3.0,5,0.18040608040506342
6.46,0.002153242296767213,85.57600963817242,0,90,3.0,5,0.16651566264273035
6.465,0.001380616732225004,84.86087877929835,0,90,3.0,5,0.15177069648037828
6.47,0.0008693106590991584,84.1250844861679,0,90,3.0,5,0.13659968012717333
6.475,0.000537524815942247,83.38819378194358,0,90,3.0,5,0.12140605735966155
6.48,0.0003263951340288585,82.66775226181372,0,90,3.0,5,0.10655159302708696
6.485,0.00019463030985187395,81.97868166934622,0,90,3.0,5,0.0923439519452828
6.49,0.00011397219555062695,81.33290118404989,0,90,3.0,5,0.07902889039278119
6.495,6.55403863487943e-05,80.73917169351294,0,90,3.0,5,0.066787045227071
6.5,3.701184389455385e-05,80.20314431499443,0,90,3.0,5,0.05573493432978211
6.505,2.0525516217290957e-05,79.72758053473622,0,90,3.0,5,0.04592949556157153
6.51,1.1178128483661116e-05,79.31270241863277,0,90,3.0,5,0.03737530760067562
6.515,5.978135409912517e-06,78.95662759204296,0,90,3.0,5,0.030033558598823985
6.52,3.1396702713238487e-06,78.6558446534466,0,90,3.0,5,0.02383184852467202
6.525,1.6192875458531019e-06,78.40568947884991,0,90,3.0,5,0.018674009873193977
6.53,8.201353897972012e-07,78.20079032117712,0,90,3.0,5,0.014449284972724198
6.535,4.0791415086824765e-07,78.03545846105052,0,90,3.0,5,0.011040380640216993
6.54,1.9923866938774793e-07,77.90401025968183,0,90,3.0,5,0.008330108447047955
6.545,9.556527981051257e-08,77.80101484957184,0,90,3.0,5,0.006206491743749331
6.55,4.501406988770349e-08,77.72146870454772,0,90,3.0,5,0.004566365042220984
6.555,0.0,77.66090358782964,0,90,3.0,5,0.0033175997490646754
6.56,0.0,77.61543779137935,0,90,3.0,5,0.0023801606469968993
6.565,0.0,77.58178227885897,0,90,3.0,5,0.001686232553793126
6.57,0.0,77.55721360654816,0,90,3.0,5,0.0011796619906837135
6.575,0.0,77.539524679794,0,90,3.0,5,0.0008149418514226595
6.58,0.0,77.5269628821488,0,90,3.0,5,0.0005559357144081271
6.585,0.0,77.51816323428235,0,90,3.0,5,0.0003744996759248408
6.59,0.0,77.51208228217608,0,90,3.0,5,0.0002491192201253834
6.595,0.0,77.50793658518138,0,90,3.0,5,0.00016364093157491326
6.6,0.0,77.5051481039483,0,90,3.0,5,0.00010614647316084095
6.605,0.0,77.50329753832021,0,90,3.0,5,6.799048082910107e-05
6.61,0.0,77.50208574548876,0,90,3.0,5,4.300506162383865e-05
6.615,0.0,77.50130275183275,0,90,3.0,5,2.686086253099591e-05
6.62,0.0,77.50080350945366,0,90,3.0,5,1.6567205230122108e-05
6.625,0.0,77.50048938336957,0,90,3.0,5,1.0090378753998781e-05
6.63,0.0,77.5002943312271,0,90,3.0,5,6.068685094758096e-06
6.635,0.0,77.50017480441339,0,90,3.0,5,3.6042147090816777e-06
6.64,0.0,77.50010251734817,0,90,3.0,5,2.1137597560393317e-06
6.645,0.0,77.50005937057459,0,90,3.0,5,1.2241355585553447e-06
6.65,0.0,77.50003395267987,0,90,3.0,5,7.000552550755284e-07
6.655,0.0,77.50001917369362,0,90,3.0,5,3.9533388898816314e-07
6.66,0.001684486749771458,77.50001069218405,0,90,3.0,5,2.204574030591025e-07
6.665,0.004172395771277602,77.50000588783982,0,90,3.0,5,1.2139875915983288e-07
6.67,0.009438687428818865,77.50000320165451,0,90,3.0,5,6.601349500482514e-08
6.675,0.019500507867137046,77.50000171918202,0,90,3.0,5,3.5447052029020285e-08
6.68,0.03679496976339974,77.50000091158711,0,90,3.0,5,1.8795610474663807e-08
6.685,0.06340728953298436,77.50000047731316,0,90,3.0,5,9.841508556549802e-09
6.69,0.09979255396093453,77.50000024679568,0,90,3.0,5,5.088570701117692e-09
6.695,0.14343835518453557,77.50000012600873,0,90,3.0,5,2.5981181192712274e-09
6.7,0.18829581417209276,77.50000006353201,0,90,3.0,5,1.3099384211938703e-09
6.705,0.2257481735193119,77.50000003163105,0,90,3.0,5,6.52186520138579e-10
6.71,0.24718154073554727,77.50000001555118,0,90,3.0,5,3.2064288452321053e-10
6.715,0.24718154074102772,77.50000000754991,0,90,3.0,5,1.5566833961614618e-10
6.72,0.22574817354072055,77.5000000036195,0,90,3.0,5,7.462896280333919e-11
6.725,0.18829581422840957,77.5000000017135,0,90,3.0,5,3.5329942865874475e-11
6.73,0.14343835532456656,77.50000000080104,0,90,3.0,5,1.65162362595156e-11
6.735,0.09979255431561854,77.50000000036978,0,90,3.0,5,7.624343310191161e-12
6.74,0.06340729067170194,77.50000000016857,0,90,3.0,5,3.475652755293323e-12
6.745,0.03679497683410042,77.50000000007587,0,90,3.0,5,1.5643660479270824e-12
6.75,0.019500578284482293,77.50000000003372,0,90,3.0,5,6.953063554468939e-13
6.755,0.009439396781978427,77.50000000001481,0,90,3.0,5,3.0531362089155643e-13
6.76,0.004178588733610924,77.50000000000642,0,90,3.0,5,1.3243930579940837e-13
6.765,0.0017299316936037381,77.50000000000274,0,90,3.0,5,5.655041154709251e-14
6.77,0.0008997325756988589,77.50000000000117,0,90,3.0,5,2.402659972467143e-14
6.775,0.001634769674224814,77.50000000000048,0,90,3.0,5,9.962248666327177e-15
6.78,0.00614904736476635,77.5000000000002,0,90,3.0,5,4.102102392017073e-15
6.785,0.02168080359963608,77.50000000000009,0,90,3.0,5,1.7580438822930315e-15
6.79,0.06433400338904088,77.50000000000003,0,90,3.0,5,5.860146274310105e-16
6.795,0.1593410769217493,77.50000000000001,0,90,3.0,5,2.9300731371550523e-16
6.8,0.3291989194808569,77.5,0,90,3.0,5,0.0
6.805,0.5672906802982638,77.5,0,90,3.0,5,0.0
6.81,0.815339152120446,77.5,0,90,3.0,5,0.0
6.815,0.9768711246313155,77.50000284403532,1,90,3.0,5,5.8639903544616635e-08
6.82,0.9726380909165361,77.50000563434857,0,90,3.0,5,1.161721354257923e-07
6.825,0.7921091683291741,77.50001194034442,0,90,3.0,5,2.4619266848754496e-07
6.83,0.49139090102639077,77.50002813743002,0,90,3.0,5,5.801531963196297e-07
6.835,0.15739335672107918,77.50007456926916,0,90,3.0,5,1.5375107043195215e-06
6.84,-0.11102342218909485,77.50021555237494,0,90,3.0,5,4.444378864730322e-06
6.845,-0.2314207883647528,77.50064634651709,0,90,3.0,5,1.332673231106653e-05
6.85,-0.2029124434754801,77.50192715835341,0,90,3.0,5,3.973522378166224e-05
6.855,-0.11151350554305876,77.50556436458237,0,90,3.0,5,0.00011472916664678985
6.86,-0.039430666652076896,77.5153360380951,0,90,3.0,5,0.0003162069710329893
6.865,-0.006087703519843621,77.54004933030063,0,90,3.0,5,0.0008257593876419144
6.87,0.005350271385530551,77.59872426259801,0,90,3.0,5,0.002035551806144569
6.875,0.010381647827441833,77.72927397114614,0,90,3.0,5,0.004727298374147262
6.88,0.015115203303506243,78.0011213460085,0,90,3.0,5,0.01033239888677326
6.885,0.021170964062928475,78.53026214977955,0,90,3.0,5,0.02124251855215558
6.89,0.029082821134029553,79.49175422945842,0,90,3.0,5,0.041067097514606646
6.895,0.03923107061708144,81.12018821167895,0,90,3.0,5,0.0746430559109062
6.9,0.051969043308817596,83.68572301825407,0,90,3.0,5,0.12754068078874364
6.905,0.06760532616283861,87.43548636982642,0,90,3.0,5,0.204855389068586
6.91,0.08636519236693461,92.5008021671065,0,90,3.0,5,0.30929489004343297
6.915,0.10834733138818661,98.78935026029112,0,90,3.0,5,0.4389556754699199
6.92,0.1334809643017884,105.90117170753103,0,90,3.0,5,0.585591169227444
6.925,0.16148868344343945,113.11621193300405,0,90,3.0,5,0.7343548852165784
6.93,0.191860907532018,119.48749438013431,0,90,3.0,5,0.8657215336110167
6.935,0.22384764873847726,124.03653874510518,0,90,3.0,5,0.9595162627856737
6.94,0.25647215537198226,126.0,0,90,3.0,5,1.0
6.945,0.2885689161419028,125.04326482741723,0,90,3.0,5,0.9802735015962316
6.95,0.31884566517832524,121.35937653466117,0,90,3.0,5,0.9043170419517766
6.955,0.3459657668955683,115.61360140385835,0,90,3.0,5,0.7858474516259455
6.96,0.3686441789190902,108.75594891707162,0,90,3.0,5,0.6444525549911674
6.965,0.3857476379544367,101.77461151529064,0,90,3.0,5,0.5005074539235185
6.97,0.3963882865005728,95.47810717617381,0,90,3.0,5,0.37068262218915066
6.975,0.4,90.36949924832,0,90,3.0,5,0.26535049996536075
6.98,0.39638828650057273,86.62992216347705,0,90,3.0,5,0.18824581780365046
6.985,0.38574763795443656,84.18612234560806,0,90,3.0,5,0.1378581926929496
6.99,0.36864417891908974,82.81567309579101,0,90,3.0,5,0.1096015071297116
6.995,0.345965766895568,82.24668045311486,0,90,3.0,5,0.09786970006422396
7.0,0.3188456651783249,82.22677563441158,0,90,3.0,5,0.09745929143116662
7.005,0.28856891614190205,82.55618463062414,0,90,3.0,5,0.10425122949740505
7.01,0.2564721553719815,83.09295775268306,0,90,3.0,5,0.11531871655016625
7.015,0.22384764873847685,83.74288099322293,0,90,3.0,5,0.12871919573655516
7.02,0.19186090753201765,84.44470761789947,0,90,3.0,5,0.1431898477917416
7.025,0.16148868344343878,85.15701212826306,0,90,3.0,5,0.15787653872707344
7.03,0.1334809643017881,85.84902108131057,0,90,3.0,5,0.17214476456310449
7.035,0.10834733138818531,86.49535961413758,0,90,3.0,5,0.18547133225025947
7.04,0.08636519236690572,87.07368281210313,0,90,3.0,5,0.1973955218990336
7.045,0.06760532616242629,87.56407233300035,0,90,3.0,5,0.2075066460412444
7.05,0.05196904332202373,87.94934169797176,0,90,3.0,5,0.21545034428807755
7.055,0.03923107185803287,88.21569761819234,0,90,3.0,5,0.22094221893180077
7.06,0.02908287038705761,88.35343302302121,0,90,3.0,5,0.22378212418600435
7.065,0.02117220077308346,88.35747043745516,0,90,3.0,5,0.22386536984443636
7.07,0.0151361834125735,88.22765859398775,0,90,3.0,5,0.22118883698943825
7.075,0.010626454858290009,87.96877763919233,0,90,3.0,5,0.21585108534417166
7.08,0.007326255555493652,87.59024579975109,0,90,3.0,5,0.20804630514950698
7.085,0.004960179211183015,87.10555038207744,0,90,3.0,5,0.19805258519747296
7.09,0.0032978759379303545,86.53145038403952,0,90,3.0,5,0.18621547183586631
7.095,0.002153242296767213,85.88701624442398,0,90,3.0,5,0.17292816998812321
7.1,0.001380616732225004,85.1925832624303,0,90,3.0,5,0.1586099641738207
7.105,0.0008693106590991584,84.46869833167638,0,90,3.0,5,0.14368450168404903
7.11,0.000537524815942247,83.73513500639436,0,90,3.0,5,0.1285594846679249
7.115,0.0003263951340288585,83.0100405618299,0,90,3.0,5,0.11360908374907003
7.12,0.00019463030985187395,82.30926233944837,0,90,3.0,5,0.09916004823604879
7.125,0.00011397219555062695,81.6458814331628,0,90,3.0,5,0.08548209140541854
7.13,6.55403863487943e-05,81.02996195780577,0,90,3.0,5,0.07278272077950036
7.135,3.701184389455385e-05,80.46850585648903,0,90,3.0,5,0.06120630631936147
7.14,2.0525516217290957e-05,79.96558814237727,0,90,3.0,5,0.05083686891499528
7.145,1.1178128483661116e-05,79.52263674653703,0,90,3.0,5,0.04170385044406251
7.15,5.978135409912517e-06,79.13881522901951,0,90,3.0,5,0.03379000472205183
7.155,3.1396702713238487e-06,78.81146536827063,0,90,3.0,5,0.02704052305712643
7.16,1.6192875458531019e-06,78.53656943790337,0,90,3.0,5,0.02137256572996633
7.165,8.201353897972012e-07,78.30919783276481,0,90,3.0,5,0.016684491397212564
7.17,4.0791415086824765e-07,78.12391547782335,0,90,3.0,5,0.012864236656151455
7.175,1.9923866938774793e-07,77.97512900761184,0,90,3.0,5,0.009796474383749296
7.18,9.556527981051257e-08,77.85736504432592,0,90,3.0,5,0.007368351429400348
7.185,4.501406988770349e-08,77.76547726284619,0,90,3.0,5,0.005473757996828657
7.19,0.0,77.69478581665143,0,90,3.0,5,0.00401620240518417
7.195,0.0,77.6411568854654,0,90,3.0,5,0.00291045124670941
7.2,0.0,77.60103260291042,0,90,3.0,5,0.002083146451761279
7.205,0.0,77.57142261616407,0,90,3.0,5,0.0014726312611148655
7.21,0.0,77.54986831612662,0,90,3.0,5,0.0010282127036416499
7.215,0.0,77.53438970032784,0,90,3.0,5,0.0007090659861409428
7.22,0.0,77.52342323181401,0,90,3.0,5,0.00048295323327850095
7.225,0.0,77.5157572338132,0,90,3.0,5,0.0003248914188289516
7.23,0.0,77.5104695467323,0,90,3.0,6,0.0002158669429339278
7.235,0.0,77.50687053439142,0,90,3.0,6,0.0001416605029159711
7.24,0.0,77.50445315583923,0,90,3.0,6,9.18176461696771e-05
7.245,0.0,77.50285075573734,0,90,3.0,6,5.8778468811167315e-05
7.25,0.0,77.50180246507347,0,90,3.0,6,3.7164228318914934e-05
7.255,0.0,77.50112561130648,0,90,3.0,6,2.320848054592744e-05
7.26,0.0,77.50069426420308,0,90,3.0,6,1.4314725836628867e-05
7.265,0.0,77.50042293715272,0,90,3.0,6,8.720353664334793e-06
7.27,0.0,77.50025447295847,0,90,3.0,6,5.246865123178123e-06
7.275,0.0,77.5001512245073,0,90,3.0,6,3.1180310784715326e-06
7.28,0.0,77.50008876003304,0,90,3.0,6,1.8301037739641372e-06
7.285,0.0,77.50005145498665,0,90,3.0,6,1.0609275597237956e-06
7.29,0.0,77.50002946132142,0,90,3.0,6,6.074499261445715e-07
7.295,0.0,77.50001666064122,0,90,3.0,6,3.4351837571521924e-07
7.3,0.001684486749771458,77.50000930563341,0,90,3.0,6,1.9186873015014592e-07
7.305,0.004172395771277602,77.50000513351583,0,90,3.0,6,1.0584568716572885e-07
7.31,0.009438687428818865,77.50000279703956,0,90,3.0,6,5.767091868891811e-08
7.315,0.019500507867137046,77.50000150520984,0,90,3.0,6,3.103525438474236e-08
7.32,0.03679496976339974,77.50000080003728,0,90,3.0,6,1.649561411176899e-08
7.325,0.06340728953298436,77.50000041998922,0,90,3.0,6,8.659571552381805e-09
7.33,0.09979255396093453,77.50000021776135,0,90,3.0,6,4.48992482139972e-09
7.335,0.14343835518453557,77.50000011151626,0,90,3.0,6,2.2993042796198217e-09
7.34,0.18829581417209276,77.50000005640405,0,90,3.0,6,1.162970054736565e-09
7.345,0.2257481735193119,77.50000002817715,0,90,3.0,6,5.809722645692803e-10
7.35,0.24718154073554727,77.50000001390269,0,90,3.0,6,2.866534501175845e-10
7.355,0.24718154074102772,77.5000000067751,0,90,3.0,6,1.396927018504357e-10
7.36,0.22574817354072055,77.50000000326096,0,90,3.0,6,6.723638827829698e-11
7.365,0.18829581422840957,77.50000000155022,0,90,3.0,6,3.196328883128332e-11
7.37,0.14343835532456656,77.50000000072787,0,90,3.0,6,1.5007541601194463e-11
7.375,0.09979255431561854,77.50000000033754,0,90,3.0,6,6.9595097153706806e-12
7.38,0.06340729067170194,77.5000000001546,0,90,3.0,6,3.1876265659109813e-12
7.385,0.03679497683410042,77.50000000006995,0,90,3.0,6,1.4421819981077167e-12
7.39,0.019500578284482293,77.50000000003125,0,90,3.0,6,6.44323082860396e-13
7.395,0.009439396781978427,77.50000000001378,0,90,3.0,6,2.8421709430404007e-13
7.4,0.004178588733610924,77.50000000000601,0,90,3.0,6,1.239420937016587e-13
7.405,0.0017299316936037381,77.50000000000259,0,90,3.0,6,5.332733109622195e-14
7.41,0.0008997325756988589,77.5000000000011,0,90,3.0,6,2.25615631560939e-14
7.415,0.001634769674224814,77.50000000000045,0,90,3.0,6,9.376234038896167e-15
7.42,0.00614904736476635,77.50000000000018,0,90,3.0,6,3.809095078301568e-15
7.425,0.02168080359963608,77.50000000000007,0,90,3.0,6,1.465036568577526e-15
7.43,0.06433400338904088,77.50000000000003,0,90,3.0,6,5.860146274310105e-16
7.435,0.1593410769217493,77.50000000000001,0,90,3.0,6,2.9300731371550523e-16
7.44,0.3291989194808569,77.5,0,90,3.0,6,0.0
7.445,0.5672906802982638,77.5,0,90,3.0,6,0.0
7.45,0.815339152120446,77.5,0,90,3.0,6,0.0
7.455,0.9768711246313155,77.50000284403532,1,90,3.0,6,5.8639903544616635e-08
7.46,0.9726380909165361,77.50000563434857,0,90,3.0,6,1.161721354257923e-07
7.465,0.7921091683291741,77.50001194034442,0,90,3.0,6,2.4619266848754496e-07
7.47,0.49139090102639077,77.50002813743002,0,90,3.0,6,5.801531963196297e-07
7.475,0.15739335672107918,77.50007456926916,0,90,3.0,6,1.5375107043195215e-06
7.48,-0.11102342218909485,77.50021555237494,0,90,3.0,6,4.444378864730322e-06
7.485,-0.2314207883647528,77.50064634651709,0,90,3.0,6,1.332673231106653e-05
7.49,-0.2029124434754801,77.50192715835341,0,90,3.0,6,3.973522378166224e-05
7.495,-0.11151350554305876,77.50556436458237,0,90,3.0,6,0.00011472916664678985
7.5,-0.039430666652076896,77.5153360380951,0,90,3.0,6,0.0003162069710329893
7.505,-0.006087703519843621,77.54004933030063,0,90,3.0,6,0.0008257593876419144
7.51,0.005350271385530551,77.59872426259801,0,90,3.0,6,0.002035551806144569
7.515,0.010381647827441833,77.72927397114614,0,90,3.0,6,0.004727298374147262
7.52,0.015115203303506243,78.0011213460085,0,90,3.0,6,0.01033239888677326
7.525,0.021170964062928475,78.53026214977955,0,90,3.0,6,0.02124251855215558
7.53,0.029082821134029553,79.49175422945842,0,90,3.0,6,0.041067097514606646
7.535,0.03923107061708144,81.12018821167895,0,90,3.0,6,0.0746430559109062
7.54,0.051969043308817596,83.68572301825407,0,90,3.0,6,0.12754068078874364
7.545,0.06760532616283861,87.43548636982642,0,90,3.0,6,0.204855389068586
7.55,0.08636519236693461,92.5008021671065,0,90,3.0,6,0.30929489004343297
7.555,0.10834733138818661,98.78935026029112,0,90,3.0,6,0.4389556754699199
7.56,0.1334809643017884,105.90117170753103,0,90,3.0,6,0.585591169227444
7.565,0.16148868344343945,113.11621193300405,0,90,3.0,6,0.7343548852165784
7.57,0.191860907532018,119.48749438013431,0,90,3.0,6,0.8657215336110167
7.575,0.22384764873847726,124.03653874510518,0,90,3.0,6,0.9595162627856737
7.58,0.25647215537198226,126.0,0,90,3.0,6,1.0
7.585,0.2885689161419028,125.04326482741723,0,90,3.0,6,0.9802735015962316
7.59,0.31884566517832524,121.35937653466117,0,90,3.0,6,0.9043170419517766
7.595,0.3459657668955683,115.61360140385835,0,90,3.0,6,0.7858474516259455
7.6,0.3686441789190902,108.75594891707162,0,90,3.0,6,0.6444525549911674
7.605,0.3857476379544367,101.77461151529064,0,90,3.0,6,0.5005074539235185
7.61,0.3963882865005728,95.47810717617381,0,90,3.0,6,0.37068262218915066
7.615,0.4,90.36949924832,0,90,3.0,6,0.26535049996536075
7.62,0.39638828650057273,86.62992216347705,0,90,3.0,6,0.18824581780365046
7.625,0.38574763795443656,84.18612234560806,0,90,3.0,6,0.1378581926929496
7.63,0.36864417891908974,82.81567309579101,0,90,3.0,6,0.1096015071297116
7.635,0.345965766895568,82.24668045311486,0,90,3.0,6,0.09786970006422396
7.64,0.3188456651783249,82.22677563441158,0,90,3.0,6,0.09745929143116662
7.645,0.28856891614190205,82.55618463062414,0,90,3.0,6,0.10425122949740505
7.65,0.2564721553719815,83.09295775268306,0,90,3.0,6,0.11531871655016625
7.655,0.22384764873847685,83.74288099322293,0,90,3.0,6,0.12871919573655516
7.66,0.19186090753201765,84.44470761789947,0,90,3.0,6,0.1431898477917416
7.665,0.16148868344343878,85.15701212826306,0,90,3.0,6,0.15787653872707344
7.67,0.1334809643017881,85.84902108131057,0,90,3.0,6,0.17214476456310449
7.675,0.10834733138818531,86.49535961413758,0,90,3.0,6,0.18547133225025947
7.68,0.08636519236690572,87.07368281210313,0,90,3.0,6,0.1973955218990336
7.685,0.06760532616242629,87.56407233300035,0,90,3.0,6,0.2075066460412444
7.69,0.05196904332202373,87.94934169797176,0,90,3.0,6,0.21545034428807755
7.695,0.03923107185803287,88.21569761819234,0,90,3.0,6,0.22094221893180077
7.7,0.02908287038705761,88.35343302302121,0,90,3.0,6,0.22378212418600435
7.705,0.02117220077308346,88.35747043745516,0,90,3.0,6,0.22386536984443636
7.71,0.0151361834125735,88.22765859398775,0,90,3.0,6,0.22118883698943825
7.715,0.010626454858290009,87.96877763919233,0,90,3.0,6,0.21585108534417166
7.72,0.007326255555493652,87.59024579975109,0,90,3.0,6,0.20804630514950698
7.725,0.004960179211183015,87.10555038207744,0,90,3.0,6,0.19805258519747296
7.73,0.0032978759379303545,86.53145038403952,0,90,3.0,6,0.18621547183586631
7.735,0.002153242296767213,85.88701624442398,0,90,3.0,6,0.17292816998812321
7.74,0.001380616732225004,85.1925832624303,0,90,3.0,6,0.1586099641738207
7.745,0.0008693106590991584,84.46869833167638,0,90,3.0,6,0.14368450168404903
7.75,0.000537524815942247,83.73513500639436,0,90,3.0,6,0.1285594846679249
7.755,0.0003263951340288585,83.0100405618299,0,90,3.0,6,0.11360908374907003
7.76,0.00019463030985187395,82.30926233944837,0,90,3.0,6,0.09916004823604879
7.765,0.00011397219555062695,81.6458814331628,0,90,3.0,6,0.08548209140541854
7.77,6.55403863487943e-05,81.02996195780577,0,90,3.0,6,0.07278272077950036
7.775,3.701184389455385e-05,80.46850585648903,0,90,3.0,6,0.06120630631936147
7.78,2.0525516217290957e-05,79.96558814237727,0,90,3.0,6,0.05083686891499528
7.785,1.1178128483661116e-05,79.52263674653703,0,90,3.0,6,0.04170385044406251
7.79,5.978135409912517e-06,79.13881522901951,0,90,3.0,6,0.03379000472205183
7.795,3.1396702713238487e-06,78.81146536827063,0,90,3.0,6,0.02704052305712643
7.8,1.6192875458531019e-06,78.53656943790337,0,90,3.0,6,0.02137256572996633
7.805,8.201353897972012e-07,78.30919783276481,0,90,3.0,6,0.016684491397212564
7.81,4.0791415086824765e-07,78.12391547782335,0,90,3.0,6,0.012864236656151455
7.815,1.9923866938774793e-07,77.97512900761184,0,90,3.0,6,0.009796474383749296
7.82,9.556527981051257e-08,77.85736504432592,0,90,3.0,6,0.007368351429400348
7.825,4.501406988770349e-08,77.76547726284619,0,90,3.0,6,0.005473757996828657
7.83,0.0,77.69478581665143,0,90,3.0,6,0.00401620240518417
7.835,0.0,77.6411568854654,0,90,3.0,6,0.00291045124670941
7.84,0.0,77.60103260291042,0,90,3.0,6,0.002083146451761279
7.845,0.0,77.57142261616407,0,90,3.0,6,0.0014726312611148655
7.85,0.0,77.54986831612662,0,90,3.0,6,0.0010282127036416499
7.855,0.0,77.53438970032784,0,90,3.0,6,0.0007090659861409428
7.86,0.0,77.52342323181401,0,90,3.0,6,0.00048295323327850095
7.865,0.0,77.5157572338132,0,90,3.0,6,0.0003248914188289516
7.87,0.0,77.5104695467323,0,90,3.0,6,0.0002158669429339278
7.875,0.0,77.50687053439142,0,90,3.0,6,0.0001416605029159711
7.88,0.0,77.50445315583923,0,90,3.0,6,9.18176461696771e-05
7.885,0.0,77.50285075573734,0,90,3.0,6,5.8778468811167315e-05
7.89,0.0,77.50180246507347,0,90,3.0,6,3.7164228318914934e-05
7.895,0.0,77.50112561130648,0,90,3.0,6,2.320848054592744e-05
7.9,0.0,77.50069426420308,0,90,3.0,6,1.4314725836628867e-05
7.905,0.0,77.50042293715272,0,90,3.0,6,8.720353664334793e-06
7.91,0.0,77.50025447295847,0,90,3.0,6,5.246865123178123e-06
7.915,0.0,77.5001512245073,0,90,3.0,6,3.1180310784715326e-06
7.92,0.0,77.50008876003304,0,90,3.0,6,1.8301037739641372e-06
7.925,0.0,77.50005145498665,0,90,3.0,6,1.0609275597237956e-06
7.93,0.0,77.50002946132142,0,90,3.0,6,6.074499261445715e-07
7.935,0.0,77.50001666064122,0,90,3.0,6,3.4351837571521924e-07
7.94,0.001684486749771458,77.50000930563341,0,90,3.0,6,1.9186873015014592e-07
7.945,0.004172395771277602,77.50000513351583,0,90,3.0,6,1.0584568716572885e-07
7.95,0.009438687428818865,77.50000279703956,0,90,3.0,6,5.767091868891811e-08
7.955,0.019500507867137046,77.50000150520984,0,90,3.0,6,3.103525438474236e-08
7.96,0.03679496976339974,77.50000080003728,0,90,3.0,6,1.649561411176899e-08
7.965,0.06340728953298436,77.50000041998922,0,90,3.0,6,8.659571552381805e-09
7.97,0.09979255396093453,77.50000021776135,0,90,3.0,6,4.48992482139972e-09
7.975,0.14343835518453557,77.50000011151626,0,90,3.0,6,2.2993042796198217e-09
7.98,0.18829581417209276,77.50000005640405,0,90,3.0,6,1.162970054736565e-09
7.985,0.2257481735193119,77.50000002817715,0,90,3.0,6,5.809722645692803e-10
7.99,0.24718154073554727,77.50000001390269,0,90,3.0,6,2.866534501175845e-10
7.995,0.24718154074102772,77.5000000067751,0,90,3.0,6,1.396927018504357e-10
8.0,0.22574817354072055,77.50000000326096,0,90,3.0,6,6.723638827829698e-11
8.005,0.18829581422840957,77.50000000155022,0,90,3.0,6,3.196328883128332e-11
8.01,0.14343835532456656,77.50000000072787,0,90,3.0,6,1.5007541601194463e-11
8.015,0.09979255431561854,77.50000000033754,0,90,3.0,6,6.9595097153706806e-12
8.02,0.06340729067170194,77.5000000001546,0,90,3.0,6,3.1876265659109813e-12
8.025,0.03679497683410042,77.50000000006995,0,90,3.0,6,1.4421819981077167e-12
8.03,0.019500578284482293,77.50000000003125,0,90,3.0,6,6.44323082860396e-13
8.035,0.009439396781978427,77.50000000001378,0,90,3.0,6,2.8421709430404007e-13
8.04,0.004178588733610924,77.50000000000601,0,90,3.0,6,1.239420937016587e-13
8.045,0.0017299316936037381,77.50000000000259,0,90,3.0,6,5.332733109622195e-14
8.05,0.0008997325756988589,77.5000000000011,0,90,3.0,6,2.25615631560939e-14
8.055,0.001634769674224814,77.50000000000045,0,90,3.0,6,9.376234038896167e-15
8.06,0.00614904736476635,77.50000000000018,0,90,3.0,6,3.809095078301568e-15
8.065,0.02168080359963608,77.50000000000007,0,90,3.0,6,1.465036568577526e-15
8.07,0.06433400338904088,77.50000000000003,0,90,3.0,6,5.860146274310105e-16
8.075,0.1593410769217493,77.50000000000001,0,90,3.0,6,2.9300731371550523e-16
8.08,0.3291989194808569,77.5,0,90,3.0,6,0.0
8.085,0.5672906802982638,77.5,0,90,3.0,6,0.0
8.09,0.815339152120446,77.5,0,90,3.0,6,0.0
8.095,0.9768711246313155,77.50000284154457,1,90,3.0,6,5.8588547859734405e-08
8.1,0.9726380909165361,77.5000053717146,0,90,3.0,6,1.1075700192038508e-07
8.105,0.7921091683291741,77.50001074298208,0,90,3.0,6,2.2150478524466606e-07
8.11,0.49139090102639077,77.50002348679206,0,90,3.0,6,4.842637538073627e-07
8.115,0.15739335672107918,77.50005697009982,0,90,3.0,6,1.1746412333992601e-06
8.12,-0.11102342218909485,77.50015058918197,0,90,3.0,6,3.1049315870189172e-06
8.125,-0.2314207883647528,77.50041701098533,0,90,3.0,6,8.598164645990409e-06
8.13,-0.2029124434754801,77.50116397212096,0,90,3.0,6,2.3999425174501196e-05
8.135,-0.11151350554305876,77.50318753865302,0,90,3.0,6,6.572244645408506e-05
8.14,-0.039430666652076896,77.5084286730719,0,90,3.0,6,0.00017378707364751163
8.145,-0.006087703519843621,77.52133349932207,0,90,3.0,6,0.0004398659654034723
8.15,0.005350271385530551,77.55144481044628,0,90,3.0,6,0.001060717741160502
8.155,0.010381647827441833,77.61790113559184,0,90,3.0,6,0.002430951249316211
8.16,0.015115203303506243,77.75645242828497,0,90,3.0,6,0.005287678933710787
8.165,0.021170964062928475,78.02903573913586,0,90,3.0,6,0.010907953384244619
8.17,0.029082821134029553,78.53459389389398,0,90,3.0,6,0.02133183286379348
8.175,0.03923107061708144,79.41759052329515,0,90,3.0,6,0.03953794893392055
8.18,0.051969043308817596,80.86806634460993,0,90,3.0,6,0.0694446668991738
8.185,0.06760532616283861,83.10540651559467,0,90,3.0,6,0.11557539207411682
8.19,0.08636519236693461,86.3392095926369,0,90,3.0,6,0.18225174417808052
8.195,0.10834733138818661,90.70649228025296,0,90,3.0,6,0.27229880990212285
8.2,0.1334809643017884,96.1949399697833,0,90,3.0,6,0.3854626797893465
8.205,0.16148868344343945,102.57400864906828,0,90,3.0,6,0.5169898690529542
8.21,0.191860907532018,109.36346526476575,0,90,3.0,6,0.656978665252902
8.215,0.22384764873847726,115.86591368470812,0,90,3.0,6,0.7910497666950127
8.22,0.25647215537198226,121.27294452158014,0,90,3.0,6,0.9025349385892814
8.225,0.2885689161419028,124.82763298613727,0,90,3.0,6,0.9758274842502531
8.23,0.31884566517832524,126.0,0,90,3.0,6,1.0
8.235,0.3459657668955683,124.61989252433693,0,90,3.0,6,0.9715441757595243
8.24,0.3686441789190902,120.92169697246845,0,90,3.0,6,0.8952927210818238
8.245,0.3857476379544367,115.48501558588413,0,90,3.0,6,0.7831961976470954
8.25,0.3963882865005728,109.09225998185437,0,90,3.0,6,0.6513868037495746
8.255,0.4,102.5515725266867,0,90,3.0,6,0.5165272685914784
8.26,0.39638828650057273,96.54013006952228,0,90,3.0,6,0.392580001433449
8.265,0.38574763795443656,91.50802050032742,0,90,3.0,6,0.2888251649552045
8.27,0.36864417891908974,87.65583209467765,0,90,3.0,6,0.2093985998902608
8.275,0.345965766895568,84.9730956654149,0,90,3.0,6,0.15408444670958563
8.28,0.3188456651783249,83.30975988570115,0,90,3.0,6,0.11978886362270422
8.285,0.28856891614190205,82.45172028278404,0,90,3.0,6,0.10209732541822758
8.29,0.2564721553719815,82.18025697684484,0,90,3.0,6,0.09650014385247103
8.295,0.22384764873847685,82.30741319769757,0,90,3.0,6,0.09912192160201176
8.3,0.19186090753201765,82.68926270610598,0,90,3.0,6,0.1069951073423913
8.305,0.16148868344343878,83.2241320744651,0,90,3.0,6,0.11802334174154852
8.31,0.1334809643017881,83.8435168279006,0,90,3.0,6,0.13079416140001238
8.315,0.10834733138818531,84.50150236715587,0,90,3.0,6,0.14436087354960547
8.32,0.08636519236690572,85.16587686988788,0,90,3.0,6,0.15805931690490477
8.325,0.06760532616242629,85.81199492104422,0,90,3.0,6,0.1713813385782313
8.33,0.05196904332202373,86.41920641796344,0,90,3.0,6,0.18390116325697808
8.335,0.03923107185803287,86.96917992923366,0,90,3.0,6,0.19524082328316827
8.34,0.02908287038705761,87.44541920646472,0,90,3.0,6,0.20506018982401486
8.345,0.02117220077308346,87.83342707600346,0,90,3.0,6,0.21306035208254556
8.35,0.0151361834125735,88.1211518756908,0,90,3.0,6,0.21899282217919175
8.355,0.010626454858290009,88.29949305211028,0,90,3.0,6,0.22266995983732535
8.36,0.007326255555493652,88.36273532154763,0,90,3.0,6,0.22397392415562128
8.365,0.004960179211183015,88.30883732354,0,90,3.0,6,0.22286262522762895
8.37,0.0032978759379303545,88.13953589889951,0,90,3.0,6,0.2193718742041136
8.375,0.002153242296767213,87.86025153974062,0,90,3.0,6,0.21361343380908487
8.38,0.001380616732225004,87.47979971200948,0,90,3.0,6,0.2057690662269996
8.385,0.0008693106590991584,87.00992868416755,0,90,3.0,6,0.19608100379726903
8.39,0.000537524815942247,86.46471740998916,0,90,3.0,6,0.18483953422658067
8.395,0.0003263951340288585,85.85987641344444,0,90,3.0,6,0.17236858584421524
8.4,0.00019463030985187395,85.21199997402755,0,90,3.0,6,0.15901030874283606
8.405,0.00011397219555062695,84.53781895883367,0,90,3.0,6,0.14510966925430244
8.41,6.55403863487943e-05,83.85350054309895,0,90,3.0,6,0.1310000111979164
8.415,3.701184389455385e-05,83.17403435574212,0,90,3.0,6,0.11699039908746645
8.42,2.0525516217290957e-05,82.51273515971924,0,90,3.0,6,0.10335536411792251
8.425,1.1178128483661116e-05,81.88088111637717,0,90,3.0,6,0.09032744569849831
8.43,5.978135409912517e-06,81.28749514724962,0,90,3.0,6,0.07809268344844567
8.435,3.1396702713238487e-06,80.73926599081013,0,90,3.0,7,0.0667889895012397
8.44,1.6192875458531019e-06,80.24059617216766,0,90,3.0,7,0.05650713757046714
8.445,8.201353897972012e-07,79.79375691779815,0,90,3.0,7,0.047293957068003066
8.45,4.0791415086824765e-07,79.39912541232576,0,90,3.0,7,0.039157224996407405
8.455,1.9923866938774793e-07,79.05547776723587,0,90,3.0,7,0.032071706540945794
8.46,9.556527981051257e-08,78.76031144478318,0,90,3.0,7,0.025985802985220293
8.465,4.501406988770349e-08,78.51017324373844,0,90,3.0,7,0.02082831430388527
8.47,0.0,78.30097276926729,0,90,3.0,7,0.016514902459119376
8.475,0.0,78.12826599064017,0,90,3.0,7,0.01295393795134378
8.48,0.0,77.98749847302761,0,90,3.0,7,0.010051514907785854
8.485,0.0,77.87420266617133,0,90,3.0,7,0.007715518890130479
8.49,0.0,77.78414786970576,0,90,3.0,7,0.005858718963005411
8.495,0.0,77.71344492859065,0,90,3.0,7,0.004400926362693753
8.5,0.0,77.6586102266577,0,90,3.0,7,0.0032703139517051565
8.505,0.0,77.61659513782196,0,90,3.0,7,0.0024040234602466038
8.51,0.0,77.58478784625699,0,90,3.0,7,0.0017482030156079722
8.515,0.0,77.56099450010981,0,90,3.0,7,0.001257618558965237
8.52,0.0,77.54340618910628,0,90,3.0,7,0.000894972971263469
8.525,0.0,77.53055741054968,0,90,3.0,7,0.0006300497020551748
8.53,0.0,77.521280672553,0,90,3.0,7,0.0004387767536701931
8.535,0.0,77.51466081314214,0,90,3.0,7,0.0003022848070544963
8.54,0.0,77.50999159166291,0,90,3.0,7,0.0002060121992352594
8.545,0.0,77.5067362035906,0,90,3.0,7,0.00013889079568259346
8.55,0.0,77.50449261953548,0,90,3.0,7,9.263133062852165e-05
8.555,0.0,77.50296406680117,0,90,3.0,7,6.11147794055557e-05
8.56,0.0,77.50193455126167,0,90,3.0,7,3.988765487978404e-05
8.565,0.0,77.5012490401714,0,90,3.0,7,2.5753405595913737e-05
8.57,0.0,77.50079776775692,0,90,3.0,7,1.644881973034083e-05
8.575,0.0,77.50050405794217,0,90,3.0,7,1.0392947261154929e-05
8.58,0.0,77.50031505643443,0,90,3.0,7,6.496008957339617e-06
8.585,0.0,77.5001948050246,0,90,3.0,7,4.016598445477752e-06
8.59,0.0,77.5001191559859,0,90,3.0,7,2.456824451536301e-06
8.595,0.0,77.5000721000363,0,90,3.0,7,1.4865986867166095e-06
8.6,0.0,77.50004315777153,0,90,3.0,7,8.898509593601591e-07
8.605,0.0,77.5000255556216,0,90,3.0,7,5.269200330859189e-07
8.61,0.0,77.50001496986195,0,90,3.0,7,3.086569474418735e-07
8.615,0.0,77.50000867467178,0,90,3.0,7,1.788592118673384e-07
8.62,0.0,77.5000049726995,0,90,3.0,7,1.0252988660148421e-07
8.625,0.001684486749771458,77.50000281991028,0,90,3.0,7,5.8142479971494826e-08
8.63,0.004172395771277602,77.50000158191183,0,90,3.0,7,3.261673879895864e-08
8.635,0.009438687428818865,77.50000087787598,0,90,3.0,7,1.810053559499475e-08
8.64,0.019500507867137046,77.50000048193445,0,90,3.0,7,9.936792776926202e-09
8.645,0.03679496976339974,77.50000026172589,0,90,3.0,7,5.3964100450534765e-09
8.65,0.06340728953298436,77.50000014060777,0,90,3.0,7,2.899129220768185e-09
8.655,0.09979255396093453,77.5000000747267,0,90,3.0,7,1.540756690617142e-09
8.66,0.14343835518453557,77.50000003928676,0,90,3.0,7,8.100362992053372e-10
8.665,0.18829581417209276,77.50000002043245,0,90,3.0,7,4.212876737040357e-10
8.67,0.2257481735193119,77.50000001051232,0,90,3.0,7,2.1674893724059412e-10
8.675,0.24718154073554727,77.50000000535033,0,90,3.0,7,1.1031608158463286e-10
8.68,0.24718154074102772,77.50000000269381,0,90,3.0,7,5.5542466387911174e-11
