Time,ECG,Pressure,R_Peaks,mean_hr,hrv_scale,Phase_Bin,Normalized_Pressure
0.0,0.001684486749771458,77.5,0,90,3.0,0,0.0
0.005,0.004172395771277602,77.5,0,90,3.0,0,0.0
0.01,0.009438687428818865,77.5,0,90,3.0,0,0.0
0.015,0.019500507867137046,77.5,0,90,3.0,0,0.0
0.02,0.03679496976339974,77.5,0,90,3.0,0,0.0
0.025,0.06340728953298436,77.5,0,90,3.0,0,0.0
0.03,0.09979255396093453,77.5,0,90,3.0,0,0.0
0.035,0.14343835518453557,77.5,0,90,3.0,0,0.0
0.04,0.18829581417209276,77.5,0,90,3.0,0,0.0
0.045,0.2257481735193119,77.5,0,90,3.0,0,0.0
0.05,0.24718154073554727,77.5,0,90,3.0,0,0.0
0.055,0.24718154074102772,77.5,0,90,3.0,0,0.0
0.06,0.22574817354072055,77.5,0,90,3.0,0,0.0
0.065,0.18829581422840957,77.5,0,90,3.0,0,0.0
0.07,0.14343835532456656,77.5,0,90,3.0,0,0.0
0.075,0.09979255431561854,77.5,0,90,3.0,0,0.0
0.08,0.06340729067170194,77.5,0,90,3.0,0,0.0
0.085,0.03679497683410042,77.5,0,90,3.0,0,0.0
0.09,0.019500578284482293,77.5,0,90,3.0,0,0.0
0.095,0.009439396781978427,77.5,0,90,3.0,0,0.0
0.1,0.004178588733610924,77.5,0,90,3.0,0,0.0
0.105,0.0017299316936037381,77.5,0,90,3.0,0,0.0
0.11,0.0008997325756988589,77.5,0,90,3.0,0,0.0
0.115,0.001634769674224814,77.5,0,90,3.0,0,0.0
0.12,0.00614904736476635,77.5,0,90,3.0,0,0.0
0.125,0.02168080359963608,77.5,0,90,3.0,0,0.0
0.13,0.06433400338904088,77.5,0,90,3.0,0,0.0
0.135,0.1593410769217493,77.5,0,90,3.0,0,0.0
0.14,0.3291989194808569,77.5,0,90,3.0,0,0.0
0.145,0.5672906802982638,77.5,0,90,3.0,0,0.0
0.15,0.815339152120446,77.5,0,90,3.0,0,0.0
0.155,0.9768711246313155,77.5,0,90,3.0,0,0.0
0.16,0.9726380909165361,77.5,0,90,3.0,0,0.0
0.165,0.7921091683291741,77.5,0,90,3.0,0,0.0
0.17,0.49139090102639077,77.5,0,90,3.0,0,0.0
0.175,0.15739335672107918,77.5,0,90,3.0,0,0.0
0.18,-0.11102342218909485,77.5,0,90,3.0,0,0.0
0.185,-0.2314207883647528,77.5,0,90,3.0,0,0.0
0.19,-0.2029124434754801,77.5,0,90,3.0,0,0.0
0.195,-0.11151350554305876,77.5,0,90,3.0,0,0.0
0.2,-0.039430666652076896,77.5,0,90,3.0,0,0.0
0.205,-0.006087703519843621,77.5,0,90,3.0,0,0.0
0.21,0.005350271385530551,77.5,0,90,3.0,0,0.0
0.215,0.010381647827441833,77.5,0,90,3.0,0,0.0
0.22,0.015115203303506243,77.5,0,90,3.0,0,0.0
0.225,0.021170964062928475,77.5,0,90,3.0,0,0.0
0.23,0.029082821134029553,77.5,0,90,3.0,0,0.0
0.235,0.03923107061708144,77.5,0,90,3.0,0,0.0
0.24,0.051969043308817596,77.5,0,90,3.0,0,0.0
0.245,0.06760532616283861,77.5,0,90,3.0,0,0.0
0.25,0.08636519236693461,77.5,0,90,3.0,0,0.0
0.255,0.10834733138818661,77.5,0,90,3.0,0,0.0
0.26,0.1334809643017884,77.5,0,90,3.0,0,0.0
0.265,0.16148868344343945,77.5,0,90,3.0,0,0.0
0.27,0.191860907532018,77.5,0,90,3.0,0,0.0
0.275,0.22384764873847726,77.5,0,90,3.0,0,0.0
0.28,0.25647215537198226,77.5,0,90,3.0,0,0.0
0.285,0.2885689161419028,77.5,0,90,3.0,0,0.0
0.29,0.31884566517832524,77.5,0,90,3.0,0,0.0
0.295,0.3459657668955683,77.5,0,90,3.0,0,0.0
0.3,0.3686441789190902,77.5,0,90,3.0,0,0.0
0.305,0.3857476379544367,77.5,0,90,3.0,0,0.0
0.31,0.3963882865005728,77.5,0,90,3.0,0,0.0
0.315,0.4,77.5,0,90,3.0,0,0.0
0.32,0.39638828650057273,77.5,0,90,3.0,0,0.0
0.325,0.38574763795443656,77.5,0,90,3.0,0,0.0
0.33,0.36864417891908974,77.5,0,90,3.0,0,0.0
0.335,0.345965766895568,77.5,0,90,3.0,0,0.0
0.34,0.3188456651783249,77.5,0,90,3.0,0,0.0
0.345,0.28856891614190205,77.5,0,90,3.0,0,0.0
0.35,0.2564721553719815,77.5,0,90,3.0,0,0.0
0.355,0.22384764873847685,77.5,0,90,3.0,0,0.0
0.36,0.19186090753201765,77.5,0,90,3.0,0,0.0
0.365,0.16148868344343878,77.5,0,90,3.0,0,0.0
0.37,0.1334809643017881,77.5,0,90,3.0,0,0.0
0.375,0.10834733138818531,77.5,0,90,3.0,0,0.0
0.38,0.08636519236690572,77.5,0,90,3.0,0,0.0
0.385,0.06760532616242629,77.5,0,90,3.0,0,0.0
0.39,0.05196904332202373,77.5,0,90,3.0,0,0.0
0.395,0.03923107185803287,77.5,0,90,3.0,0,0.0
0.4,0.02908287038705761,77.5,0,90,3.0,0,0.0
0.405,0.02117220077308346,77.5,0,90,3.0,0,0.0
0.41,0.0151361834125735,77.5,0,90,3.0,0,0.0
0.415,0.010626454858290009,77.5,0,90,3.0,0,0.0
0.42,0.007326255555493652,77.5,0,90,3.0,0,0.0
0.425,0.004960179211183015,77.5,0,90,3.0,0,0.0
0.43,0.0032978759379303545,77.5,0,90,3.0,0,0.0
0.435,0.002153242296767213,77.5,0,90,3.0,0,0.0
0.44,0.001380616732225004,77.5,0,90,3.0,0,0.0
0.445,0.0008693106590991584,77.5,0,90,3.0,0,0.0
0.45,0.000537524815942247,77.5,0,90,3.0,0,0.0
0.455,0.0003263951340288585,77.5,0,90,3.0,0,0.0
0.46,0.00019463030985187395,77.5,0,90,3.0,0,0.0
0.465,0.00011397219555062695,77.5,0,90,3.0,0,0.0
0.47,6.55403863487943e-05,77.5,0,90,3.0,0,0.0
0.475,3.701184389455385e-05,77.5,0,90,3.0,0,0.0
0.48,2.0525516217290957e-05,77.5,0,90,3.0,0,0.0
0.485,1.1178128483661116e-05,77.5,0,90,3.0,0,0.0
0.49,5.978135409912517e-06,77.5,0,90,3.0,0,0.0
0.495,3.1396702713238487e-06,77.5,0,90,3.0,0,0.0
0.5,1.6192875458531019e-06,77.5,0,90,3.0,0,0.0
0.505,8.201353897972012e-07,77.5,0,90,3.0,0,0.0
0.51,4.0791415086824765e-07,77.5,0,90,3.0,0,0.0
0.515,1.9923866938774793e-07,77.5,0,90,3.0,0,0.0
0.52,9.556527981051257e-08,77.5,0,90,3.0,0,0.0
0.525,4.501406988770349e-08,77.5,0,90,3.0,0,0.0
0.53,0.0,77.5,0,90,3.0,0,0.0
0.535,0.0,77.5,0,90,3.0,0,0.0
0.54,0.0,77.5,0,90,3.0,0,0.0
0.545,0.0,77.5,0,90,3.0,0,0.0
0.55,0.0,77.5,0,90,3.0,0,0.0
0.555,0.0,77.5,0,90,3.0,0,0.0
0.56,0.0,77.5,0,90,3.0,0,0.0
0.565,0.0,77.5,0,90,3.0,0,0.0
0.57,0.0,77.5,0,90,3.0,0,0.0
0.575,0.0,77.5,0,90,3.0,0,0.0
0.58,0.001684486749771458,77.5,0,90,3.0,0,0.0
0.585,0.004172395771277602,77.5,0,90,3.0,0,0.0
0.59,0.009438687428818865,77.5,0,90,3.0,0,0.0
0.595,0.019500507867137046,77.5,0,90,3.0,0,0.0
0.6,0.03679496976339974,77.5,0,90,3.0,0,0.0
0.605,0.06340728953298436,77.5,0,90,3.0,0,0.0
0.61,0.09979255396093453,77.5,0,90,3.0,0,0.0
0.615,0.14343835518453557,77.5,0,90,3.0,0,0.0
0.62,0.18829581417209276,77.5,0,90,3.0,0,0.0
0.625,0.2257481735193119,77.5,0,90,3.0,0,0.0
0.63,0.24718154073554727,77.5,0,90,3.0,0,0.0
0.635,0.24718154074102772,77.5,0,90,3.0,0,0.0
0.64,0.22574817354072055,77.5,0,90,3.0,0,0.0
0.645,0.18829581422840957,77.5,0,90,3.0,0,0.0
0.65,0.14343835532456656,77.5,0,90,3.0,0,0.0
0.655,0.09979255431561854,77.5,0,90,3.0,0,0.0
0.66,0.06340729067170194,77.5,0,90,3.0,0,0.0
0.665,0.03679497683410042,77.5,0,90,3.0,0,0.0
0.67,0.019500578284482293,77.5,0,90,3.0,0,0.0
0.675,0.009439396781978427,77.5,0,90,3.0,0,0.0
0.68,0.004178588733610924,77.5,0,90,3.0,0,0.0
0.685,0.0017299316936037381,77.5,0,90,3.0,0,0.0
0.69,0.0008997325756988589,77.5,0,90,3.0,0,0.0
0.695,0.001634769674224814,77.5,0,90,3.0,0,0.0
0.7,0.00614904736476635,77.5,0,90,3.0,0,0.0
0.705,0.02168080359963608,77.5,0,90,3.0,0,0.0
0.71,0.06433400338904088,77.5,0,90,3.0,0,0.0
0.715,0.1593410769217493,77.5,0,90,3.0,0,0.0
0.72,0.3291989194808569,77.5,0,90,3.0,0,0.0
0.725,0.5672906802982638,77.5,0,90,3.0,0,0.0
0.73,0.815339152120446,77.5,0,90,3.0,0,0.0
0.735,0.9768711246313155,77.50000284586159,1,90,3.0,0,5.8677558500516847e-08
0.74,0.9726380909165361,77.50000570245213,0,90,3.0,0,1.1757633254176457e-07
0.745,0.7921091683291741,77.50001225806744,0,90,3.0,0,2.527436586159141e-07
0.75,0.49139090102639077,77.50002942758579,0,90,3.0,0,6.067543461202937e-07
0.755,0.15739335672107918,77.50007969525397,0,90,3.0,0,1.6432011128453615e-06
0.76,-0.11102342218909485,77.50023533387187,0,90,3.0,0,4.8522447808367e-06
0.765,-0.2314207883647528,77.50071883774795,0,90,3.0,0,1.4821396865024148e-05
0.77,-0.2029124434754801,77.50217579271153,0,90,3.0,0,4.4861705392288955e-05
0.775,-0.11151350554305876,77.50635725002037,0,90,3.0,0,0.00013107732000766818
0.78,-0.039430666652076896,77.51768141331813,0,90,3.0,0,0.0003645652230542177
0.785,-0.006087703519843621,77.54648137072928,0,90,3.0,0,0.0009583787779233389
0.79,0.005350271385530551,77.61508024410816,0,90,3.0,0,0.002372788538312508
0.795,0.010381647827441833,77.76784731218491,0,90,3.0,0,0.005522624993503347
0.8,0.015115203303506243,78.08549326951349,0,90,3.0,0,0.012072026175535917
0.805,0.021170964062928475,78.70138007120593,0,90,3.0,0,0.024770723117648087
0.81,0.029082821134029553,79.81333731768606,0,90,3.0,0,0.047697676653320885
0.815,0.03923107061708144,81.67953161509834,0,90,3.0,0,0.08617590958965651
0.82,0.051969043308817596,84.58445788628454,0,90,3.0,0,0.1460712966244235
0.825,0.06760532616283861,88.76559186610127,0,90,3.0,0,0.23228024466188196
0.83,0.08636519236693461,94.30580224572596,0,90,3.0,0,0.34651138650981356
0.835,0.10834733138818661,101.01908127568012,0,90,3.0,0,0.4849295108387654
0.84,0.1334809643017884,108.37758909741606,0,90,3.0,0,0.6366513215962075
0.845,0.16148868344343945,115.53155299925712,0,90,3.0,0,0.7841557319434457
0.85,0.191860907532018,121.44932005335616,0,90,3.0,0,0.9061715474918796
0.855,0.22384764873847726,125.15631195469562,0,90,3.0,0,0.9826043701999098
0.86,0.25647215537198226,126.0,0,90,3.0,0,1.0
0.865,0.2885689161419028,123.8427949295679,0,90,3.0,0,0.9555215449395443
0.87,0.31884566517832524,119.10508764276156,0,90,3.0,0,0.8578368586136405
0.875,0.3459657668955683,112.64051130847515,0,90,3.0,0,0.7245466249170135
0.88,0.3686441789190902,105.4947173494078,0,90,3.0,0,0.5772106669980989
0.885,0.3857476379544367,98.64157127935391,0,90,3.0,0,0.4359086861722456
0.89,0.3963882865005728,92.7872202864701,0,90,3.0,0,0.3152004182777341
0.895,0.4,88.29055850091387,0,90,3.0,0,0.222485742286884
0.9,0.39638828650057273,85.19499150634792,0,90,3.0,0,0.15865961868758593
0.905,0.38574763795443656,83.32841126591062,0,90,3.0,0,0.1201734281631055
0.91,0.36864417891908974,82.41862451624381,0,90,3.0,0,0.10141493847925381
0.915,0.345965766895568,82.1853521137011,0,90,3.0,0,0.09660519822064124
0.92,0.3188456651783249,82.39306572658664,0,90,3.0,0,0.10088795312549777
0.925,0.28856891614190205,82.86818610804693,0,90,3.0,0,0.11068424965045211
0.93,0.2564721553719815,83.49352503596295,0,90,3.0,0,0.12357783579305044
0.935,0.22384764873847685,84.19327652565775,0,90,3.0,0,0.13800570155995362
0.94,0.19186090753201765,84.91762339581283,0,90,3.0,0,0.1529406885734603
0.945,0.16148868344343878,85.63113017574868,0,90,3.0,0,0.16765216857213774
0.95,0.1334809643017881,86.30565243766684,0,90,3.0,0,0.18155984407560488
0.955,0.10834733138818531,86.91685513029627,0,90,3.0,0,0.19416196144940762
0.96,0.08636519236690572,87.44305757969148,0,90,3.0,0,0.2050114964884842
0.965,0.06760532616242629,87.86533772288807,0,90,3.0,0,0.2137183035647025
0.97,0.05196904332202373,88.16817973634383,0,90,3.0,0,0.21996246879059445
0.975,0.03923107185803287,88.3402384667518,0,90,3.0,0,0.22351007147941854
0.98,0.02908287038705761,88.37498162664085,0,90,3.0,0,0.22422642529156384
0.985,0.02117220077308346,88.27108106749418,0,90,3.0,0,0.22208414572152949
0.99,0.0151361834125735,88.03249098378444,0,90,3.0,0,0.21716476255225653
0.995,0.010626454858290009,87.66819648788929,0,90,3.0,0,0.20965353583276886
1.0,0.007326255555493652,87.19165162443677,0,90,3.0,0,0.1998278685450881
1.005,0.004960179211183015,86.61995488836745,0,90,3.0,0,0.18804030697664836
1.01,0.0032978759379303545,85.97283240911523,0,90,3.0,0,0.1746975754456748
1.015,0.002153242296767213,85.27151291372265,0,90,3.0,0,0.16023737966438445
1.02,0.001380616732225004,84.53758349445417,0,90,3.0,0,0.14510481431864264
1.025,0.0008693106590991584,83.79191110989592,0,90,3.0,0,0.1297301259772355
1.03,0.000537524815942247,83.05370269529314,0,90,3.0,0,0.11450933392356989
1.035,0.0003263951340288585,82.33975866855332,0,90,3.0,0,0.09978883852687248
1.04,0.00019463030985187395,81.66395297564524,0,90,3.0,0,0.08585470052876794
1.045,0.00011397219555062695,81.03695029627794,0,90,3.0,0,0.07292681023253478
1.05,6.55403863487943e-05,80.46615012462807,0,90,3.0,0,0.06115773452841386
1.055,3.701184389455385e-05,79.95583016691808,0,90,3.0,0,0.05063567354470261
1.06,2.0525516217290957e-05,79.50744919237871,0,90,3.0,0,0.04139070499749928
1.065,1.1178128483661116e-05,79.12006270877623,0,90,3.0,0,0.03340335482012848
1.07,5.978135409912517e-06,78.7908034547283,0,90,3.0,0,0.02661450422120217
1.075,3.1396702713238487e-06,78.51538196065025,0,90,3.0,0,0.020935710528871037
1.08,1.6192875458531019e-06,78.28856917829346,0,90,3.0,0,0.016259158315329016
1.085,8.201353897972012e-07,78.1046320774523,0,90,3.0,0,0.012466640772212247
1.09,4.0791415086824765e-07,77.95770283268605,0,90,3.0,0,0.009437171807959853
1.095,1.9923866938774793e-07,77.8420716221398,0,90,3.0,0,0.007053023136903054
1.1,9.556527981051257e-08,77.75240126350023,0,90,3.0,0,0.005204149762891385
1.105,4.501406988770349e-08,77.68386837283725,0,90,3.0,0,0.0037911004708711957
1.11,0.0,77.63224022257143,0,90,3.0,0,0.0027266025272458896
1.115,0.0,77.593899037566,0,90,3.0,0,0.0019360626302268875
1.12,0.0,77.56582634489853,0,90,3.0,0,0.0013572442247118605
1.125,0.0,77.54555954431204,0,90,3.0,0,0.0009393720476709601
1.13,0.0,77.53113149901236,0,90,3.0,0,0.0006418865775744446
1.135,0.0,77.5210020517766,0,90,3.0,0,0.00043303199539392604
1.14,0.0,77.51398828420264,0,90,3.0,0,0.0002884182309822584
1.145,0.0,77.50919831335803,0,90,3.0,0,0.00018965594552633241
1.15,0.0,77.50597163128171,0,90,3.0,0,0.0001231264181795915
1.155,0.0,77.50382753172264,0,90,3.0,0,7.891817984814552e-05
1.16,0.0,77.50242206416318,0,90,3.0,0,4.9939467282149394e-05
1.165,0.0,77.50151319019876,0,90,3.0,0,3.119979791266787e-05
1.17,0.0,77.5009333454743,0,90,3.0,0,1.9244236583388782e-05
1.175,0.0,77.50056837159171,0,90,3.0,0,1.171900189095928e-05
1.18,0.0,77.50034171443933,0,90,3.0,0,7.045658542878787e-06
1.185,0.0,77.50020283146561,0,90,3.0,0,4.182092074523604e-06
1.19,0.0,77.50011886345717,0,90,3.0,0,2.450792931437352e-06
1.195,0.0,77.50006877053725,0,90,3.0,0,1.4179492217356982e-06
1.2,0.0,77.50003928235421,0,90,3.0,0,8.099454475996026e-07
1.205,0.0,77.50002215305511,0,90,3.0,1,4.567640229483398e-07
1.21,0.001684486749771458,77.50001233419412,0,90,3.0,1,2.5431328092204194e-07
1.215,0.004172395771277602,77.50000677998857,0,90,3.0,1,1.39793578701409e-07
1.22,0.009438687428818865,77.50000367949464,0,90,3.0,1,7.586586885858215e-08
1.225,0.019500507867137046,77.50000197146203,0,90,3.0,1,4.064870157768363e-08
1.23,0.03679496976339974,77.50000104286885,0,90,3.0,1,2.150245042272574e-08
1.235,0.06340728953298436,77.50000054464309,0,90,3.0,1,1.1229754354363397e-08
1.24,0.09979255396093453,77.50000028082472,0,90,3.0,1,5.7902004474018806e-09
1.245,0.14343835518453557,77.50000014295512,0,90,3.0,1,2.9475281688477126e-09
1.25,0.18829581417209276,77.50000007184642,0,90,3.0,1,1.481369382258656e-09
1.255,0.2257481735193119,77.50000003564934,0,90,3.0,1,7.350378541794027e-10
1.26,0.24718154073554727,77.5000000174638,0,90,3.0,1,3.6007844586886665e-10
1.265,0.24718154074102772,77.50000000844632,0,90,3.0,1,1.7415094795800654e-10
1.27,0.22574817354072055,77.50000000403308,0,90,3.0,1,8.315635465440153e-11
1.275,0.18829581422840957,77.50000000190128,0,90,3.0,1,3.920174150931116e-11
1.28,0.14343835532456656,77.50000000088491,0,90,3.0,1,1.824556542506451e-11
1.285,0.09979255431561854,77.50000000040662,0,90,3.0,1,8.383818267341751e-12
1.29,0.06340729067170194,77.50000000018447,0,90,3.0,1,3.803527939340973e-12
1.295,0.03679497683410042,77.50000000008262,0,90,3.0,1,1.7035445219419474e-12
1.3,0.019500578284482293,77.50000000003654,0,90,3.0,1,7.53321803562564e-13
1.305,0.009439396781978427,77.50000000001594,0,90,3.0,1,3.2875420598879686e-13
1.31,0.004178588733610924,77.50000000000688,0,90,3.0,1,1.4181553983830453e-13
1.315,0.0017299316936037381,77.50000000000293,0,90,3.0,1,6.035950662539408e-14
1.32,0.0008997325756988589,77.50000000000122,0,90,3.0,1,2.519862897953345e-14
1.325,0.001634769674224814,77.50000000000051,0,90,3.0,1,1.0548263293758189e-14
1.33,0.00614904736476635,77.50000000000021,0,90,3.0,1,4.395109705732579e-15
1.335,0.02168080359963608,77.50000000000009,0,90,3.0,1,1.7580438822930315e-15
1.34,0.06433400338904088,77.50000000000003,0,90,3.0,1,5.860146274310105e-16
1.345,0.1593410769217493,77.50000000000001,0,90,3.0,1,2.9300731371550523e-16
1.35,0.3291989194808569,77.5,0,90,3.0,1,0.0
1.355,0.5672906802982638,77.5,0,90,3.0,1,0.0
1.36,0.815339152120446,77.5,0,90,3.0,1,0.0
1.365,0.9768711246313155,77.50000284150002,1,90,3.0,1,5.858762928180591e-08
1.37,0.9726380909165361,77.5000055087254,0,90,3.0,1,1.1358196688794948e-07
1.375,0.7921091683291741,77.50001136395807,0,90,3.0,1,2.3430841373428661e-07
1.38,0.49139090102639077,77.50002585890292,0,90,3.0,1,5.331732559967612e-07
1.385,0.15739335672107918,77.50006577270929,0,90,3.0,1,1.356138335905626e-06
1.39,-0.11102342218909485,77.50018247875063,0,90,3.0,1,3.76244846661487e-06
1.395,-0.2314207883647528,77.50052776496497,0,90,3.0,1,1.0881751855078582e-05
1.4,-0.2029124434754801,77.50152756139154,0,90,3.0,1,3.1496111165786474e-05
1.405,-0.11151350554305876,77.50430755613382,0,90,3.0,1,8.88155903881271e-05
1.41,-0.039430666652076896,77.5116563600092,0,90,3.0,1,0.00024033731977727622
1.415,-0.006087703519843621,77.53002739545968,0,90,3.0,1,0.0006191215558697577
1.42,0.005350271385530551,77.57333096905042,0,90,3.0,1,0.0015119787433075698
1.425,0.010381647827441833,77.66940490223725,0,90,3.0,1,0.0034928845822112743
1.43,0.015115203303506243,77.86976747664984,0,90,3.0,1,0.007624071683501874
1.435,0.021170964062928475,78.26211431813414,0,90,3.0,1,0.01571369728111625
1.44,0.029082821134029553,78.98267513398078,0,90,3.0,1,0.03057062131919128
1.445,0.03923107061708144,80.22218766058688,0,90,3.0,1,0.05612758063065738
1.45,0.051969043308817596,82.21612057642412,0,90,3.0,1,0.09723959951389932
1.455,0.06760532616283861,85.20932922752098,0,90,3.0,1,0.15895524180455634
1.46,0.08636519236693461,89.39039798617173,0,90,3.0,1,0.24516284507570588
1.465,0.10834733138818661,94.8028006534978,0,90,3.0,1,0.35675877636077935
1.47,0.1334809643017884,101.25612781731577,0,90,3.0,1,0.48981706839826333
1.475,0.16148868344343945,108.27370857382006,0,90,3.0,1,0.6345094551303105
1.48,0.191860907532018,115.11341104223824,0,90,3.0,1,0.775534248293572
1.485,0.22384764873847726,120.88000833622657,0,90,3.0,1,0.8944331615716817
1.49,0.25647215537198226,124.71329532894552,0,90,3.0,1,0.9734700067823818
1.495,0.2885689161419028,126.0,0,90,3.0,1,1.0
1.5,0.31884566517832524,124.53834900968857,0,90,3.0,1,0.9698628661791459
1.505,0.3459657668955683,120.59493192202842,0,90,3.0,1,0.8885552973614108
1.51,0.3686441789190902,114.83222413300682,0,90,3.0,1,0.7697365800619963
1.515,0.3857476379544367,108.13422420586735,0,90,3.0,1,0.6316334887807702
1.52,0.3963882865005728,101.3936098555063,0,90,3.0,1,0.492651749598068
1.525,0.4,95.33064507931,0,90,3.0,1,0.3676421665837114
1.53,0.39638828650057273,90.39185276201252,0,90,3.0,1,0.2658113971548973
1.535,0.38574763795443656,86.73955542986523,0,90,3.0,1,0.19050629752299453
1.54,0.36864417891908974,84.31059562557269,0,90,3.0,1,0.14042465207366367
1.545,0.345965766895568,82.9065602268215,0,90,3.0,1,0.11147546859425768
1.55,0.3188456651783249,82.28033336831763,0,90,3.0,1,0.09856357460448717
1.555,0.28856891614190205,82.19778113694667,0,90,3.0,1,0.09686146674116852
1.56,0.2564721553719815,82.46927305071628,0,90,3.0,1,0.1024592381590986
1.565,0.22384764873847685,82.95682150774277,0,90,3.0,1,0.11251178366479946
1.57,0.19186090753201765,83.56687754099825,0,90,3.0,1,0.12509025857728348
1.575,0.16148868344343878,84.23787322707521,0,90,3.0,1,0.1389252211768085
1.58,0.1334809643017881,84.92832444149448,0,90,3.0,1,0.15316132869060786
1.585,0.10834733138818531,85.60801881012263,0,90,3.0,1,0.16717564556953876
1.59,0.08636519236690572,86.25260772478875,0,90,3.0,1,0.18046613865543806
1.595,0.06760532616242629,86.84089403560439,0,90,3.0,1,0.19259575331143078
1.6,0.05196904332202373,87.35388295636871,0,90,3.0,1,0.20317284446121045
1.605,0.03923107185803287,87.77481720348132,0,90,3.0,1,0.21185190110270763
1.61,0.02908287038705761,88.08966243795557,0,90,3.0,1,0.21834355542176428
1.615,0.02117220077308346,88.28771551986046,0,90,3.0,1,0.22242712412083412
1.62,0.0151361834125735,88.36214631799686,0,90,3.0,1,0.22396177975251258
1.625,0.010626454858290009,88.31036736727964,0,90,3.0,1,0.22289417252122967
1.63,0.007326255555493652,88.13417633763018,0,90,3.0,1,0.21926136778618927
1.635,0.004960179211183015,87.83965035915766,0,90,3.0,1,0.213188667199127
1.64,0.0032978759379303545,87.43679744267308,0,90,3.0,1,0.20488242149841407
1.645,0.002153242296767213,86.9389917989111,0,90,3.0,1,0.1946183876064145
1.65,0.001380616732225004,86.36223716698538,0,90,3.0,1,0.18272653952547177
1.655,0.0008693106590991584,85.72431461211428,0,90,3.0,1,0.16957349715699555
1.66,0.000537524815942247,85.04387789533241,0,90,3.0,1,0.15554387413056525
1.665,0.0003263951340288585,84.33956014461978,0,90,3.0,1,0.14102185865195427
1.67,0.00019463030985187395,83.62915046826862,0,90,3.0,1,0.1263742364591468
1.675,0.00011397219555062695,82.92888923969679,0,90,3.0,1,0.11193586061230489
1.68,6.55403863487943e-05,82.25291740154772,0,90,3.0,1,0.09799829693912823
1.685,3.701184389455385e-05,81.61289990625842,0,90,3.0,1,0.08480205992285401
1.69,2.0525516217290957e-05,81.01782800176962,0,90,3.0,1,0.07253253611896114
1.695,1.1178128483661116e-05,80.47399100328275,0,90,3.0,1,0.0613194021295412
1.7,5.978135409912517e-06,79.9850966673004,0,90,3.0,1,0.05123910654227622
1.705,3.1396702713238487e-06,79.55251108450634,0,90,3.0,1,0.04231981617538835
1.71,1.6192875458531019e-06,79.17558445710158,0,90,3.0,1,0.034548133136115024
1.715,8.201353897972012e-07,78.85202811529082,0,90,3.0,1,0.027876868356511774
1.72,4.0791415086824765e-07,78.57831019218708,0,90,3.0,1,0.022233199838908767
1.725,1.9923866938774793e-07,78.35004180586505,0,90,3.0,1,0.01752663517247519
1.73,9.556527981051257e-08,78.16233155760507,0,90,3.0,1,0.013656320775362298
1.735,4.501406988770349e-08,78.01009280593172,0,90,3.0,1,0.01051737744189113
1.74,0.0,77.88829476616297,0,90,3.0,1,0.008006077652844772
1.745,0.0,77.79215442099877,0,90,3.0,1,0.006023802494820002
1.75,0.0,77.71727110655786,0,90,3.0,1,0.004479816630058962
1.755,0.0,77.65970925268655,0,90,3.0,1,0.003292974282196985
1.76,0.0,77.61603707332719,0,90,3.0,1,0.0023925169758183882
1.765,0.0,77.58333012691409,0,90,3.0,1,0.0017181469466823053
1.77,0.0,77.55914879585012,0,90,3.0,1,0.0012195628010334112
1.775,0.0,77.54149811404007,0,90,3.0,1,0.0008556312173209687
1.78,0.0,77.52877725728622,0,90,3.0,1,0.0005933455110561316
1.785,0.0,77.51972463735181,0,90,3.0,1,0.0004066935536456509
1.79,0.0,77.51336310074132,0,90,3.0,1,0.00027552785033640716
1.795,0.0,77.50894837231351,0,90,3.0,1,0.0001845025219280774
1.8,0.0,77.50592269592266,0,90,3.0,1,0.00012211744170440163
1.805,0.0,77.50387465835057,0,90,3.0,1,7.988986289831832e-05
1.81,0.0,77.50250545138663,0,90,3.0,1,5.1658791476807595e-05
1.815,0.0,77.50160131633649,0,90,3.0,1,3.301683168021236e-05
1.82,0.0,77.50101159546982,0,90,3.0,1,2.0857638552975802e-05
1.825,0.0,77.5006316481158,0,90,3.0,1,1.3023672490711779e-05
1.83,0.0,77.50038983616128,0,90,3.0,1,8.037858995371654e-06
1.835,0.0,77.50023780863849,0,90,3.0,1,4.903270896659603e-06
1.84,0.0,77.50014338764066,0,90,3.0,1,2.9564461992214493e-06
1.845,0.0,77.50008545439401,0,90,3.0,1,1.7619462682629541e-06
1.85,0.0,77.5000503379664,0,90,3.0,1,1.0378962144255338e-06
1.855,0.0,77.50002930863025,0,90,3.0,1,6.04301654562995e-07
1.86,0.0,77.50001686684932,0,90,3.0,1,3.47770089106656e-07
1.865,0.0,77.50000959424924,0,90,3.0,1,1.9781957185729233e-07
1.87,0.001684486749771458,77.50000539419466,0,90,3.0,1,1.1122050843190777e-07
1.875,0.004172395771277602,77.50000299764929,0,90,3.0,1,6.180720184911667e-08
1.88,0.009438687428818865,77.50000164654504,0,90,3.0,1,3.394938235689233e-08
1.885,0.019500507867137046,77.50000089393305,0,90,3.0,1,1.8431609246878916e-08
1.89,0.03679496976339974,77.50000047970579,0,90,3.0,1,9.890841025930826e-09
1.895,0.06340728953298436,77.5000002544389,0,90,3.0,1,5.246162926755695e-09
1.9,0.09979255396093453,77.50000013339228,0,90,3.0,1,2.750356222265706e-09
1.905,0.14343835518453557,77.50000006912201,0,90,3.0,1,1.4251960711243151e-09
1.91,0.18829581417209276,77.50000003540305,0,90,3.0,1,7.299597444253993e-10
1.915,0.2257481735193119,77.5000000179227,0,90,3.0,1,3.695402380433678e-10
1.92,0.24718154073554727,77.5000000089682,0,90,3.0,1,1.8491134854689477e-10
1.925,0.24718154074102772,77.50000000443552,0,90,3.0,1,9.145402877151092e-11
1.93,0.22574817354072055,77.50000000216832,0,90,3.0,1,4.4707641941339216e-11
1.935,0.18829581422840957,77.50000000104771,0,90,3.0,1,2.160225721098934e-11
1.94,0.14343835532456656,77.50000000050038,0,90,3.0,1,1.0317080523236655e-11
1.945,0.09979255431561854,77.5000000002362,0,90,3.0,1,4.870074561265413e-12
1.95,0.06340729067170194,77.5000000001102,0,90,3.0,1,2.272271717863743e-12
1.955,0.03679497683410042,77.50000000005083,0,90,3.0,1,1.0480871611603622e-12
1.96,0.019500578284482293,77.50000000002316,0,90,3.0,1,4.776019213562735e-13
1.965,0.009439396781978427,77.50000000001044,0,90,3.0,1,2.1536037558089634e-13
1.97,0.004178588733610924,77.50000000000465,0,90,3.0,1,9.581339158497021e-14
1.975,0.0017299316936037381,77.50000000000205,0,90,3.0,1,4.2193053175032755e-14
1.98,0.0008997325756988589,77.5000000000009,0,90,3.0,1,1.845946076407683e-14
1.985,0.001634769674224814,77.50000000000038,0,90,3.0,1,7.911197470318642e-15
1.99,0.00614904736476635,77.50000000000016,0,90,3.0,1,3.2230804508705575e-15
1.995,0.02168080359963608,77.50000000000007,0,90,3.0,1,1.465036568577526e-15
2.0,0.06433400338904088,77.50000000000003,0,90,3.0,1,5.860146274310105e-16
2.005,0.1593410769217493,77.50000000000001,0,90,3.0,1,2.9300731371550523e-16
2.01,0.3291989194808569,77.5,0,90,3.0,1,0.0
2.015,0.5672906802982638,77.5,0,90,3.0,1,0.0
2.02,0.815339152120446,77.5,0,90,3.0,1,0.0
2.025,0.9768711246313155,77.50000285552753,1,90,3.0,1,5.887685621515986e-08
2.03,0.9726380909165361,77.50000520447219,0,90,3.0,1,1.0730870491391488e-07
2.035,0.7921091683291741,77.50000995709195,0,90,3.0,1,2.053008648948252e-07
2.04,0.49139090102639077,77.50002056893659,0,90,3.0,1,4.2410178538769276e-07
2.045,0.15739335672107918,77.50004661724779,0,90,3.0,1,9.61180366803748e-07
2.05,-0.11102342218909485,77.5001147729744,0,90,3.0,1,2.366453080393859e-06
2.055,-0.2314207883647528,77.50029764967344,0,90,3.0,1,6.137106668905655e-06
2.06,-0.2029124434754801,77.500785544837,0,90,3.0,1,1.6196800762904832e-05
2.065,-0.11151350554305876,77.50205444575526,0,90,3.0,1,4.235970629408548e-05
2.07,-0.039430666652076896,77.50523518400281,0,90,3.0,1,0.00010794193820234542
2.075,-0.006087703519843621,77.5128715865154,0,90,3.0,1,0.0002653935364000433
2.08,0.005350271385530551,77.53036900776213,0,90,3.0,1,0.000626165108497579
2.085,0.010381647827441833,77.56855265968096,0,90,3.0,1,0.0014134569006383694
2.09,0.015115203303506243,77.64780523667532,0,90,3.0,1,0.003047530653099477
2.095,0.021170964062928475,77.80410206391555,0,90,3.0,1,0.006270145647743309
2.1,0.029082821134029553,78.09673098914041,0,90,3.0,1,0.012303731734853843
2.105,0.03923107061708144,78.61642614987835,0,90,3.0,1,0.02301909587378042
2.11,0.051969043308817596,79.4910919701668,0,90,3.0,1,0.04105344268385168
2.115,0.06760532616283861,80.88464026599783,0,90,3.0,1,0.06978639723706868
2.12,0.08636519236693461,82.98356379225271,0,90,3.0,1,0.11306317097428267
2.125,0.10834733138818661,85.96688820539036,0,90,3.0,1,0.17457501454413116
2.13,0.1334809643017884,89.95903925839481,0,90,3.0,1,0.2568874073895837
2.135,0.16148868344343945,94.97189481779964,0,90,3.0,1,0.36024525397525026
2.14,0.191860907532018,100.85015339549444,0,90,3.0,1,0.48144646176277206
2.145,0.22384764873847726,107.23978686486039,0,90,3.0,1,0.6131914817496988
2.15,0.25647215537198226,113.59888774071936,0,90,3.0,1,0.7443069637261724
2.155,0.2885689161419028,119.26134258801082,0,90,3.0,1,0.8610586100620787
2.16,0.31884566517832524,123.54766026960566,0,90,3.0,1,0.9494362942186734
2.165,0.3459657668955683,125.89923871534836,0,90,3.0,1,0.9979224477391414
2.17,0.3686441789190902,126.0,0,90,3.0,1,1.0
2.175,0.3857476379544367,123.84907570229969,0,90,3.0,1,0.955651045408241
2.18,0.3963882865005728,119.7616889687283,0,90,3.0,1,0.8713750302830576
2.185,0.4,114.29793734683884,0,90,3.0,1,0.7587203576667801
2.19,0.39638828650057273,108.14185634187781,0,90,3.0,1,0.6317908524098518
2.195,0.38574763795443656,101.9669055072934,0,90,3.0,1,0.5044722785008949
2.2,0.36864417891908974,96.32410807616269,0,90,3.0,1,0.3881259397146946
2.205,0.345965766895568,91.5769525838489,0,90,3.0,1,0.2902464450278122
2.21,0.3188456651783249,87.88916740062149,0,90,3.0,1,0.21420963712621627
2.215,0.28856891614190205,85.25525676975919,0,90,3.0,1,0.15990220143833372
2.22,0.2564721553719815,83.5546076577607,0,90,3.0,1,0.12483727129403502
2.225,0.22384764873847685,82.60933738960881,0,90,3.0,1,0.10534716267234662
2.23,0.19186090753201765,82.23158842901915,0,90,3.0,1,0.0975585243096733
2.235,0.16148868344343878,82.25383195221784,0,90,3.0,1,0.09801715365397602
2.24,0.1334809643017881,82.54253002609308,0,90,3.0,1,0.10396969125965104
2.245,0.10834733138818531,82.99947464006678,0,90,3.0,1,0.11339122969209854
2.25,0.08636519236690572,83.55619835507063,0,90,3.0,1,0.12487006917671412
2.255,0.06760532616242629,84.16597981518647,0,90,3.0,1,0.13744288278735
2.26,0.05196904332202373,84.79631481539536,0,90,3.0,1,0.1504394807298013
2.265,0.03923107185803287,85.42315549922839,0,90,3.0,1,0.1633640309119255
2.27,0.02908287038705761,86.02714157677354,0,90,3.0,1,0.1758173520984236
2.275,0.02117220077308346,86.59149776477696,0,90,3.0,1,0.1874535621603497
2.28,0.0151361834125735,87.10110657272229,0,90,3.0,1,0.1979609602623152
2.285,0.010626454858290009,87.54230692597022,0,90,3.0,1,0.20705787476227264
2.29,0.007326255555493652,87.90308268100586,0,90,3.0,1,0.21449655012383206
2.295,0.004960179211183015,88.17341751366388,0,90,3.0,1,0.22007046419925522
2.3,0.0032978759379303545,88.34567729336746,0,90,3.0,1,0.22362221223438059
2.305,0.002153242296767213,88.41493667849002,0,90,3.0,1,0.22505024079360872
2.31,0.001380616732225004,88.37920128564389,0,90,3.0,1,0.22431342856997705
2.315,0.0008693106590991584,88.23949893803727,0,90,3.0,1,0.22143296779458294
2.32,0.000537524815942247,87.99982916518661,0,90,3.0,1,0.21649132299353838
2.325,0.0003263951340288585,87.66697253824412,0,90,3.0,1,0.2096282997576108
2.33,0.00019463030985187395,87.25017186629793,0,90,3.0,1,0.20103447147006048
2.335,0.00011397219555062695,86.76070595231047,0,90,3.0,1,0.19094239076928812
2.34,6.55403863487943e-05,86.2113832602049,0,90,3.0,1,0.17961614969494633
2.345,3.701184389455385e-05,85.61598714496203,0,90,3.0,1,0.1673399411332378
2.35,2.0525516217290957e-05,84.98870603231623,0,90,3.0,1,0.15440630994466453
2.355,1.1178128483661116e-05,84.34358109610417,0,90,3.0,1,0.14110476486812729
2.36,5.978135409912517e-06,83.6940007858222,0,90,3.0,1,0.1277113564087051
2.365,3.1396702713238487e-06,83.05226642030458,0,90,3.0,1,0.11447972000627993
2.37,1.6192875458531019e-06,82.4292465496576,0,90,3.0,1,0.1016339494774764
2.375,8.201353897972012e-07,81.83413054256579,0,90,3.0,1,0.08936351634156264
2.38,4.0791415086824765e-07,81.2742845367467,0,90,3.0,1,0.0778202997267362
2.385,1.9923866938774793e-07,80.75520609839504,0,90,3.0,1,0.0671176515132997
2.39,9.556527981051257e-08,80.28056816437005,0,90,3.0,1,0.05733130235814541
2.395,4.501406988770349e-08,79.8523384350145,0,90,3.0,1,0.04850182340236087
2.4,0.0,79.47095752906112,0,90,3.0,1,0.0406382995682706
2.405,0.0,79.1355579274932,0,90,3.0,1,0.03372284386583908
2.41,0.0,78.84420590116895,0,90,3.0,2,0.02771558559111233
2.415,0.0,78.59415000792092,0,90,3.0,2,0.02255979397775085
2.42,0.0,78.38206205733981,0,90,3.0,2,0.01818684654308884
2.425,0.0,78.20425934252283,0,90,3.0,2,0.01452081118603777
2.43,0.0,78.05690009997573,0,90,3.0,2,0.011482476288159484
2.435,0.0,77.93614728935393,0,90,3.0,2,0.00899272761554486
2.44,0.0,77.83829864822604,0,90,3.0,2,0.006975229860330794
2.445,0.0,77.75988340609467,0,90,3.0,2,0.005358420744220059
2.45,0.0,77.69772793951074,0,90,3.0,2,0.0040768647321802395
2.455,0.0,77.6489939843806,0,90,3.0,2,0.0030720409150638275
2.46,0.0,77.61119381491554,0,90,3.0,2,0.002292655977639955
2.465,0.0,77.58218711388949,0,90,3.0,2,0.0016945796678245193
2.47,0.0,77.5601641841833,0,90,3.0,2,0.0012404986429544937
2.475,0.0,77.5436197866701,0,90,3.0,2,0.0008993770447444632
2.48,0.0,77.53132133361025,0,90,3.0,2,0.0006458006929948596
2.485,0.0,77.52227450985573,0,90,3.0,2,0.00045926824444812335
2.49,0.0,77.51568871125951,0,90,3.0,2,0.00032347858267039835
2.495,0.0,77.51094403786472,0,90,3.0,2,0.00022565026525191484
2.5,0.0,77.50756099771273,0,90,3.0,2,0.00015589686005628865
2.505,0.0,77.50517358786546,0,90,3.0,2,0.00010667191475168768
2.51,0.0,77.50350603102491,0,90,3.0,2,7.228929948272585e-05
2.515,0.0,77.50235315688904,0,90,3.0,2,4.85186987431621e-05
2.52,0.0,77.50156421776774,0,90,3.0,2,3.225191273683317e-05
2.525,0.0,77.50102980441392,0,90,3.0,2,2.1233080699332895e-05
2.53,0.0,77.50067146516402,0,90,3.0,2,1.3844642557073384e-05
2.535,0.0,77.50043361413033,0,90,3.0,2,8.940497532573796e-06
2.54,0.0,77.50027732854254,0,90,3.0,2,5.718114279127888e-06
2.545,0.0,77.50017566972248,0,90,3.0,2,3.622056133621037e-06
2.55,0.0,77.50011020732575,0,90,3.0,2,2.272315994784933e-06
2.555,0.0,77.50006847550058,0,90,3.0,2,1.4118659914130177e-06
2.56,0.0,77.50004213773335,0,90,3.0,2,8.688192442323927e-07
2.565,0.0,77.50002568137829,0,90,3.0,2,5.295129544274741e-07
2.57,0.0,77.50001550160579,0,90,3.0,2,3.1962073788554804e-07
2.575,0.0,77.50000926715127,0,90,3.0,2,1.9107528392504315e-07
2.58,0.0,77.50000548689967,0,90,3.0,2,1.1313195189818685e-07
2.585,0.0,77.5000032175032,0,90,3.0,2,6.63402722904683e-08
2.59,0.0,77.50000186862502,0,90,3.0,2,3.852835092890093e-08
2.595,0.001684486749771458,77.50000107482197,0,90,3.0,2,2.2161277660622368e-08
2.6,0.004172395771277602,77.50000061229697,0,90,3.0,2,1.2624679839907763e-08
2.605,0.009438687428818865,77.50000034546089,0,90,3.0,2,7.122904950856818e-09
2.61,0.019500507867137046,77.50000019303981,0,90,3.0,2,3.980202266284698e-09
2.615,0.03679496976339974,77.50000010683316,0,90,3.0,2,2.2027454774287593e-09
2.62,0.06340728953298436,77.50000005855668,0,90,3.0,2,1.2073542166035622e-09
2.625,0.09979255396093453,77.50000003178762,0,90,3.0,2,6.554148747210964e-10
2.63,0.14343835518453557,77.50000001709034,0,90,3.0,2,3.523782136644232e-10
2.635,0.18829581417209276,77.50000000910028,0,90,3.0,2,1.8763455852056666e-10
2.64,0.2257481735193119,77.50000000479922,0,90,3.0,2,9.895296495143185e-11
2.645,0.24718154073554727,77.50000000250667,0,90,3.0,2,5.1683853073591685e-11
2.65,0.24718154074102772,77.50000000129668,0,90,3.0,2,2.673574534728499e-11
2.655,0.22574817354072055,77.50000000066433,0,90,3.0,2,1.3697505901572438e-11
2.66,0.18829581422840957,77.50000000033708,0,90,3.0,2,6.9501334813317844e-12
2.665,0.14343835532456656,77.5000000001694,0,90,3.0,2,3.4926471794888225e-12
2.67,0.09979255431561854,77.50000000008431,0,90,3.0,2,1.7384123922740925e-12
2.675,0.06340729067170194,77.50000000004157,0,90,3.0,2,8.570463926178528e-13
2.68,0.03679497683410042,77.5000000000203,0,90,3.0,2,4.1841444398574145e-13
2.685,0.019500578284482293,77.5000000000098,0,90,3.0,2,2.021750464636986e-13
2.69,0.009439396781978427,77.5000000000047,0,90,3.0,2,9.698542083983223e-14
2.695,0.004178588733610924,77.50000000000223,0,90,3.0,2,4.600214825333432e-14
2.7,0.0017299316936037381,77.50000000000105,0,90,3.0,2,2.1682541214947386e-14
2.705,0.0008997325756988589,77.50000000000048,0,90,3.0,2,9.962248666327177e-15
2.71,0.001634769674224814,77.50000000000023,0,90,3.0,2,4.688117019448084e-15
2.715,0.00614904736476635,77.5000000000001,0,90,3.0,2,2.0510511960085364e-15
2.72,0.02168080359963608,77.50000000000004,0,90,3.0,2,8.790219411465157e-16
2.725,0.06433400338904088,77.50000000000001,0,90,3.0,2,2.9300731371550523e-16
2.73,0.1593410769217493,77.50000000000001,0,90,3.0,2,2.9300731371550523e-16
2.735,0.3291989194808569,77.5,0,90,3.0,2,0.0
2.74,0.5672906802982638,77.5,0,90,3.0,2,0.0
2.745,0.815339152120446,77.5,0,90,3.0,2,0.0
2.75,0.9768711246313155,77.50000285676417,1,90,3.0,2,5.8902354004606695e-08
2.755,0.9726380909165361,77.50000597579871,0,90,3.0,2,1.2321234462949187e-07
2.76,0.7921091683291741,77.50001356552342,0,90,3.0,2,2.7970151376225144e-07
2.765,0.49139090102639077,77.50003497746438,0,90,3.0,2,7.211848325950246e-07
2.77,0.15739335672107918,77.5001028295484,0,90,3.0,2,2.120196874149357e-06
2.775,-0.11102342218909485,77.50032857627353,0,90,3.0,2,6.774768526426116e-06
2.78,-0.2314207883647528,77.50107318995177,0,90,3.0,2,2.212762787150458e-05
2.785,-0.2029124434754801,77.50342722585395,0,90,3.0,2,7.066445059699992e-05
2.79,-0.11151350554305876,77.51043915786184,0,90,3.0,2,0.00021524036828534065
2.795,-0.039430666652076896,77.52995417374301,0,90,3.0,2,0.0006176118297527334
2.8,-0.006087703519843621,77.58048363866507,0,90,3.0,2,0.0016594564673210726
2.805,0.005350271385530551,77.70190353972639,0,90,3.0,2,0.004162959581987377
2.81,0.010381647827441833,77.9722066886246,0,90,3.0,2,0.009736220384012277
2.815,0.015115203303506243,78.52883723691323,0,90,3.0,2,0.02121313890542749
2.82,0.021170964062928475,79.58744640825846,0,90,3.0,2,0.04304013212904037
2.825,0.029082821134029553,81.44316199336016,0,90,3.0,2,0.08130230914144668
2.83,0.03923107061708144,84.43398868669256,0,90,3.0,2,0.1429688389008775
2.835,0.051969043308817596,88.85019363942794,0,90,3.0,2,0.2340246111222256
2.84,0.06760532616283861,94.7938714694461,0,90,3.0,2,0.3565746694731155
2.845,0.08636519236693461,102.02720152947737,0,90,3.0,2,0.5057154954531415
2.85,0.10834733138818661,109.88014675588812,0,90,3.0,2,0.6676318918739819
2.855,0.1334809643017884,117.29290180342403,0,90,3.0,2,0.8204722021324542
2.86,0.16148868344343945,123.0269677988685,0,90,3.0,2,0.9387003669869793
2.865,0.191860907532018,126.0,0,90,3.0,2,1.0
2.87,0.22384764873847726,125.62371847231691,0,90,3.0,2,0.9922416179859157
2.875,0.25647215537198226,122.00127964141313,0,90,3.0,2,0.91755215755491
2.88,0.2885689161419028,115.8942005025768,0,90,3.0,2,0.7916330000531298
2.885,0.31884566517832524,108.47408490095529,0,90,3.0,2,0.6386409257928926
2.89,0.3459657668955683,100.9706790088459,0,90,3.0,2,0.4839315259555857
2.895,0.3686441789190902,94.36101382665612,0,90,3.0,2,0.3476497696217757
2.9,0.3857476379544367,89.2030180856508,0,90,3.0,2,0.2412993419721814
2.905,0.3963882865005728,85.63519025775187,0,90,3.0,2,0.1677358816031314
2.91,0.4,83.49252208582134,0,90,3.0,2,0.12355715640868732
2.915,0.39638828650057273,82.46051258424505,0,90,3.0,2,0.10227860998443405
2.92,0.38574763795443656,82.2037286051027,0,90,3.0,2,0.09698409495057107
2.925,0.36864417891908974,82.44053007862519,0,90,3.0,2,0.1018665995592822
2.93,0.345965766895568,82.9670753901127,0,90,3.0,2,0.11272320391984943
2.935,0.3188456651783249,83.64938531699276,0,90,3.0,2,0.12679144983490234
2.94,0.28856891614190205,84.40302826020769,0,90,3.0,2,0.14233047959191114
2.945,0.2564721553719815,85.17322761248187,0,90,3.0,2,0.15821087860787353
2.95,0.22384764873847685,85.92070708946643,0,90,3.0,2,0.17362282658693676
2.955,0.19186090753201765,86.61369544823104,0,90,3.0,2,0.1879112463552792
2.96,0.16148868344343878,87.22447800411031,0,90,3.0,2,0.2005047011156765
2.965,0.1334809643017881,87.72864249984536,0,90,3.0,2,0.21089984535763637
2.97,0.10834733138818531,88.10562810276168,0,90,3.0,2,0.21867274438683887
2.975,0.08636519236690572,88.33971603156166,0,90,3.0,2,0.22349929961982815
2.98,0.06760532616242629,88.42098031514153,0,90,3.0,2,0.22517485185858835
2.985,0.05196904332202373,88.3459434177633,0,90,3.0,2,0.22362769933532567
2.99,0.03923107185803287,88.11781090723721,0,90,3.0,2,0.21892393623169512
2.995,0.02908287038705761,87.74624109913799,0,90,3.0,2,0.2112627030750101
3.0,0.02117220077308346,87.2466660189184,0,90,3.0,2,0.20096218595708049
3.005,0.0151361834125735,86.63922833639852,0,90,3.0,2,0.18843769765770138
3.01,0.010626454858290009,85.94743581358989,0,90,3.0,2,0.1741739343008225
3.015,0.007326255555493652,85.19665823503733,0,90,3.0,2,0.1586939842275739
3.02,0.004960179211183015,84.41260010523945,0,90,3.0,2,0.14252783722143192
3.025,0.0032978759379303545,83.61987559820312,0,90,3.0,2,0.12618300202480667
3.03,0.002153242296767213,82.84079223906735,0,90,3.0,2,0.11011942760963618
3.035,0.001380616732225004,82.09442009731812,0,90,3.0,2,0.09473031128490972
3.04,0.0008693106590991584,81.39598836660922,0,90,3.0,2,0.080329657043489
3.045,0.000537524815942247,80.75661582638531,0,90,3.0,2,0.06714671806980028
3.05,0.0003263951340288585,80.1833500803319,0,90,3.0,2,0.05532680578003929
3.055,0.00019463030985187395,79.67946586996223,0,90,3.0,2,0.044937440617777914
3.06,0.00011397219555062695,79.24495703495197,0,90,3.0,2,0.03597849556601992
3.065,6.55403863487943e-05,78.87715027435881,0,90,3.0,2,0.028394851017707456
3.07,3.701184389455385e-05,78.57137092730025,0,90,3.0,2,0.022090122212376304
3.075,2.0525516217290957e-05,78.3215997732229,0,90,3.0,2,0.016940201509750515
3.08,1.1178128483661116e-05,78.12107306297722,0,90,3.0,2,0.012805630164478705
3.085,5.978135409912517e-06,77.96279323900905,0,90,3.0,2,0.009542128639361753
3.09,3.1396702713238487e-06,77.83993293743072,0,90,3.0,2,0.007008926544963241
3.095,1.6192875458531019e-06,77.74612822394465,0,90,3.0,2,0.005074808741126842
3.1,8.201353897972012e-07,77.67566753930957,0,90,3.0,2,0.003622011119784988
3.105,4.0791415086824765e-07,77.62359006118383,0,90,3.0,2,0.0025482486842027465
3.11,1.9923866938774793e-07,77.58571118626367,0,90,3.0,2,0.0017672409538900143
3.115,9.556527981051257e-08,77.55859403333916,0,90,3.0,2,0.0012081243987456065
3.12,4.501406988770349e-08,77.53948491533247,0,90,3.0,2,0.0008141219656178489
3.125,0.0,77.52622834922965,0,90,3.0,2,0.0005407907057660757
3.13,0.0,77.51717404646297,0,90,3.0,2,0.0003541040507828716
3.135,0.0,77.51108501381437,0,90,3.0,2,0.0002285569858632187
3.14,0.0,77.50705280332339,0,90,3.0,2,0.00014541862522453333
3.145,0.0,77.50442332894124,0,90,3.0,2,9.1202658582334e-05
3.15,0.0,77.50273463035334,0,90,3.0,2,5.638413099680143e-05
3.155,0.0,77.50166651778338,0,90,3.0,2,3.4361191409839806e-05
3.16,0.0,77.50100111323763,0,90,3.0,2,2.064151005432689e-05
3.165,0.0,77.50059281390932,0,90,3.0,2,1.2222967202503532e-05
3.17,0.0,77.50034603138842,0,90,3.0,2,7.1346678024247484e-06
3.175,0.0,77.50019910150137,0,90,3.0,2,4.105185595171486e-06
3.18,0.0,77.50011292640531,0,90,3.0,2,2.328379490880196e-06
3.185,0.0,77.50006313619457,0,90,3.0,2,1.3017772076149338e-06
3.19,0.001684486749771458,77.50003479551185,0,90,3.0,2,7.17433234048886e-07
3.195,0.004172395771277602,77.50001890296744,0,90,3.0,2,3.897519059840484e-07
3.2,0.009438687428818865,77.50001012275375,0,90,3.0,2,2.087165721628274e-07
3.205,0.019500507867137046,77.50000534354274,0,90,3.0,2,1.1017613894754383e-07
3.21,0.03679496976339974,77.50000278049316,0,90,3.0,2,5.7329755916200773e-08
3.215,0.06340728953298436,77.50000142618646,0,90,3.0,2,2.9405906346808705e-08
3.22,0.09979255396093453,77.50000072109538,0,90,3.0,2,1.4867945884764867e-08
3.225,0.14343835518453557,77.50000035939418,0,90,3.0,2,7.410189245720832e-09
3.23,0.18829581417209276,77.50000017656772,0,90,3.0,2,3.6405716288107815e-09
3.235,0.2257481735193119,77.50000008550933,0,90,3.0,2,1.7630789199719187e-09
3.24,0.24718154073554727,77.50000004082044,0,90,3.0,2,8.416585275234556e-10
3.245,0.24718154074102772,77.50000001920895,0,90,3.0,2,3.960609160223856e-10
3.25,0.22574817354072055,77.50000000891029,0,90,3.0,2,1.8371734374350407e-10
3.255,0.18829581422840957,77.5000000040742,0,90,3.0,2,8.400402481298048e-11
3.26,0.14343835532456656,77.50000000183634,0,90,3.0,2,3.78626980856313e-11
3.265,0.09979255431561854,77.50000000081589,0,90,3.0,2,1.68224289023483e-11
3.27,0.06340729067170194,77.50000000035732,0,90,3.0,2,7.367375896062664e-12
3.275,0.03679497683410042,77.50000000015426,0,90,3.0,2,3.180594390381809e-12
3.28,0.019500578284482293,77.50000000006564,0,90,3.0,2,1.3534007820519186e-12
3.285,0.009439396781978427,77.50000000002754,0,90,3.0,2,5.678481739806491e-13
3.29,0.004178588733610924,77.50000000001138,0,90,3.0,2,2.346988582861197e-13
3.295,0.0017299316936037381,77.50000000000465,0,90,3.0,2,9.581339158497021e-14
3.3,0.0008997325756988589,77.50000000000186,0,90,3.0,2,3.838395809673119e-14
3.305,0.001634769674224814,77.50000000000074,0,90,3.0,2,1.523638031320627e-14
3.31,0.00614904736476635,77.50000000000028,0,90,3.0,2,5.860146274310104e-15
3.315,0.02168080359963608,77.50000000000011,0,90,3.0,2,2.344058509724042e-15
3.32,0.06433400338904088,77.50000000000004,0,90,3.0,2,8.790219411465157e-16
3.325,0.1593410769217493,77.50000000000001,0,90,3.0,2,2.9300731371550523e-16
3.33,0.3291989194808569,77.5,0,90,3.0,2,0.0
3.335,0.5672906802982638,77.5,0,90,3.0,2,0.0
3.34,0.815339152120446,77.5,0,90,3.0,2,0.0
3.345,0.9768711246313155,77.50000284586159,1,90,3.0,2,5.8677558500516847e-08
3.35,0.9726380909165361,77.50000607395938,0,90,3.0,2,1.2523627594756484e-07
3.355,0.7921091683291741,77.50001414975088,0,90,3.0,2,2.9174744086799133e-07
3.36,0.49139090102639077,77.50003774688028,0,90,3.0,2,7.782861913612353e-07
3.365,0.15739335672107918,77.500115316467,0,90,3.0,2,2.3776591134621187e-06
3.37,-0.11102342218909485,77.50038193899846,0,90,3.0,2,7.875030896051725e-06
3.375,-0.2314207883647528,77.50128513772876,0,90,3.0,2,2.6497685129020422e-05
3.38,-0.2029124434754801,77.50420106011745,0,90,3.0,2,8.661979623613342e-05
3.385,-0.11151350554305876,77.5130256934612,0,90,3.0,2,0.0002685709992000429
3.39,-0.039430666652076896,77.53786196262558,0,90,3.0,2,0.0007806590232079187
3.395,-0.006087703519843621,77.60260192062486,0,90,3.0,2,0.0021155035180384207
3.4,0.005350271385530551,77.75852362014285,0,90,3.0,2,0.005330383920471194
3.405,0.010381647827441833,78.10487622432902,0,90,3.0,2,0.01247167472843337
3.41,0.015115203303506243,78.81329977645272,0,90,3.0,2,0.027078345906241717
3.415,0.021170964062928475,80.145086141204,0,90,3.0,2,0.05453785858152586
3.42,0.029082821134029553,82.4409718211188,0,90,3.0,2,0.10187570765193389
3.425,0.03923107061708144,86.05928105043185,0,90,3.0,2,0.17648002165838864
3.43,0.051969043308817596,91.2496597082909,0,90,3.0,2,0.2834981383152764
3.435,0.06760532616283861,97.9817859100092,0,90,3.0,2,0.4223048641239009
3.44,0.08636519236693461,105.79226260767271,0,90,3.0,2,0.5833456207767569
3.445,0.10834733138818661,113.74152810943451,0,90,3.0,2,0.7472480022563817
3.45,0.1334809643017884,120.55428234773409,0,90,3.0,2,0.8877171618089502
3.455,0.16148868344343945,124.94140906395694,0,90,3.0,2,0.9781733827619987
3.46,0.191860907532018,126.0,0,90,3.0,2,1.0
3.465,0.22384764873847726,123.52338133034326,0,90,3.0,2,0.9489356975328507
3.47,0.25647215537198226,118.07639781402526,0,90,3.0,2,0.8366267590520672
3.475,0.2885689161419028,110.79940800075586,0,90,3.0,2,0.6865857319743477
3.48,0.31884566517832524,103.03487075863387,0,90,3.0,2,0.5264921805903892
3.485,0.3459657668955683,95.94429841424011,0,90,3.0,2,0.3802948126647445
3.49,0.3686441789190902,90.2626013354371,0,90,3.0,2,0.2631464192873628
3.495,0.3857476379544367,86.24702551304469,0,90,3.0,2,0.1803510415060761
3.5,0.3963882865005728,83.78185040445095,0,90,3.0,2,0.12952268875156597
3.505,0.4,82.54963637113546,0,90,3.0,2,0.1041162138378446
3.51,0.39638828650057273,82.18634243383278,0,90,3.0,2,0.0966256171924284
3.515,0.38574763795443656,82.3774367104458,0,90,3.0,2,0.10056570537001663
3.52,0.36864417891908974,82.8929218361134,0,90,3.0,2,0.111194264662132
3.525,0.345965766895568,83.58184221421544,0,90,3.0,2,0.12539880854052457
3.53,0.3188456651783249,84.3500335133804,0,90,3.0,2,0.1412378043995958
3.535,0.28856891614190205,85.13731939707576,0,90,3.0,2,0.15747050303248983
3.54,0.2564721553719815,85.90112483967476,0,90,3.0,2,0.1732190688592735
3.545,0.22384764873847685,86.60725888394899,0,90,3.0,2,0.18777853368966982
3.55,0.19186090753201765,87.22600098303674,0,90,3.0,2,0.20053610274302558
3.555,0.16148868344343878,87.73129427857432,0,90,3.0,2,0.21095452120771804
3.56,0.1334809643017881,88.10140680065318,0,90,3.0,2,0.21858570722996248
3.565,0.10834733138818531,88.32006084897934,0,90,3.0,2,0.22309403812328532
3.57,0.08636519236690572,88.37748176745886,0,90,3.0,2,0.22427797458678062
3.575,0.06760532616242629,88.27108106749418,0,90,3.0,2,0.22208414572152949
3.58,0.05196904332202373,88.00563854852327,0,90,3.0,2,0.2166111040932632
3.585,0.03923107185803287,87.59294335966689,0,90,3.0,2,0.20810192494158536
3.59,0.02908287038705761,87.05092505826738,0,90,3.0,2,0.19692628986118313
3.595,0.02117220077308346,86.40236216625274,0,90,3.0,2,0.1835538590979947
3.6,0.0151361834125735,85.67329734339388,0,90,3.0,2,0.16852159470915223
3.605,0.010626454858290009,84.89131240569297,0,90,3.0,2,0.15239819393181386
3.61,0.007326255555493652,84.08382135764072,0,90,3.0,2,0.1357488939719735
3.615,0.004960179211183015,83.2765260683795,0,90,3.0,3,0.1191036302758659
3.62,0.0032978759379303545,82.49215034587014,0,90,3.0,3,0.10293093496639472
3.625,0.002153242296767213,81.74952897269961,0,90,3.0,3,0.08761915407628057
3.63,0.001380616732225004,81.06308474959009,0,90,3.0,3,0.07346566494000184
3.635,0.0008693106590991584,80.44268468999192,0,90,3.0,3,0.06067391113385404
3.64,0.000537524815942247,79.8938312199177,0,90,3.0,3,0.049357344740571144
3.645,0.0003263951340288585,79.41811898180232,0,90,3.0,3,0.0395488449856149
3.65,0.00019463030985187395,79.01387417058143,0,90,3.0,3,0.031213900424359405
3.655,0.00011397219555062695,78.6768909812966,0,90,3.0,3,0.02426579342879576
3.66,6.55403863487943e-05,78.40118698283636,0,90,3.0,3,0.018581174903842562
3.665,3.701184389455385e-05,78.17971335755713,0,90,3.0,3,0.01401470840323987
3.67,2.0525516217290957e-05,78.00497388499059,0,90,3.0,3,0.010411832680218365
3.675,1.1178128483661116e-05,77.86952536337502,0,90,3.0,3,0.007619079657216875
3.68,5.978135409912517e-06,77.76634945109376,0,90,3.0,3,0.005491741259665147
3.685,3.1396702713238487e-06,77.6891000218534,0,90,3.0,3,0.0038989695227506396
3.69,1.6192875458531019e-06,77.63224022257143,0,90,3.0,3,0.0027266025272458896
3.695,8.201353897972012e-07,77.5910893878649,0,90,3.0,3,0.0018781317085545923
3.7,4.0791415086824765e-07,77.56180223984774,0,90,3.0,3,0.0012742729865512674
3.705,1.9923866938774793e-07,77.5413021696559,0,90,3.0,3,0.0008515911269259185
3.71,9.556527981051257e-08,77.52718777937379,0,90,3.0,3,0.0005605727705936087
3.715,4.501406988770349e-08,77.51762815365113,0,90,3.0,3,0.00036346708559033253
3.72,0.0,77.5112582823711,0,90,3.0,3,0.00023212953342478904
3.725,0.0,77.50708222412621,0,90,3.0,3,0.00014602523971562573
3.73,0.0,77.5043883313797,0,90,3.0,3,9.048105937527983e-05
3.735,0.0,77.5026783133365,0,90,3.0,3,5.522295539181287e-05
3.74,0.0,77.50161011009115,0,90,3.0,3,3.319814620927553e-05
3.745,0.0,77.50095341499808,0,90,3.0,3,1.9658041197514188e-05
3.75,0.0,77.50055608426527,0,90,3.0,3,1.1465654954018018e-05
3.755,0.0,77.50031947100895,0,90,3.0,3,6.587031112376187e-06
3.76,0.0,77.5001807817223,0,90,3.0,3,3.7274581918914056e-06
3.765,0.0,77.50010076502231,0,90,3.0,3,2.077629325982606e-06
3.77,0.001684486749771458,77.50005532192847,0,90,3.0,3,1.1406583189923789e-06
3.775,0.004172395771277602,77.50002991693071,0,90,3.0,3,6.168439322490738e-07
3.78,0.009438687428818865,77.50001593562055,0,90,3.0,3,3.285694959362745e-07
3.785,0.019500507867137046,77.50000836090221,0,90,3.0,3,1.7238973637364494e-07
3.79,0.03679496976339974,77.50000432085336,0,90,3.0,3,8.908976008232336e-08
3.795,0.06340728953298436,77.50000219947044,0,90,3.0,3,4.534990606180614e-08
3.8,0.09979255396093453,77.50000110280557,0,90,3.0,3,2.2738259165578842e-08
3.805,0.14343835518453557,77.50000054464309,0,90,3.0,3,1.1229754354363397e-08
3.81,0.18829581417209276,77.50000026494594,0,90,3.0,3,5.4628028652755864e-09
3.815,0.2257481735193119,77.5000001269506,0,90,3.0,3,2.6175380580096633e-09
3.82,0.24718154073554727,77.50000005991622,0,90,3.0,3,1.235385933299411e-09
3.825,0.24718154074102772,77.50000002785391,0,90,3.0,3,5.743075202115075e-10
3.83,0.22574817354072055,77.50000001275441,0,90,3.0,3,2.6297758014743055e-10
3.835,0.18829581422840957,77.50000000575264,0,90,3.0,3,1.186111186359188e-10
3.84,0.14343835532456656,77.50000000255568,0,90,3.0,3,5.269443529859646e-11
3.845,0.09979255431561854,77.50000000111835,0,90,3.0,3,2.3058796567469115e-11
3.85,0.06340729067170194,77.50000000048203,0,90,3.0,3,9.938808081229938e-12
3.855,0.03679497683410042,77.50000000020465,0,90,3.0,3,4.2195983248169905e-12
3.86,0.019500578284482293,77.50000000008558,0,90,3.0,3,1.7644900431947725e-12
3.865,0.009439396781978427,77.50000000003526,0,90,3.0,3,7.269511453281685e-13
3.87,0.004178588733610924,77.5000000000143,0,90,3.0,3,2.947653575977983e-13
3.875,0.0017299316936037381,77.50000000000571,0,90,3.0,3,1.1778894011363311e-13
3.88,0.0008997325756988589,77.50000000000225,0,90,3.0,3,4.6295155567049826e-14
3.885,0.001634769674224814,77.50000000000087,0,90,3.0,3,1.787344613664582e-14
3.89,0.00614904736476635,77.50000000000033,0,90,3.0,3,6.73916821545662e-15
3.895,0.02168080359963608,77.50000000000013,0,90,3.0,3,2.637065823439547e-15
3.9,0.06433400338904088,77.50000000000004,0,90,3.0,3,8.790219411465157e-16
3.905,0.1593410769217493,77.50000000000001,0,90,3.0,3,2.9300731371550523e-16
3.91,0.3291989194808569,77.5,0,90,3.0,3,0.0
3.915,0.5672906802982638,77.5,0,90,3.0,3,0.0
3.92,0.815339152120446,77.5,0,90,3.0,3,0.0
3.925,0.9768711246313155,77.50000285825222,1,90,3.0,3,5.8933035386440475e-08
3.93,0.9726380909165361,77.50000594036287,0,90,3.0,3,1.224817086241864e-07
3.935,0.7921091683291741,77.50001337402189,0,90,3.0,3,2.757530286586545e-07
3.94,0.49139090102639077,77.50003411114669,0,90,3.0,3,7.033226121545818e-07
3.945,0.15739335672107918,77.50009905101307,0,90,3.0,3,2.0422889292017928e-06
3.95,-0.11102342218909485,77.50031282604864,0,90,3.0,3,6.450021621485013e-06
3.955,-0.2314207883647528,77.50101180394222,0,90,3.0,3,2.0861936952980576e-05
3.96,-0.2029124434754801,77.50320628067372,0,90,3.0,3,6.610887987057675e-05
3.965,-0.11151350554305876,77.5097083342598,0,90,3.0,3,0.0002001718404082131
3.97,-0.039430666652076896,77.52773550414375,0,90,3.0,3,0.0005718660648195631
3.975,-0.006087703519843621,77.57430149812981,0,90,3.0,3,0.0015319896521610954
3.98,0.005350271385530551,77.68608776188607,0,90,3.0,3,0.0038368610698159018
3.985,0.010381647827441833,77.93505151613147,0,90,3.0,3,0.008970134353226106
3.99,0.015115203303506243,78.44869900131016,0,90,3.0,3,0.019560804150724958
3.995,0.021170964062928475,79.42886553050614,0,90,3.0,3,0.03977042330940503
4.0,0.029082821134029553,81.15564224728983,0,90,3.0,3,0.07537406695442955
4.005,0.03923107061708144,83.95743100629066,0,90,3.0,3,0.1331429073461992
4.01,0.051969043308817596,88.13067751083202,0,90,3.0,3,0.21918922702746424
4.015,0.06760532616283861,93.80996484958598,0,90,3.0,3,0.3362879350430099
4.02,0.08636519236693461,100.82021919530587,0,90,3.0,3,0.48082926175888385
4.025,0.10834733138818661,108.5746424352862,0,90,3.0,3,0.6407142770162102
4.03,0.1334809643017884,116.09149675272828,0,90,3.0,3,0.7957009639737789
4.035,0.16148868344343945,122.1708699381281,0,90,3.0,3,0.9210488647036723
4.04,0.191860907532018,125.70242168485359,0,90,3.0,3,0.9938643646361565
4.045,0.22384764873847726,126.0,0,90,3.0,3,1.0
4.05,0.25647215537198226,123.02595539656775,0,90,3.0,3,0.9386794927127372
4.055,0.2885689161419028,117.40540703112458,0,90,3.0,3,0.8227918975489604
4.06,0.31884566517832524,110.22390458902505,0,90,3.0,3,0.6747196822479392
4.065,0.3459657668955683,102.6988702200439,0,90,3.0,3,0.5195643344338948
4.07,0.3686441789190902,95.86131478539745,0,90,3.0,3,0.3785838100081949
4.075,0.3857476379544367,90.35920588711383,0,90,3.0,3,0.2651382657136872
4.08,0.3963882865005728,86.42147190082585,0,90,3.0,3,0.18394787424383197
4.085,0.4,83.94856219402728,0,90,3.0,3,0.13296004523767577
4.09,0.39638828650057273,82.65797428518042,0,90,3.0,3,0.10634998526145187
4.095,0.38574763795443656,82.2182852697095,0,90,3.0,3,0.09728423236514427
4.1,0.36864417891908974,82.33567972165656,0,90,3.0,3,0.09970473652900126
4.105,0.345965766895568,82.78912793599538,0,90,3.0,3,0.10905418424732745
4.11,0.3188456651783249,83.42948059532878,0,90,3.0,3,0.12225733186244914
4.115,0.28856891614190205,84.16183548499009,0,90,3.0,3,0.13735743268020809
4.12,0.2564721553719815,84.9254687356599,0,90,3.0,3,0.1531024481579362
4.125,0.22384764873847685,85.67831436291021,0,90,3.0,3,0.16862503841051987
4.13,0.19186090753201765,86.38751009403914,0,90,3.0,3,0.18324763080493078
4.135,0.16148868344343878,87.02485660821559,0,90,3.0,3,0.19638879604568218
4.14,0.1334809643017881,87.56539713454409,0,90,3.0,3,0.20753396153699144
4.145,0.10834733138818531,87.98762906708204,0,90,3.0,3,0.2162397745790111
4.15,0.08636519236690572,88.2743731604016,0,90,3.0,3,0.22215202392580607
4.155,0.06760532616242629,88.41373774873865,0,90,3.0,3,0.22502552059254957
4.16,0.05196904332202373,88.39987340594568,0,90,3.0,3,0.2247396578545502
4.165,0.03923107185803287,88.23336128795665,0,90,3.0,3,0.22130641830838463
4.17,0.02908287038705761,87.9211675222714,0,90,3.0,3,0.21486943344889492
4.175,0.02117220077308346,87.4761584369445,0,90,3.0,3,0.2056939883906083
4.18,0.0151361834125735,86.91622069331245,0,90,3.0,3,0.19414888027448357
4.185,0.010626454858290009,86.26306937829109,0,90,3.0,3,0.18068184285136274
4.19,0.007326255555493652,85.54085446501574,0,90,3.0,3,0.16579081371166476
4.195,0.004960179211183015,84.77468987273289,0,90,3.0,3,0.14999360562335862
4.2,0.0032978759379303545,83.98922893361755,0,90,3.0,3,0.133798534713764
4.205,0.002153242296767213,83.20739642000936,0,90,3.0,3,0.11767827670122391
4.21,0.001380616732225004,82.44936304617364,0,90,3.0,3,0.10204872260151844
4.215,0.0008693106590991584,81.73181734819437,0,90,3.0,3,0.08725396594215193
4.22,0.000537524815942247,81.06755640391896,0,90,3.0,3,0.073557863998329
4.225,0.0003263951340288585,80.46538517467127,0,90,3.0,3,0.06114196236435606
4.23,0.00019463030985187395,79.93028779670026,0,90,3.0,3,0.05010902673608775
4.235,0.00011397219555062695,79.46381526096127,0,90,3.0,3,0.04049103630847977
4.24,6.55403863487943e-05,79.06462363170958,0,90,3.0,3,0.032260281066176906
4.245,3.701184389455385e-05,78.72909505266246,0,90,3.0,3,0.025342166034277493
4.25,2.0525516217290957e-05,78.45197903888902,0,90,3.0,3,0.019628433791526217
4.255,1.1178128483661116e-05,78.22700204374355,0,90,3.0,3,0.014989732860691822
4.26,5.978135409912517e-06,78.04740682497273,0,90,3.0,3,0.01128673865923145
4.265,3.1396702713238487e-06,77.90639758097078,0,90,3.0,3,0.008379331566407744
4.27,1.6192875458531019e-06,77.79748039597577,0,90,3.0,3,0.006133616411871504
4.275,8.201353897972012e-07,77.71469993745711,0,90,3.0,3,0.004426802834167265
4.28,4.0791415086824765e-07,77.6527818678595,0,90,3.0,3,0.003150141605350568
4.285,1.9923866938774793e-07,77.60719586742373,0,90,3.0,3,0.0022102240705923
4.29,9.556527981051257e-08,77.5741567351036,0,90,3.0,3,0.0015290048474969002
4.295,4.501406988770349e-08,77.5505812420148,0,90,3.0,3,0.0010429122064907301
4.3,0.0,77.534016898,0,90,3.0,3,0.0007013793402062764
4.305,0.0,77.5225562166196,0,90,3.0,3,0.0004650766313320744
4.31,0.0,77.5147470154736,0,90,3.0,3,0.0003040621747134575
4.315,0.0,77.50950623060861,0,90,3.0,3,0.00019600475481665525
4.32,0.0,77.50604197446326,0,90,3.0,3,0.00012457679305687155
4.325,0.0,77.50378630640013,0,90,3.0,3,7.806817319855673e-05
4.33,0.0,77.50233947794905,0,90,3.0,3,4.8236658743303216e-05
4.335,0.0,77.50142524158959,0,90,3.0,3,2.9386424527562676e-05
4.34,0.0,77.50085609970625,0,90,3.0,3,1.765154033514544e-05
4.345,0.0,77.50050702169113,0,90,3.0,3,1.045405548731801e-05
4.35,0.0,77.50029607044829,0,90,3.0,3,6.104545325483413e-06
4.355,0.0,77.500170462916,0,90,3.0,3,3.5146992990327638e-06
4.36,0.0,77.50009676785085,0,90,3.0,3,1.9952134195624316e-06
4.365,0.0,77.50005416248834,0,90,3.0,3,1.1167523369004277e-06
4.37,0.001684486749771458,77.50002989044987,0,90,3.0,3,6.162979353885208e-07
4.375,0.004172395771277602,77.50001626419696,0,90,3.0,3,3.353442671774134e-07
4.38,0.009438687428818865,77.50000872567692,0,90,3.0,3,1.7991086434149204e-07
4.385,0.019500507867137046,77.50000461564036,0,90,3.0,3,9.516784255950923e-08
4.39,0.03679496976339974,77.50000240730505,0,90,3.0,3,4.963515560533422e-08
4.395,0.06340728953298436,77.50000123793151,0,90,3.0,3,2.5524361108088584e-08
4.4,0.09979255396093453,77.50000062766577,0,90,3.0,3,1.2941562268566748e-08
4.405,0.14343835518453557,77.50000031378097,0,90,3.0,3,6.469710778566371e-09
4.41,0.18829581417209276,77.50000015466466,0,90,3.0,3,3.1889620932468966e-09
4.415,0.2257481735193119,77.50000007516608,0,90,3.0,3,1.5498161837499115e-09
4.42,0.24718154073554727,77.50000003601795,0,90,3.0,3,7.426381708898692e-10
4.425,0.24718154074102772,77.50000001701699,0,90,3.0,3,3.5086570991102377e-10
4.43,0.22574817354072055,77.50000000792706,0,90,3.0,3,1.6344446071484199e-10
4.435,0.18829581422840957,77.50000000364089,0,90,3.0,3,7.506993881048102e-11
4.44,0.14343835532456656,77.50000000164881,0,90,3.0,3,3.399617357384149e-11
4.445,0.09979255431561854,77.50000000073621,0,90,3.0,3,1.5179536894345465e-11
4.45,0.06340729067170194,77.5000000003241,0,90,3.0,3,6.682617803909528e-12
4.455,0.03679497683410042,77.50000000014069,0,90,3.0,3,2.900772405783502e-12
4.46,0.019500578284482293,77.50000000006021,0,90,3.0,3,1.2414719882125956e-12
4.465,0.009439396781978427,77.50000000002541,0,90,3.0,3,5.238970769233233e-13
4.47,0.004178588733610924,77.50000000001057,0,90,3.0,3,2.179974414043359e-13
4.475,0.0017299316936037381,77.50000000000433,0,90,3.0,3,8.936723068322909e-14
4.48,0.0008997325756988589,77.50000000000175,0,90,3.0,3,3.603989958700714e-14
4.485,0.001634769674224814,77.5000000000007,0,90,3.0,3,1.4357358372059756e-14
4.49,0.00614904736476635,77.50000000000027,0,90,3.0,3,5.567138960594599e-15
4.495,0.02168080359963608,77.5000000000001,0,90,3.0,3,2.0510511960085364e-15
4.5,0.06433400338904088,77.50000000000004,0,90,3.0,3,8.790219411465157e-16
4.505,0.1593410769217493,77.50000000000001,0,90,3.0,3,2.9300731371550523e-16
4.51,0.3291989194808569,77.5,0,90,3.0,3,0.0
4.515,0.5672906802982638,77.5,0,90,3.0,3,0.0
4.52,0.815339152120446,77.5,0,90,3.0,3,0.0
4.525,0.9768711246313155,77.50000284291268,1,90,3.0,3,5.861675625984043e-08
4.53,0.9726380909165361,77.50000522692886,0,90,3.0,3,1.0777172913539917e-07
4.535,0.7921091683291741,77.50001010593378,0,90,3.0,3,2.0836976870631373e-07
4.54,0.49139090102639077,77.50002115808796,0,90,3.0,3,4.362492363045546e-07
4.545,0.15739335672107918,77.50004873144633,0,90,3.0,3,1.0047720892187725e-06
4.55,-0.11102342218909485,77.50012204127654,0,90,3.0,3,2.5163149802182555e-06
4.555,-0.2314207883647528,77.50032158556677,0,90,3.0,3,6.630630242602117e-06
4.56,-0.2029124434754801,77.50086047282088,0,90,3.0,3,1.7741707646911384e-05
4.565,-0.11151350554305876,77.50227619849099,0,90,3.0,3,4.6931927649260726e-05
4.57,-0.039430666652076896,77.50585406698202,0,90,3.0,3,0.00012070241200050761
4.575,-0.006087703519843621,77.51449898858581,0,90,3.0,3,0.0002989482182642016
4.58,0.005350271385530551,77.53440094392403,0,90,3.0,3,0.0007092978128665301
4.585,0.010381647827441833,77.57796670837776,0,90,3.0,3,0.0016075609974795506
4.59,0.015115203303506243,77.6685259197955,0,90,3.0,3,0.0034747612328968895
4.595,0.021170964062928475,77.84710211151138,0,90,3.0,3,0.00715674456724486
4.6,0.029082821134029553,78.18086360927958,0,90,3.0,3,0.014038424933599664
4.605,0.03923107061708144,78.7715875433569,0,90,3.0,3,0.02621829986302889
4.61,0.051969043308817596,79.76067812311462,0,90,3.0,3,0.04661192006421888
4.615,0.06760532616283861,81.32552390807211,0,90,3.0,3,0.07887678160973431
4.62,0.08636519236693461,83.66132971593116,0,90,3.0,3,0.1270377261016734
4.625,0.10834733138818661,86.94435559703112,0,90,3.0,3,0.19472898138208494
4.63,0.1334809643017884,91.27765000366787,0,90,3.0,3,0.284075257807585
4.635,0.16148868344343945,96.628418341855,0,90,3.0,3,0.3944003781825772
4.64,0.191860907532018,102.77464193552817,0,90,3.0,3,0.5211266378459416
4.645,0.22384764873847726,109.2832947276284,0,90,3.0,3,0.6553256644871835
4.65,0.25647215537198226,115.5393329500605,0,90,3.0,3,0.7843161433002165
4.655,0.2885689161419028,120.83191669137463,0,90,3.0,3,0.8934415812654563
4.66,0.31884566517832524,124.48492700457163,0,90,3.0,3,0.9687613815375594
4.665,0.3459657668955683,126.0,0,90,3.0,3,1.0
4.67,0.3686441789190902,125.17073715235551,0,90,3.0,3,0.9829017969557838
4.675,0.3857476379544367,122.13222029908319,0,90,3.0,3,0.9202519649295502
4.68,0.3963882865005728,117.32968092689705,0,90,3.0,3,0.821230534575197
4.685,0.4,111.41655459304312,0,90,3.0,3,0.6993104039802704
4.69,0.39638828650057273,105.11429578624514,0,90,3.0,3,0.5693669234277348
4.695,0.38574763795443656,99.07544972812437,0,90,3.0,3,0.4448546335695746
4.7,0.36864417891908974,93.78509210187892,0,90,3.0,3,0.3357750948841014
4.705,0.345965766895568,89.51831812564839,0,90,3.0,3,0.24780037372470912
4.71,0.3188456651783249,86.35143581333647,0,90,3.0,3,0.18250383120281372
4.715,0.28856891614190205,84.20981931374517,0,90,3.0,3,0.13834678997412725
4.72,0.2564721553719815,82.92999868673395,0,90,3.0,3,0.11195873580894748
4.725,0.22384764873847685,82.31678578427645,0,90,3.0,3,0.09931517080982366
4.73,0.19186090753201765,82.18425183246814,0,90,3.0,3,0.09658251200965227
4.735,0.16148868344343878,82.37782282094385,0,90,3.0,3,0.10057366641121336
4.74,0.1334809643017881,82.78069542455634,0,90,3.0,3,0.10888031803208952
4.745,0.10834733138818531,83.31030373623537,0,90,3.0,3,0.1198000770357808
4.75,0.08636519236690572,83.91036403083501,0,90,3.0,3,0.13217245424402088
4.755,0.06760532616242629,84.54240741608544,0,90,3.0,3,0.14520427662031832
4.76,0.05196904332202373,85.17885117145109,0,90,3.0,3,0.15832682827734199
4.765,0.03923107185803287,85.79822972686465,0,90,3.0,3,0.17109752014153912
4.77,0.02908287038705761,86.38238945811577,0,90,3.0,3,0.18314205068279932
4.775,0.02117220077308346,86.91513824815956,0,90,3.0,3,0.19412656181772298
4.78,0.0151361834125735,87.38182755512767,0,90,3.0,3,0.20374902175520973
4.785,0.010626454858290009,87.76945625933718,0,90,3.0,3,0.21174136617190054
4.79,0.007326255555493652,88.06701587257524,0,90,3.0,3,0.2178766159293864
4.795,0.004960179211183015,88.26590102215914,0,90,3.0,3,0.2219773406630751
4.8,0.0032978759379303545,88.36027952866407,0,90,3.0,3,0.22392328925080549
4.805,0.002153242296767213,88.34736028951566,0,90,3.0,3,0.22365691318588996
4.81,0.001380616732225004,88.22752467406713,0,90,3.0,3,0.22118607575396138
4.815,0.0008693106590991584,88.00430591779762,0,90,3.0,3,0.216583627171085
4.82,0.000537524815942247,87.68421547101619,0,90,3.0,4,0.20998382414466366
4.825,0.0003263951340288585,87.27642730310674,0,90,3.0,4,0.20157582068261326
4.83,0.00019463030985187395,86.79234121998647,0,90,3.0,4,0.19159466432961791
4.835,0.00011397219555062695,86.24505409713203,0,90,3.0,4,0.1803103937552995
4.84,6.55403863487943e-05,85.64877318084139,0,90,3.0,4,0.16801594187301833
4.845,3.701184389455385e-05,85.0182079909067,0,90,3.0,4,0.15501459775065365
4.85,2.0525516217290957e-05,84.36797682077905,0,90,3.0,4,0.14160776950059895
4.855,1.1178128483661116e-05,83.71206058866679,0,90,3.0,4,0.12808372347766572
4.86,5.978135409912517e-06,83.06333129407486,0,90,3.0,4,0.1147078617335022
4.865,3.1396702713238487e-06,82.43317520844727,0,90,3.0,4,0.10171495275149003
4.87,1.6192875458531019e-06,81.83122290878103,0,90,3.0,4,0.08930356512950577
4.875,8.201353897972012e-07,81.2651901026225,0,90,3.0,4,0.07763278562108243
4.88,4.0791415086824765e-07,80.74082558665786,0,90,3.0,4,0.06682114611665696
4.885,1.9923866938774793e-07,80.26195620089626,0,90,3.0,4,0.0569475505339436
4.89,9.556527981051257e-08,79.8306136902024,0,90,3.0,4,0.04805389051963707
4.895,4.501406988770349e-08,79.44722517980838,0,90,3.0,4,0.04014897277955432
4.9,0.0,79.11084753982108,0,90,3.0,4,0.033213351336517115
4.905,0.0,78.81942611946013,0,90,3.0,4,0.027204662256909946
4.91,0.0,78.57005991099739,0,90,3.0,4,0.02206309094839972
4.915,0.0,78.35925780995424,0,90,3.0,4,0.017716655875345228
4.92,0.0,78.18317389066814,0,90,3.0,4,0.014086059601405024
4.925,0.0,78.03781314146194,0,90,3.0,4,0.011088930751792556
4.93,0.0,77.91920257088249,0,90,3.0,4,0.008643351976958558
4.935,0.0,77.82352574244823,0,90,3.0,4,0.006670633864911868
4.94,0.0,77.7472214363384,0,90,3.0,4,0.00509734920285375
4.945,0.0,77.68704917015539,0,90,3.0,4,0.0038566839207296957
4.95,0.0,77.64012570929647,0,90,3.0,4,0.00288918988240144
4.955,0.0,77.60393749359159,0,90,3.0,4,0.0021430411049811818
4.96,0.0,77.57633417800548,0,90,3.0,4,0.00157390057743261
4.965,0.0,77.55550833549475,0,90,3.0,4,0.0011445017627783479
4.97,0.0,77.53996591435897,0,90,3.0,4,0.0008240394713190312
4.975,0.0,77.52849139278503,0,90,3.0,4,0.00058745139762945
4.98,0.0,77.52011082950858,0,90,3.0,4,0.0004146562785274572
4.985,0.0,77.51405525295831,0,90,3.0,4,0.0002897990300683437
4.99,0.0,77.50972612229039,0,90,3.0,4,0.0002005386039255291
4.995,0.0,77.50666397199244,0,90,3.0,4,0.00013740148438016862
5.0,0.0,77.50452083834722,0,90,3.0,4,9.321316179832194e-05
5.005,0.0,77.5030366670062,0,90,3.0,4,6.261169084947264e-05
5.01,0.0,77.50201961106382,0,90,3.0,4,4.164146523330554e-05
5.015,0.0,77.50132993583813,0,90,3.0,4,2.7421357487193894e-05
5.02,0.0,77.50086713360042,0,90,3.0,4,1.787904330768404e-05
5.025,0.0,77.50055980106244,0,90,3.0,4,1.1542289947150606e-05
5.03,0.0,77.50035782757026,0,90,3.0,4,7.377888046498013e-06
5.035,0.0,77.50022646769418,0,90,3.0,4,4.669436993326505e-06
5.04,0.0,77.50014191591274,0,90,3.0,4,2.926101293508406e-06
5.045,0.0,77.50008805384176,0,90,3.0,4,1.8155431291688728e-06
5.05,0.0,77.5000540950966,0,90,3.0,4,1.1153628165207994e-06
5.055,0.0,77.50003290484658,0,90,3.0,4,6.784504448918147e-07
5.06,0.0,77.50001981774416,0,90,3.0,4,4.0861328165726834e-07
5.065,0.0,77.50001181791718,0,90,3.0,4,2.436683955365129e-07
5.07,0.0,77.50000697782454,0,90,3.0,4,1.4387267093607265e-07
5.075,0.0,77.50000407935522,0,90,3.0,4,8.411041694061985e-08
5.08,0.0,77.50000236132293,0,90,3.0,4,4.8687070668315706e-08
5.085,0.001684486749771458,77.50000135335465,0,90,3.0,4,2.79042195444097e-08
5.09,0.004172395771277602,77.50000076799826,0,90,3.0,4,1.583501564466095e-08
5.095,0.009438687428818865,77.50000043152029,0,90,3.0,4,8.897325597928036e-09
5.1,0.019500507867137046,77.50000024006818,0,90,3.0,4,4.949859280760889e-09
5.105,0.03679496976339974,77.50000013223924,0,90,3.0,4,2.7265821948454573e-09
5.11,0.06340728953298436,77.50000007212378,0,90,3.0,4,1.487088299007755e-09
5.115,0.09979255396093453,77.50000003894834,0,90,3.0,4,8.030586230365161e-10
5.12,0.14343835518453557,77.50000002082533,0,90,3.0,4,4.293881538990146e-10
5.125,0.18829581417209276,77.50000001102522,0,90,3.0,4,2.2732415720721413e-10
5.13,0.2257481735193119,77.5000000057793,0,90,3.0,4,1.191608003564491e-10
5.135,0.24718154073554727,77.50000000299954,0,90,3.0,4,6.184622573518654e-11
5.14,0.24718154074102772,77.50000000154144,0,90,3.0,4,3.1782210311407136e-11
5.145,0.22574817354072055,77.50000000078431,0,90,3.0,4,1.617136665127245e-11
5.15,0.18829581422840957,77.50000000039513,0,90,3.0,4,8.147068357859623e-12
5.155,0.14343835532456656,77.5000000001971,0,90,3.0,4,4.0640114412340575e-12
5.16,0.09979255431561854,77.50000000009734,0,90,3.0,4,2.0071000989512108e-12
5.165,0.06340729067170194,77.5000000000476,0,90,3.0,4,9.815745009469425e-13
5.17,0.03679497683410042,77.50000000002305,0,90,3.0,4,4.752578628465495e-13
5.175,0.019500578284482293,77.50000000001106,0,90,3.0,4,2.2795969007066307e-13
5.18,0.009439396781978427,77.50000000000524,0,90,3.0,4,1.0811969876102142e-13
5.185,0.004178588733610924,77.50000000000246,0,90,3.0,4,5.069026527278241e-14
5.19,0.0017299316936037381,77.50000000000115,0,90,3.0,4,2.3733592410955925e-14
5.195,0.0008997325756988589,77.50000000000053,0,90,3.0,4,1.0841270607473693e-14
5.2,0.001634769674224814,77.50000000000024,0,90,3.0,4,4.9811243331635886e-15
5.205,0.00614904736476635,77.50000000000011,0,90,3.0,4,2.344058509724042e-15
5.21,0.02168080359963608,77.50000000000004,0,90,3.0,4,8.790219411465157e-16
5.215,0.06433400338904088,77.50000000000001,0,90,3.0,4,2.9300731371550523e-16
5.22,0.1593410769217493,77.50000000000001,0,90,3.0,4,2.9300731371550523e-16
5.225,0.3291989194808569,77.5,0,90,3.0,4,0.0
5.23,0.5672906802982638,77.5,0,90,3.0,4,0.0
5.235,0.815339152120446,77.5,0,90,3.0,4,0.0
5.24,0.9768711246313155,77.50000284403532,1,90,3.0,4,5.8639903544616635e-08
5.245,0.9726380909165361,77.50000563434857,0,90,3.0,4,1.161721354257923e-07
5.25,0.7921091683291741,77.50001194034442,0,90,3.0,4,2.4619266848754496e-07
5.255,0.49139090102639077,77.50002813743002,0,90,3.0,4,5.801531963196297e-07
5.26,0.15739335672107918,77.50007456926916,0,90,3.0,4,1.5375107043195215e-06
5.265,-0.11102342218909485,77.50021555237494,0,90,3.0,4,4.444378864730322e-06
5.27,-0.2314207883647528,77.50064634651709,0,90,3.0,4,1.332673231106653e-05
5.275,-0.2029124434754801,77.50192715835341,0,90,3.0,4,3.973522378166224e-05
5.28,-0.11151350554305876,77.50556436458237,0,90,3.0,4,0.00011472916664678985
5.285,-0.039430666652076896,77.5153360380951,0,90,3.0,4,0.0003162069710329893
5.29,-0.006087703519843621,77.54004933030063,0,90,3.0,4,0.0008257593876419144
5.295,0.005350271385530551,77.59872426259801,0,90,3.0,4,0.002035551806144569
5.3,0.010381647827441833,77.72927397114614,0,90,3.0,4,0.004727298374147262
5.305,0.015115203303506243,78.0011213460085,0,90,3.0,4,0.01033239888677326
5.31,0.021170964062928475,78.53026214977955,0,90,3.0,4,0.02124251855215558
5.315,0.029082821134029553,79.49175422945842,0,90,3.0,4,0.041067097514606646
5.32,0.03923107061708144,81.12018821167895,0,90,3.0,4,0.0746430559109062
5.325,0.051969043308817596,83.68572301825407,0,90,3.0,4,0.12754068078874364
5.33,0.06760532616283861,87.43548636982642,0,90,3.0,4,0.204855389068586
5.335,0.08636519236693461,92.5008021671065,0,90,3.0,4,0.30929489004343297
5.34,0.10834733138818661,98.78935026029112,0,90,3.0,4,0.4389556754699199
5.345,0.1334809643017884,105.90117170753103,0,90,3.0,4,0.585591169227444
5.35,0.16148868344343945,113.11621193300405,0,90,3.0,4,0.7343548852165784
5.355,0.191860907532018,119.48749438013431,0,90,3.0,4,0.8657215336110167
5.36,0.22384764873847726,124.03653874510518,0,90,3.0,4,0.9595162627856737
5.365,0.25647215537198226,126.0,0,90,3.0,4,1.0
5.37,0.2885689161419028,125.04326482741723,0,90,3.0,4,0.9802735015962316
5.375,0.31884566517832524,121.35937653466117,0,90,3.0,4,0.9043170419517766
5.38,0.3459657668955683,115.61360140385835,0,90,3.0,4,0.7858474516259455
5.385,0.3686441789190902,108.75594891707162,0,90,3.0,4,0.6444525549911674
5.39,0.3857476379544367,101.77461151529064,0,90,3.0,4,0.5005074539235185
5.395,0.3963882865005728,95.47810717617381,0,90,3.0,4,0.37068262218915066
5.4,0.4,90.36949924832,0,90,3.0,4,0.26535049996536075
5.405,0.39638828650057273,86.62992216347705,0,90,3.0,4,0.18824581780365046
5.41,0.38574763795443656,84.18612234560806,0,90,3.0,4,0.1378581926929496
5.415,0.36864417891908974,82.81567309579101,0,90,3.0,4,0.1096015071297116
5.42,0.345965766895568,82.24668045311486,0,90,3.0,4,0.09786970006422396
5.425,0.3188456651783249,82.22677563441158,0,90,3.0,4,0.09745929143116662
5.43,0.28856891614190205,82.55618463062414,0,90,3.0,4,0.10425122949740505
5.435,0.2564721553719815,83.09295775268306,0,90,3.0,4,0.11531871655016625
5.44,0.22384764873847685,83.74288099322293,0,90,3.0,4,0.12871919573655516
5.445,0.19186090753201765,84.44470761789947,0,90,3.0,4,0.1431898477917416
5.45,0.16148868344343878,85.15701212826306,0,90,3.0,4,0.15787653872707344
5.455,0.1334809643017881,85.84902108131057,0,90,3.0,4,0.17214476456310449
5.46,0.10834733138818531,86.49535961413758,0,90,3.0,4,0.18547133225025947
5.465,0.08636519236690572,87.07368281210313,0,90,3.0,4,0.1973955218990336
5.47,0.06760532616242629,87.56407233300035,0,90,3.0,4,0.2075066460412444
5.475,0.05196904332202373,87.94934169797176,0,90,3.0,4,0.21545034428807755
5.48,0.03923107185803287,88.21569761819234,0,90,3.0,4,0.22094221893180077
5.485,0.02908287038705761,88.35343302302121,0,90,3.0,4,0.22378212418600435
5.49,0.02117220077308346,88.35747043745516,0,90,3.0,4,0.22386536984443636
5.495,0.0151361834125735,88.22765859398775,0,90,3.0,4,0.22118883698943825
5.5,0.010626454858290009,87.96877763919233,0,90,3.0,4,0.21585108534417166
5.505,0.007326255555493652,87.59024579975109,0,90,3.0,4,0.20804630514950698
5.51,0.004960179211183015,87.10555038207744,0,90,3.0,4,0.19805258519747296
5.515,0.0032978759379303545,86.53145038403952,0,90,3.0,4,0.18621547183586631
5.52,0.002153242296767213,85.88701624442398,0,90,3.0,4,0.17292816998812321
5.525,0.001380616732225004,85.1925832624303,0,90,3.0,4,0.1586099641738207
5.53,0.0008693106590991584,84.46869833167638,0,90,3.0,4,0.14368450168404903
5.535,0.000537524815942247,83.73513500639436,0,90,3.0,4,0.1285594846679249
5.54,0.0003263951340288585,83.0100405618299,0,90,3.0,4,0.11360908374907003
5.545,0.00019463030985187395,82.30926233944837,0,90,3.0,4,0.09916004823604879
5.55,0.00011397219555062695,81.6458814331628,0,90,3.0,4,0.08548209140541854
5.555,6.55403863487943e-05,81.02996195780577,0,90,3.0,4,0.07278272077950036
5.56,3.701184389455385e-05,80.46850585648903,0,90,3.0,4,0.06120630631936147
5.565,2.0525516217290957e-05,79.96558814237727,0,90,3.0,4,0.05083686891499528
5.57,1.1178128483661116e-05,79.52263674653703,0,90,3.0,4,0.04170385044406251
5.575,5.978135409912517e-06,79.13881522901951,0,90,3.0,4,0.03379000472205183
5.58,3.1396702713238487e-06,78.81146536827063,0,90,3.0,4,0.02704052305712643
5.585,1.6192875458531019e-06,78.53656943790337,0,90,3.0,4,0.02137256572996633
5.59,8.201353897972012e-07,78.30919783276481,0,90,3.0,4,0.016684491397212564
5.595,4.0791415086824765e-07,78.12391547782335,0,90,3.0,4,0.012864236656151455
5.6,1.9923866938774793e-07,77.97512900761184,0,90,3.0,4,0.009796474383749296
5.605,9.556527981051257e-08,77.85736504432592,0,90,3.0,4,0.007368351429400348
5.61,4.501406988770349e-08,77.76547726284619,0,90,3.0,4,0.005473757996828657
5.615,0.0,77.69478581665143,0,90,3.0,4,0.00401620240518417
5.62,0.0,77.6411568854654,0,90,3.0,4,0.00291045124670941
5.625,0.0,77.60103260291042,0,90,3.0,4,0.002083146451761279
5.63,0.0,77.57142261616407,0,90,3.0,4,0.0014726312611148655
5.635,0.0,77.54986831612662,0,90,3.0,4,0.0010282127036416499
5.64,0.0,77.53438970032784,0,90,3.0,4,0.0007090659861409428
5.645,0.0,77.52342323181401,0,90,3.0,4,0.00048295323327850095
5.65,0.0,77.5157572338132,0,90,3.0,4,0.0003248914188289516
5.655,0.0,77.5104695467323,0,90,3.0,4,0.0002158669429339278
5.66,0.0,77.50687053439142,0,90,3.0,4,0.0001416605029159711
5.665,0.0,77.50445315583923,0,90,3.0,4,9.18176461696771e-05
5.67,0.0,77.50285075573734,0,90,3.0,4,5.8778468811167315e-05
5.675,0.0,77.50180246507347,0,90,3.0,4,3.7164228318914934e-05
5.68,0.0,77.50112561130648,0,90,3.0,4,2.320848054592744e-05
5.685,0.0,77.50069426420308,0,90,3.0,4,1.4314725836628867e-05
5.69,0.0,77.50042293715272,0,90,3.0,4,8.720353664334793e-06
5.695,0.0,77.50025447295847,0,90,3.0,4,5.246865123178123e-06
5.7,0.0,77.5001512245073,0,90,3.0,4,3.1180310784715326e-06
5.705,0.0,77.50008876003304,0,90,3.0,4,1.8301037739641372e-06
5.71,0.0,77.50005145498665,0,90,3.0,4,1.0609275597237956e-06
5.715,0.0,77.50002946132142,0,90,3.0,4,6.074499261445715e-07
5.72,0.0,77.50001666064122,0,90,3.0,4,3.4351837571521924e-07
5.725,0.001684486749771458,77.50000930563341,0,90,3.0,4,1.9186873015014592e-07
5.73,0.004172395771277602,77.50000513351583,0,90,3.0,4,1.0584568716572885e-07
5.735,0.009438687428818865,77.50000279703956,0,90,3.0,4,5.767091868891811e-08
5.74,0.019500507867137046,77.50000150520984,0,90,3.0,4,3.103525438474236e-08
5.745,0.03679496976339974,77.50000080003728,0,90,3.0,4,1.649561411176899e-08
5.75,0.06340728953298436,77.50000041998922,0,90,3.0,4,8.659571552381805e-09
5.755,0.09979255396093453,77.50000021776135,0,90,3.0,4,4.48992482139972e-09
5.76,0.14343835518453557,77.50000011151626,0,90,3.0,4,2.2993042796198217e-09
5.765,0.18829581417209276,77.50000005640405,0,90,3.0,4,1.162970054736565e-09
5.77,0.2257481735193119,77.50000002817715,0,90,3.0,4,5.809722645692803e-10
5.775,0.24718154073554727,77.50000001390269,0,90,3.0,4,2.866534501175845e-10
5.78,0.24718154074102772,77.5000000067751,0,90,3.0,4,1.396927018504357e-10
5.785,0.22574817354072055,77.50000000326096,0,90,3.0,4,6.723638827829698e-11
5.79,0.18829581422840957,77.50000000155022,0,90,3.0,4,3.196328883128332e-11
5.795,0.14343835532456656,77.50000000072787,0,90,3.0,4,1.5007541601194463e-11
5.8,0.09979255431561854,77.50000000033754,0,90,3.0,4,6.9595097153706806e-12
5.805,0.06340729067170194,77.5000000001546,0,90,3.0,4,3.1876265659109813e-12
5.81,0.03679497683410042,77.50000000006995,0,90,3.0,4,1.4421819981077167e-12
5.815,0.019500578284482293,77.50000000003125,0,90,3.0,4,6.44323082860396e-13
5.82,0.009439396781978427,77.50000000001378,0,90,3.0,4,2.8421709430404007e-13
5.825,0.004178588733610924,77.50000000000601,0,90,3.0,4,1.239420937016587e-13
5.83,0.0017299316936037381,77.50000000000259,0,90,3.0,4,5.332733109622195e-14
5.835,0.0008997325756988589,77.5000000000011,0,90,3.0,4,2.25615631560939e-14
5.84,0.001634769674224814,77.50000000000045,0,90,3.0,4,9.376234038896167e-15
5.845,0.00614904736476635,77.50000000000018,0,90,3.0,4,3.809095078301568e-15
5.85,0.02168080359963608,77.50000000000007,0,90,3.0,4,1.465036568577526e-15
5.855,0.06433400338904088,77.50000000000003,0,90,3.0,4,5.860146274310105e-16
5.86,0.1593410769217493,77.50000000000001,0,90,3.0,4,2.9300731371550523e-16
5.865,0.3291989194808569,77.5,0,90,3.0,4,0.0
5.87,0.5672906802982638,77.5,0,90,3.0,4,0.0
5.875,0.815339152120446,77.5,0,90,3.0,4,0.0
5.88,0.9768711246313155,77.50000284586159,1,90,3.0,4,5.8677558500516847e-08
5.885,0.9726380909165361,77.5000058771435,0,90,3.0,4,1.211782163638943e-07
5.89,0.7921091683291741,77.50001312492641,0,90,3.0,4,2.70617039411929e-07
5.895,0.49139090102639077,77.50003312177063,0,90,3.0,4,6.829231057222902e-07
5.9,0.15739335672107918,77.5000950173887,0,90,3.0,4,1.9591214165358773e-06
5.905,-0.11102342218909485,77.50029664213184,0,90,3.0,4,6.116332615326344e-06
5.91,-0.2314207883647528,77.50095018691317,0,90,3.0,4,1.9591482745824776e-05
5.915,-0.2029124434754801,77.50298788734874,0,90,3.0,4,6.160592471624066e-05
5.92,-0.11151350554305876,77.50899344295689,0,90,3.0,4,0.0001854318135441804
5.925,-0.039430666652076896,77.52558018028991,0,90,3.0,4,0.0005274263977300445
5.93,-0.006087703519843621,77.56832060951243,0,90,3.0,4,0.0014086723610809535
5.935,0.005350271385530551,77.67081240295971,0,90,3.0,4,0.003521905215664156
5.94,0.010381647827441833,77.89914273187748,0,90,3.0,4,0.008229747049020112
5.945,0.015115203303506243,78.37101968805803,0,90,3.0,4,0.0179591688259387
5.95,0.021170964062928475,79.2743219620393,0,90,3.0,4,0.03658395798019165
5.955,0.029082821134029553,80.87318328755507,0,90,3.0,4,0.06955017087742402
5.96,0.03923107061708144,83.4840347084959,0,90,3.0,4,0.12338215893805975
5.965,0.051969043308817596,87.4052161989753,0,90,3.0,4,0.20423126183454218
5.97,0.06760532616283861,92.79797719482352,0,90,3.0,4,0.31542221020254674
5.975,0.08636519236693461,99.54446405638612,0,90,3.0,4,0.45452503209043543
5.98,0.10834733138818661,107.13911793988598,0,90,3.0,4,0.611115833812082
5.985,0.1334809643017884,114.68319434295202,0,90,3.0,4,0.7666638008856087
5.99,0.16148868344343945,121.0286071131232,0,90,3.0,4,0.8974970538788288
5.995,0.191860907532018,125.05606361041474,0,90,3.0,4,0.9805373940291698
6.0,0.22384764873847726,126.0,0,90,3.0,4,1.0
6.005,0.25647215537198226,123.69218447622228,0,90,3.0,4,0.9524161747674696
6.01,0.2885689161419028,118.61841981945244,0,90,3.0,4,0.847802470504174
6.015,0.31884566517832524,111.76288043906783,0,90,3.0,4,0.7064511430735635
6.02,0.3459657668955683,104.30907561334334,0,90,3.0,4,0.5527644456359452
6.025,0.3686441789190902,97.32237373483679,0,90,3.0,5,0.40870873680075853
6.03,0.3857476379544367,91.52930221937348,0,90,3.0,5,0.2892639632860511
6.035,0.3963882865005728,87.24754941146844,0,90,3.0,5,0.2009804002364627
6.04,0.4,84.44866361769579,0,90,3.0,5,0.14327141479785124
6.045,0.39638828650057273,82.8907268689467,0,90,3.0,5,0.11114900760714846
6.05,0.38574763795443656,82.25407737271877,0,90,3.0,5,0.09802221387049007
6.055,0.36864417891908974,82.23774027159104,0,90,3.0,5,0.09768536642455745
6.06,0.345965766895568,82.60568848479885,0,90,3.0,5,0.10527192752162572
6.065,0.3188456651783249,83.19386752249686,0,90,3.0,5,0.11739933036075999
6.07,0.28856891614190205,83.89629740654941,0,90,3.0,5,0.13188242075359605
6.075,0.2564721553719815,84.64557378836538,0,90,3.0,5,0.147331418316812
6.08,0.22384764873847685,85.39633568541677,0,90,3.0,5,0.16281104506013966
6.085,0.19186090753201765,86.11442913867897,0,90,3.0,5,0.1776170956428654
6.09,0.16148868344343878,86.77121984433278,0,90,3.0,5,0.19115917204809849
6.095,0.1334809643017881,87.3414191722754,0,90,3.0,5,0.20291585922217306
6.1,0.10834733138818531,87.80288062565299,0,90,3.0,5,0.21243052836397916
6.105,0.08636519236690572,88.13728808638228,0,90,3.0,5,0.2193255275542739
6.11,0.06760532616242629,88.33108854836723,0,90,3.0,5,0.22332141336839656
6.115,0.05196904332202373,88.3763108939206,0,90,3.0,5,0.22425383286434233
6.12,0.03923107185803287,88.27108106749418,0,90,3.0,5,0.22208414572152949
6.125,0.02908287038705761,88.01974268743409,0,90,3.0,5,0.21690191108111523
6.13,0.02117220077308346,87.63255742288636,0,90,3.0,5,0.20891870975023433
6.135,0.0151361834125735,87.1250094082,0,90,3.0,5,0.19845380223092784
6.14,0.010626454858290009,86.51677814238163,0,90,3.0,5,0.18591295138931185
6.145,0.007326255555493652,85.83047446527023,0,90,3.0,5,0.1717623601086645
6.15,0.004960179211183015,85.09025249472462,0,90,3.0,5,0.1565000514376211
6.155,0.0032978759379303545,84.32041563244263,0,90,3.0,5,0.14062712644211614
6.16,0.002153242296767213,83.54412713946391,0,90,3.0,5,0.1246211781332765
6.165,0.001380616732225004,82.78231716056324,0,90,3.0,5,0.10891375588790182
6.17,0.0008693106590991584,82.0528515297851,0,90,3.0,5,0.09387322741824952
6.175,0.000537524815942247,81.36999705672466,0,90,3.0,5,0.07979375374690013
6.18,0.0003263951340288585,80.74418725350604,0,90,3.0,5,0.06689045883517611
6.185,0.00019463030985187395,80.18206515992516,0,90,3.0,5,0.05530031257577647
6.19,0.00011397219555062695,79.6867587248306,0,90,3.0,5,0.04508780875939374
6.195,6.55403863487943e-05,79.25833063767365,0,90,3.0,5,0.036254239952034056
6.2,3.701184389455385e-05,78.89433892375651,0,90,3.0,5,0.02874925615992798
6.205,2.0525516217290957e-05,78.59044631947289,0,90,3.0,5,0.022483429267482247
6.21,1.1178128483661116e-05,78.34102394918298,0,90,3.0,5,0.017340699983154285
6.215,5.978135409912517e-06,78.1397062108974,0,90,3.0,5,0.013189818781389716
6.22,3.1396702713238487e-06,77.97986702078465,0,90,3.0,5,0.009894165377003149
6.225,1.6192875458531019e-06,77.85500083322964,0,90,3.0,5,0.007319604808858528
6.23,8.201353897972012e-07,77.75900370298082,0,90,3.0,5,0.005340282535687012
6.235,4.0791415086824765e-07,77.68635914371603,0,90,3.0,5,0.0038424565714645846
6.24,1.9923866938774793e-07,77.63224022257143,0,90,3.0,5,0.0027266025272458896
6.245,9.556527981051257e-08,77.59254321199653,0,90,3.0,5,0.0019081074638459367
6.25,4.501406988770349e-08,77.56386952680471,0,90,3.0,5,0.001316897459890901
6.255,0.0,77.54347213406413,0,90,3.0,5,0.0008963326611161186
6.26,0.0,77.52918074358568,0,90,3.0,5,0.000601664816199668
6.265,0.0,77.5193174537281,0,90,3.0,5,0.00039829801501250865
6.27,0.0,77.51261163923783,0,90,3.0,5,0.00026003379871818866
6.275,0.0,77.50812009910234,0,90,3.0,5,0.00016742472375963377
6.28,0.0,77.50515607531464,0,90,3.0,5,0.00010631083122978725
6.285,0.0,77.50322883094955,0,90,3.0,5,6.65738340113965e-05
6.29,0.0,77.50199406584419,0,90,3.0,5,4.111475967395507e-05
6.295,0.0,77.50121451201069,0,90,3.0,5,2.504148475651098e-05
6.3,0.0,77.50072951170684,0,90,3.0,5,1.5041478491477542e-05
6.305,0.0,77.50043214635019,0,90,3.0,5,8.91023402458551e-06
6.31,0.0,77.5002524628993,0,90,3.0,5,5.205420604067147e-06
6.315,0.0,77.50014545625893,0,90,3.0,5,2.9990981223602727e-06
6.32,0.0,77.50008264857955,0,90,3.0,5,1.7040944237109704e-06
6.325,0.0,77.5000463133831,0,90,3.0,5,9.54915115356663e-07
6.33,0.001684486749771458,77.50002559444704,0,90,3.0,5,5.277205574886991e-07
6.335,0.004172395771277602,77.50001394932292,0,90,3.0,5,2.876149055643425e-07
6.34,0.009438687428818865,77.50000749770997,0,90,3.0,5,1.5459195820373688e-07
6.345,0.019500507867137046,77.50000397440645,0,90,3.0,5,8.194652481900438e-08
6.35,0.03679496976339974,77.5000020777058,0,90,3.0,5,4.283929486978336e-08
6.355,0.06340728953298436,77.5000010711837,0,90,3.0,5,2.2086261928164923e-08
6.36,0.09979255396093453,77.50000054464309,0,90,3.0,5,1.1229754354363397e-08
6.365,0.14343835518453557,77.50000027310406,0,90,3.0,5,5.631011624911442e-09
6.37,0.18829581417209276,77.50000013505556,0,90,3.0,5,2.78465067728491e-09
6.375,0.2257481735193119,77.50000006586654,0,90,3.0,5,1.358073076676426e-09
6.38,0.24718154073554727,77.50000003168002,0,90,3.0,5,6.531962233416427e-10
6.385,0.24718154074102772,77.50000001502707,0,90,3.0,5,3.09836481786069e-10
6.39,0.22574817354072055,77.50000000702961,0,90,3.0,5,1.449404628390804e-10
6.395,0.18829581422840957,77.50000000324307,0,90,3.0,5,6.686749207032917e-11
6.4,0.14343835532456656,77.50000000147553,0,90,3.0,5,3.0423242390394625e-11
6.405,0.09979255431561854,77.50000000066208,0,90,3.0,5,1.3651210746005388e-11
6.41,0.06340729067170194,77.50000000029299,0,90,3.0,5,6.040931786872571e-12
6.415,0.03679497683410042,77.50000000012786,0,90,3.0,5,2.6361868014984006e-12
6.42,0.019500578284482293,77.50000000005502,0,90,3.0,5,1.1345243187064363e-12
6.425,0.009439396781978427,77.50000000002336,0,90,3.0,5,4.817040237482906e-13
6.43,0.004178588733610924,77.50000000000978,0,90,3.0,5,2.015890318362676e-13
6.435,0.0017299316936037381,77.50000000000404,0,90,3.0,5,8.321407709520348e-14
6.44,0.0008997325756988589,77.50000000000165,0,90,3.0,5,3.3988848390998606e-14
6.445,0.001634769674224814,77.50000000000065,0,90,3.0,5,1.347833643091324e-14
6.45,0.00614904736476635,77.50000000000026,0,90,3.0,5,5.274131646879094e-15
6.455,0.02168080359963608,77.5000000000001,0,90,3.0,5,2.0510511960085364e-15
6.46,0.06433400338904088,77.50000000000004,0,90,3.0,5,8.790219411465157e-16
6.465,0.1593410769217493,77.50000000000001,0,90,3.0,5,2.9300731371550523e-16
6.47,0.3291989194808569,77.5,0,90,3.0,5,0.0
6.475,0.5672906802982638,77.5,0,90,3.0,5,0.0
6.48,0.815339152120446,77.5,0,90,3.0,5,0.0
6.485,0.9768711246313155,77.50000284586159,1,90,3.0,5,5.8677558500516847e-08
6.49,0.9726380909165361,77.50000540621835,0,90,3.0,5,1.1146841957598394e-07
6.495,0.7921091683291741,77.5000108768639,0,90,3.0,5,2.2426523498287464e-07
6.5,0.49139090102639077,77.5000239632854,0,90,3.0,5,4.940883587719842e-07
6.505,0.15739335672107918,77.50005866103898,0,90,3.0,5,1.2095059582978926e-06
6.51,-0.11102342218909485,77.5001565274914,0,90,3.0,5,3.2273709566722866e-06
6.515,-0.2314207883647528,77.50043717338163,0,90,3.0,5,9.013884157259303e-06
6.52,-0.2029124434754801,77.50122904689188,0,90,3.0,5,2.534117302843697e-05
6.525,-0.11151350554305876,77.50338542462353,0,90,3.0,5,6.980256955733511e-05
6.53,-0.039430666652076896,77.50899344295689,0,90,3.0,5,0.0001854318135441804
6.535,-0.006087703519843621,77.52284424176906,0,90,3.0,5,0.00047101529420751363
6.54,0.005350271385530551,77.55523138800068,0,90,3.0,5,0.0011387915051686152
6.545,0.010381647827441833,77.62679470536686,0,90,3.0,5,0.002614323821997157
6.55,0.015115203303506243,77.77602863433232,0,90,3.0,5,0.005691312048089076
6.555,0.021170964062928475,78.06941882061071,0,90,3.0,5,0.011740594239396024
6.56,0.029082821134029553,78.61264705687972,0,90,3.0,5,0.022941176430509753
6.565,0.03923107061708144,79.55887006289213,0,90,3.0,5,0.04245092913179641
6.57,0.051969043308817596,81.10733409746567,0,90,3.0,5,0.07437802262815808
6.575,0.06760532616283861,83.4840347084959,0,90,3.0,5,0.12338215893805975
6.58,0.08636519236693461,86.89791075708786,0,90,3.0,5,0.19377135581624447
6.585,0.10834733138818661,91.47290531438892,0,90,3.0,5,0.28810114050286445
6.59,0.1334809643017884,97.16780461229023,0,90,3.0,5,0.40552174458330364
6.595,0.16148868344343945,103.70838557386074,0,90,3.0,5,0.5403790839971286
6.6,0.191860907532018,110.56339952140614,0,90,3.0,5,0.6817195777609514
6.605,0.22384764873847726,116.9905505634757,0,90,3.0,5,0.8142381559479525
6.61,0.25647215537198226,122.1585552525796,0,90,3.0,5,0.9207949536614352
6.615,0.2885689161419028,125.32204653102696,0,90,3.0,5,0.9860215779593187
6.62,0.31884566517832524,126.0,0,90,3.0,5,1.0
6.625,0.3459657668955683,124.09929318952061,0,90,3.0,5,0.960810168856095
6.63,0.3686441789190902,119.94001348411793,0,90,3.0,5,0.8750518244148026
6.635,0.3857476379544367,114.17337664266108,0,90,3.0,5,0.7561520957249708
6.64,0.3963882865005728,107.62152108345802,0,90,3.0,5,0.6210622903805777
6.645,0.4,101.0936464742221,0,90,3.0,5,0.4864669376128268
6.65,0.39638828650057273,95.23476363020654,0,90,3.0,5,0.3656652294887947
6.655,0.38574763795443656,90.4435854989949,0,90,3.0,5,0.2668780515256682
6.66,0.36864417891908974,86.86645009682657,0,90,3.0,5,0.19312268240879524
6.665,0.345965766895568,84.44866361769579,0,90,3.0,5,0.14327141479785124
6.67,0.3188456651783249,83.01238886958782,0,90,3.0,5,0.11365750246572832
6.675,0.28856891614190205,82.33219786893802,0,90,3.0,5,0.09963294575129947
6.68,0.2564721553719815,82.19037236159303,0,90,3.0,5,0.09670870848645433
6.685,0.22384764873847685,82.4067713597822,0,90,3.0,5,0.10117054350066387
6.69,0.19186090753201765,82.84733349045737,0,90,3.0,5,0.11025429877231697
6.695,0.16148868344343878,83.41925731830845,0,90,3.0,5,0.12204654264553512
6.7,0.1334809643017881,84.06060249564256,0,90,3.0,5,0.13527015454933106
6.705,0.10834733138818531,84.7296112585338,0,90,3.0,5,0.14906414966049059
6.71,0.08636519236690572,85.39633568541677,0,90,3.0,5,0.16281104506013966
6.715,0.06760532616242629,86.03717687645855,0,90,3.0,5,0.17602426549399064
6.72,0.05196904332202373,86.63190565549688,0,90,3.0,5,0.18828671454632742
6.725,0.03923107185803287,87.16241124326619,0,90,3.0,5,0.19922497408796272
6.73,0.02908287038705761,87.61248306715446,0,90,3.0,5,0.20850480550833933
6.735,0.02117220077308346,87.96811794886472,0,90,3.0,5,0.21583748348174672
6.74,0.0151361834125735,88.21802622801505,0,90,3.0,5,0.22099023150546493
6.745,0.010626454858290009,88.35414161770949,0,90,3.0,5,0.2237967343857626
6.75,0.007326255555493652,88.37202232834514,0,90,3.0,5,0.22416540883185854
6.755,0.004960179211183015,88.27108106749418,0,90,3.0,5,0.22208414572152949
6.76,0.0032978759379303545,88.05461363524023,0,90,3.0,5,0.21762089969567486
6.765,0.002153242296767213,87.7296191903864,0,90,3.0,5,0.21091998330693612
6.77,0.001380616732225004,87.30642415743608,0,90,3.0,5,0.20219431252445533
6.775,0.0008693106590991584,86.79813742453794,0,90,3.0,5,0.19171417370181323
6.78,0.000537524815942247,86.21997675578243,0,90,3.0,5,0.17979333517077167
6.785,0.0003263951340288585,85.58851459767371,0,90,3.0,5,0.16677349685925172
6.79,0.00019463030985187395,84.92089522273513,0,90,3.0,5,0.15300814892237374
6.795,0.00011397219555062695,84.2340743273611,0,90,3.0,5,0.13884689334765155
6.8,6.55403863487943e-05,83.54412713946391,0,90,3.0,5,0.1246211781332765
6.805,3.701184389455385e-05,82.86566255613282,0,90,3.0,5,0.11063221765222306
6.81,2.0525516217290957e-05,82.2113698868779,0,90,3.0,5,0.09714164715212173
6.815,1.1178128483661116e-05,81.59171264922182,0,90,3.0,5,0.08436520926230553
6.82,5.978135409912517e-06,81.0147717845139,0,90,3.0,5,0.07246952133018345
6.825,3.1396702713238487e-06,80.48622973646444,0,90,3.0,5,0.06157174714359665
6.83,1.6192875458531019e-06,80.00947792665202,0,90,3.0,5,0.0517418129206603
6.835,8.201353897972012e-07,79.58582382558662,0,90,3.0,5,0.04300667681621888
6.84,4.0791415086824765e-07,79.21477027933115,0,90,3.0,5,0.03535608823363192
6.845,1.9923866938774793e-07,78.89433892375651,0,90,3.0,5,0.02874925615992798
6.85,9.556527981051257e-08,78.62141105818226,0,90,3.0,5,0.02312187748829404
6.855,4.501406988770349e-08,78.39206273455854,0,90,3.0,5,0.018393046073371874
6.86,0.0,78.20187543065295,0,90,3.0,5,0.014471658363978296
6.865,0.0,78.04620888776554,0,90,3.0,5,0.01126203892300092
6.87,0.0,77.9204279351801,0,90,3.0,5,0.00866861722020826
6.875,0.0,77.82007993256983,0,90,3.0,5,0.0065995862385531045
6.88,0.0,77.74102351106553,0,90,3.0,5,0.004969556929186289
6.885,0.0,77.67951239873214,0,90,3.0,5,0.003701286571796767
6.89,0.0,77.63224022257143,0,90,3.0,5,0.0027266025272458896
6.895,0.0,77.59635333975864,0,90,3.0,5,0.0019866667991471345
6.9,0.0,77.56943909521827,0,90,3.0,5,0.0014317339220262168
6.905,0.0,77.54949660528963,0,90,3.0,5,0.0010205485626728467
6.91,0.0,77.53489641831816,0,90,3.0,5,0.000719513779755774
6.915,0.0,77.52433438497737,0,90,3.0,5,0.0005017398964405191
6.92,0.0,77.51678394216378,0,90,3.0,5,0.0003460606631707969
6.925,0.0,77.51144989895161,0,90,3.0,5,0.0002360803907548608
6.93,0.0,77.50772579914724,0,90,3.0,5,0.00015929482777810147
6.935,0.0,77.50515607531464,0,90,3.0,5,0.00010631083122978725
6.94,0.0,77.50340352677404,0,90,3.0,5,7.017580977394714e-05
6.945,0.0,77.50222214896947,0,90,3.0,5,4.581750452506846e-05
6.95,0.0,77.50143499784357,0,90,3.0,5,2.9587584403599846e-05
6.955,0.0,77.50091656528996,0,90,3.0,5,1.8898253401142864e-05
6.96,0.0,77.50057904143834,0,90,3.0,5,1.1938998728714274e-05
6.965,0.0,77.50036181782804,0,90,3.0,5,7.460161402809014e-06
6.97,0.0,77.50022361676467,0,90,3.0,5,4.610654941678749e-06
6.975,0.0,77.50013669506535,0,90,3.0,5,2.818454955680882e-06
6.98,0.0,77.50008264857955,0,90,3.0,5,1.7040944237109704e-06
6.985,0.0,77.50004942560916,0,90,3.0,5,1.0190847250055179e-06
6.99,0.0,77.50002923497637,0,90,3.0,5,6.027830178735121e-07
6.995,0.0,77.50001710360048,0,90,3.0,5,3.5265155637829334e-07
7.0,0.0,77.50000989706493,0,90,3.0,5,2.0406319438350074e-07
7.005,0.0,77.50000566447123,0,90,3.0,5,1.1679322127063117e-07
7.01,0.001684486749771458,77.50000320661198,0,90,3.0,5,6.611571089922212e-08
7.015,0.004172395771277602,77.50000179542606,0,90,3.0,5,3.7019093989544774e-08
7.02,0.009438687428818865,77.50000099431209,0,90,3.0,5,2.0501280178652132e-08
7.025,0.019500507867137046,77.50000054464309,0,90,3.0,5,1.1229754354363397e-08
7.03,0.03679496976339974,77.50000029507699,0,90,3.0,5,6.084061584429552e-09
7.035,0.06340728953298436,77.50000015812218,0,90,3.0,5,3.2602510656811926e-09
7.04,0.09979255396093453,77.50000008380778,0,90,3.0,5,1.727995396256879e-09
7.045,0.14343835518453557,77.50000004393492,0,90,3.0,5,9.058745964119732e-10
7.05,0.18829581417209276,77.50000002278082,0,90,3.0,5,4.697077183101503e-10
7.055,0.2257481735193119,77.50000001168324,0,90,3.0,5,2.408915678614969e-10
7.06,0.24718154073554727,77.5000000059264,0,90,3.0,5,1.221937190607183e-10
7.065,0.24718154074102772,77.5000000029734,0,90,3.0,5,6.130709227795003e-11
7.07,0.22574817354072055,77.50000000147553,0,90,3.0,5,3.0423242390394625e-11
7.075,0.18829581422840957,77.50000000072423,0,90,3.0,5,1.4932531728883294e-11
7.08,0.14343835532456656,77.50000000035159,0,90,3.0,5,7.249293948635315e-12
7.085,0.09979255431561854,77.50000000016882,0,90,3.0,5,3.4809268869402023e-12
7.09,0.06340729067170194,77.50000000008018,0,90,3.0,5,1.6531472639828805e-12
7.095,0.03679497683410042,77.50000000003766,0,90,3.0,5,7.764693813460888e-13
7.1,0.019500578284482293,77.5000000000175,0,90,3.0,5,3.606920031837869e-13
7.105,0.009439396781978427,77.50000000000804,0,90,3.0,5,1.6584213956297595e-13
7.11,0.004178588733610924,77.50000000000365,0,90,3.0,5,7.530287962488484e-14
7.115,0.0017299316936037381,77.50000000000165,0,90,3.0,5,3.3988848390998606e-14
7.12,0.0008997325756988589,77.50000000000072,0,90,3.0,5,1.4943372999490767e-14
7.125,0.001634769674224814,77.50000000000033,0,90,3.0,5,6.73916821545662e-15
7.13,0.00614904736476635,77.50000000000014,0,90,3.0,5,2.930073137155052e-15
7.135,0.02168080359963608,77.50000000000006,0,90,3.0,5,1.172029254862021e-15
7.14,0.06433400338904088,77.50000000000003,0,90,3.0,5,5.860146274310105e-16
7.145,0.1593410769217493,77.50000000000001,0,90,3.0,5,2.9300731371550523e-16
7.15,0.3291989194808569,77.5,0,90,3.0,5,0.0
7.155,0.5672906802982638,77.5,0,90,3.0,5,0.0
7.16,0.815339152120446,77.5,0,90,3.0,5,0.0
7.165,0.9768711246313155,77.50000284586159,1,90,3.0,5,5.8677558500516847e-08
7.17,0.9726380909165361,77.50000570245213,0,90,3.0,5,1.1757633254176457e-07
7.175,0.7921091683291741,77.50001225806744,0,90,3.0,5,2.527436586159141e-07
7.18,0.49139090102639077,77.50002942758579,0,90,3.0,5,6.067543461202937e-07
7.185,0.15739335672107918,77.50007969525397,0,90,3.0,5,1.6432011128453615e-06
7.19,-0.11102342218909485,77.50023533387187,0,90,3.0,5,4.8522447808367e-06
7.195,-0.2314207883647528,77.50071883774795,0,90,3.0,5,1.4821396865024148e-05
7.2,-0.2029124434754801,77.50217579271153,0,90,3.0,5,4.4861705392288955e-05
7.205,-0.11151350554305876,77.50635725002037,0,90,3.0,5,0.00013107732000766818
7.21,-0.039430666652076896,77.51768141331813,0,90,3.0,5,0.0003645652230542177
7.215,-0.006087703519843621,77.54648137072928,0,90,3.0,5,0.0009583787779233389
7.22,0.005350271385530551,77.61508024410816,0,90,3.0,5,0.002372788538312508
7.225,0.010381647827441833,77.76784731218491,0,90,3.0,5,0.005522624993503347
7.23,0.015115203303506243,78.08549326951349,0,90,3.0,6,0.012072026175535917
7.235,0.021170964062928475,78.70138007120593,0,90,3.0,6,0.024770723117648087
7.24,0.029082821134029553,79.81333731768606,0,90,3.0,6,0.047697676653320885
7.245,0.03923107061708144,81.67953161509834,0,90,3.0,6,0.08617590958965651
7.25,0.051969043308817596,84.58445788628454,0,90,3.0,6,0.1460712966244235
7.255,0.06760532616283861,88.76559186610127,0,90,3.0,6,0.23228024466188196
7.26,0.08636519236693461,94.30580224572596,0,90,3.0,6,0.34651138650981356
7.265,0.10834733138818661,101.01908127568012,0,90,3.0,6,0.4849295108387654
7.27,0.1334809643017884,108.37758909741606,0,90,3.0,6,0.6366513215962075
7.275,0.16148868344343945,115.53155299925712,0,90,3.0,6,0.7841557319434457
7.28,0.191860907532018,121.44932005335616,0,90,3.0,6,0.9061715474918796
7.285,0.22384764873847726,125.15631195469562,0,90,3.0,6,0.9826043701999098
7.29,0.25647215537198226,126.0,0,90,3.0,6,1.0
7.295,0.2885689161419028,123.8427949295679,0,90,3.0,6,0.9555215449395443
7.3,0.31884566517832524,119.10508764276156,0,90,3.0,6,0.8578368586136405
7.305,0.3459657668955683,112.64051130847515,0,90,3.0,6,0.7245466249170135
7.31,0.3686441789190902,105.4947173494078,0,90,3.0,6,0.5772106669980989
7.315,0.3857476379544367,98.64157127935391,0,90,3.0,6,0.4359086861722456
7.32,0.3963882865005728,92.7872202864701,0,90,3.0,6,0.3152004182777341
7.325,0.4,88.29055850091387,0,90,3.0,6,0.222485742286884
7.33,0.39638828650057273,85.19499150634792,0,90,3.0,6,0.15865961868758593
7.335,0.38574763795443656,83.32841126591062,0,90,3.0,6,0.1201734281631055
7.34,0.36864417891908974,82.41862451624381,0,90,3.0,6,0.10141493847925381
7.345,0.345965766895568,82.1853521137011,0,90,3.0,6,0.09660519822064124
7.35,0.3188456651783249,82.39306572658664,0,90,3.0,6,0.10088795312549777
7.355,0.28856891614190205,82.86818610804693,0,90,3.0,6,0.11068424965045211
7.36,0.2564721553719815,83.49352503596295,0,90,3.0,6,0.12357783579305044
7.365,0.22384764873847685,84.19327652565775,0,90,3.0,6,0.13800570155995362
7.37,0.19186090753201765,84.91762339581283,0,90,3.0,6,0.1529406885734603
7.375,0.16148868344343878,85.63113017574868,0,90,3.0,6,0.16765216857213774
7.38,0.1334809643017881,86.30565243766684,0,90,3.0,6,0.18155984407560488
7.385,0.10834733138818531,86.91685513029627,0,90,3.0,6,0.19416196144940762
7.39,0.08636519236690572,87.44305757969148,0,90,3.0,6,0.2050114964884842
7.395,0.06760532616242629,87.86533772288807,0,90,3.0,6,0.2137183035647025
7.4,0.05196904332202373,88.16817973634383,0,90,3.0,6,0.21996246879059445
7.405,0.03923107185803287,88.3402384667518,0,90,3.0,6,0.22351007147941854
7.41,0.02908287038705761,88.37498162664085,0,90,3.0,6,0.22422642529156384
7.415,0.02117220077308346,88.27108106749418,0,90,3.0,6,0.22208414572152949
7.42,0.0151361834125735,88.03249098378444,0,90,3.0,6,0.21716476255225653
7.425,0.010626454858290009,87.66819648788929,0,90,3.0,6,0.20965353583276886
7.43,0.007326255555493652,87.19165162443677,0,90,3.0,6,0.1998278685450881
7.435,0.004960179211183015,86.61995488836745,0,90,3.0,6,0.18804030697664836
7.44,0.0032978759379303545,85.97283240911523,0,90,3.0,6,0.1746975754456748
7.445,0.002153242296767213,85.27151291372265,0,90,3.0,6,0.16023737966438445
7.45,0.001380616732225004,84.53758349445417,0,90,3.0,6,0.14510481431864264
7.455,0.0008693106590991584,83.79191110989592,0,90,3.0,6,0.1297301259772355
7.46,0.000537524815942247,83.05370269529314,0,90,3.0,6,0.11450933392356989
7.465,0.0003263951340288585,82.33975866855332,0,90,3.0,6,0.09978883852687248
7.47,0.00019463030985187395,81.66395297564524,0,90,3.0,6,0.08585470052876794
7.475,0.00011397219555062695,81.03695029627794,0,90,3.0,6,0.07292681023253478
7.48,6.55403863487943e-05,80.46615012462807,0,90,3.0,6,0.06115773452841386
7.485,3.701184389455385e-05,79.95583016691808,0,90,3.0,6,0.05063567354470261
7.49,2.0525516217290957e-05,79.50744919237871,0,90,3.0,6,0.04139070499749928
7.495,1.1178128483661116e-05,79.12006270877623,0,90,3.0,6,0.03340335482012848
7.5,5.978135409912517e-06,78.7908034547283,0,90,3.0,6,0.02661450422120217
7.505,3.1396702713238487e-06,78.51538196065025,0,90,3.0,6,0.020935710528871037
7.51,1.6192875458531019e-06,78.28856917829346,0,90,3.0,6,0.016259158315329016
7.515,8.201353897972012e-07,78.1046320774523,0,90,3.0,6,0.012466640772212247
7.52,4.0791415086824765e-07,77.95770283268605,0,90,3.0,6,0.009437171807959853
7.525,1.9923866938774793e-07,77.8420716221398,0,90,3.0,6,0.007053023136903054
7.53,9.556527981051257e-08,77.75240126350023,0,90,3.0,6,0.005204149762891385
7.535,4.501406988770349e-08,77.68386837283725,0,90,3.0,6,0.0037911004708711957
7.54,0.0,77.63224022257143,0,90,3.0,6,0.0027266025272458896
7.545,0.0,77.593899037566,0,90,3.0,6,0.0019360626302268875
7.55,0.0,77.56582634489853,0,90,3.0,6,0.0013572442247118605
7.555,0.0,77.54555954431204,0,90,3.0,6,0.0009393720476709601
7.56,0.0,77.53113149901236,0,90,3.0,6,0.0006418865775744446
7.565,0.0,77.5210020517766,0,90,3.0,6,0.00043303199539392604
7.57,0.0,77.51398828420264,0,90,3.0,6,0.0002884182309822584
7.575,0.0,77.50919831335803,0,90,3.0,6,0.00018965594552633241
7.58,0.0,77.50597163128171,0,90,3.0,6,0.0001231264181795915
7.585,0.0,77.50382753172264,0,90,3.0,6,7.891817984814552e-05
7.59,0.0,77.50242206416318,0,90,3.0,6,4.9939467282149394e-05
7.595,0.0,77.50151319019876,0,90,3.0,6,3.119979791266787e-05
7.6,0.0,77.5009333454743,0,90,3.0,6,1.9244236583388782e-05
7.605,0.0,77.50056837159171,0,90,3.0,6,1.171900189095928e-05
7.61,0.0,77.50034171443933,0,90,3.0,6,7.045658542878787e-06
7.615,0.0,77.50020283146561,0,90,3.0,6,4.182092074523604e-06
7.62,0.0,77.50011886345717,0,90,3.0,6,2.450792931437352e-06
7.625,0.0,77.50006877053725,0,90,3.0,6,1.4179492217356982e-06
7.63,0.0,77.50003928235421,0,90,3.0,6,8.099454475996026e-07
7.635,0.0,77.50002215305511,0,90,3.0,6,4.567640229483398e-07
7.64,0.001684486749771458,77.50001233419412,0,90,3.0,6,2.5431328092204194e-07
7.645,0.004172395771277602,77.50000677998857,0,90,3.0,6,1.39793578701409e-07
7.65,0.009438687428818865,77.50000367949464,0,90,3.0,6,7.586586885858215e-08
7.655,0.019500507867137046,77.50000197146203,0,90,3.0,6,4.064870157768363e-08
7.66,0.03679496976339974,77.50000104286885,0,90,3.0,6,2.150245042272574e-08
7.665,0.06340728953298436,77.50000054464309,0,90,3.0,6,1.1229754354363397e-08
7.67,0.09979255396093453,77.50000028082472,0,90,3.0,6,5.7902004474018806e-09
7.675,0.14343835518453557,77.50000014295512,0,90,3.0,6,2.9475281688477126e-09
7.68,0.18829581417209276,77.50000007184642,0,90,3.0,6,1.481369382258656e-09
7.685,0.2257481735193119,77.50000003564934,0,90,3.0,6,7.350378541794027e-10
7.69,0.24718154073554727,77.5000000174638,0,90,3.0,6,3.6007844586886665e-10
7.695,0.24718154074102772,77.50000000844632,0,90,3.0,6,1.7415094795800654e-10
7.7,0.22574817354072055,77.50000000403308,0,90,3.0,6,8.315635465440153e-11
7.705,0.18829581422840957,77.50000000190128,0,90,3.0,6,3.920174150931116e-11
7.71,0.14343835532456656,77.50000000088491,0,90,3.0,6,1.824556542506451e-11
7.715,0.09979255431561854,77.50000000040662,0,90,3.0,6,8.383818267341751e-12
7.72,0.06340729067170194,77.50000000018447,0,90,3.0,6,3.803527939340973e-12
7.725,0.03679497683410042,77.50000000008262,0,90,3.0,6,1.7035445219419474e-12
7.73,0.019500578284482293,77.50000000003654,0,90,3.0,6,7.53321803562564e-13
7.735,0.009439396781978427,77.50000000001594,0,90,3.0,6,3.2875420598879686e-13
7.74,0.004178588733610924,77.50000000000688,0,90,3.0,6,1.4181553983830453e-13
7.745,0.0017299316936037381,77.50000000000293,0,90,3.0,6,6.035950662539408e-14
7.75,0.0008997325756988589,77.50000000000122,0,90,3.0,6,2.519862897953345e-14
7.755,0.001634769674224814,77.50000000000051,0,90,3.0,6,1.0548263293758189e-14
7.76,0.00614904736476635,77.50000000000021,0,90,3.0,6,4.395109705732579e-15
7.765,0.02168080359963608,77.50000000000009,0,90,3.0,6,1.7580438822930315e-15
7.77,0.06433400338904088,77.50000000000003,0,90,3.0,6,5.860146274310105e-16
7.775,0.1593410769217493,77.50000000000001,0,90,3.0,6,2.9300731371550523e-16
7.78,0.3291989194808569,77.5,0,90,3.0,6,0.0
7.785,0.5672906802982638,77.5,0,90,3.0,6,0.0
7.79,0.815339152120446,77.5,0,90,3.0,6,0.0
7.795,0.9768711246313155,77.50000284586159,1,90,3.0,6,5.8677558500516847e-08
7.8,0.9726380909165361,77.50000527961552,0,90,3.0,6,1.0885805199295553e-07
7.805,0.7921091683291741,77.50001031954956,0,90,3.0,6,2.1277421772716367e-07
7.81,0.49139090102639077,77.5000219076864,0,90,3.0,6,4.517048742836215e-07
7.815,0.15739335672107918,77.5000513062313,0,90,3.0,6,1.0578604391548184e-06
7.82,-0.11102342218909485,77.50013076005604,0,90,3.0,6,2.6960836296509407e-06
7.825,-0.2314207883647528,77.50035020381222,0,90,3.0,6,7.220697159130761e-06
7.83,-0.2029124434754801,77.50095018691317,0,90,3.0,6,1.9591482745824776e-05
7.835,-0.11151350554305876,77.50254252172627,0,90,3.0,6,5.242312837668747e-05
7.84,-0.039430666652076896,77.50659976740856,0,90,3.0,6,0.00013607767852699768
7.845,-0.006087703519843621,77.51646537881305,0,90,3.0,6,0.00033949234666087036
7.85,0.005350271385530551,77.53928253215116,0,90,3.0,6,0.00080994911651881
7.855,0.010381647827441833,77.58937615985101,0,90,3.0,6,0.0018428074196085336
7.86,0.015115203303506243,77.69363594416527,0,90,3.0,6,0.003992493694129186
7.865,0.021170964062928475,77.89914273187748,0,90,3.0,6,0.008229747049020112
7.87,0.029082821134029553,78.28242166935907,0,90,3.0,6,0.016132405553795196
7.875,0.03923107061708144,78.95815265228912,0,90,3.0,6,0.03006500313998176
7.88,0.051969043308817596,80.08310908029944,0,90,3.0,6,0.05325998103710179
7.885,0.06760532616283861,81.84927459141106,0,90,3.0,6,0.08967576477136206
7.89,0.08636519236693461,84.45983730743244,0,90,3.0,6,0.14350180015324612
7.895,0.10834733138818661,88.08459313200352,0,90,3.0,6,0.2182390336495571
7.9,0.1334809643017884,92.79797719482352,0,90,3.0,6,0.31542221020254674
7.905,0.16148868344343945,98.51242125918112,0,90,3.0,6,0.4332457991583737
7.91,0.191860907532018,104.92855626497301,0,90,3.0,6,0.5655372425767631
7.915,0.22384764873847726,111.52691835651606,0,90,3.0,6,0.7015859454951766
7.92,0.25647215537198226,117.61903404505797,0,90,3.0,6,0.827196578248618
7.925,0.2885689161419028,122.45858606973496,0,90,3.0,6,0.9269811560770096
7.93,0.31884566517832524,125.39083977274626,0,90,3.0,6,0.9874399953143559
7.935,0.3459657668955683,126.0,0,90,3.0,6,1.0
7.94,0.3686441789190902,124.20909158519541,0,90,3.0,6,0.9630740533029981
7.945,0.3857476379544367,120.29953639901376,0,90,3.0,6,0.8824646680209023
7.95,0.3963882865005728,114.84382327361675,0,90,3.0,6,0.7699757376003453
7.955,0.4,108.57369951396845,0,90,3.0,6,0.6406948353395556
7.96,0.39638828650057273,102.2258821880279,0,90,3.0,6,0.5098120038768639
7.965,0.38574763795443656,96.40992335364712,0,90,3.0,6,0.389895326879322
7.97,0.36864417891908974,91.52930221937348,0,90,3.0,6,0.2892639632860511
7.975,0.345965766895568,87.76478426184879,0,90,3.0,6,0.21164503632677914
7.98,0.3188456651783249,85.10862158827653,0,90,3.0,6,0.15687879563456772
7.985,0.28856891614190205,83.42656336784474,0,90,3.0,6,0.1221971828421595
7.99,0.2564721553719815,82.52378753042284,0,90,3.0,6,0.1035832480499554
7.995,0.22384764873847685,82.19783132916163,0,90,3.0,6,0.09686250163219856
8.0,0.19186090753201765,82.27134594925722,0,90,3.0,6,0.09837826699499432
8.005,0.16148868344343878,82.60568848479885,0,90,3.0,6,0.10527192752162572
8.01,0.1334809643017881,83.10088201483204,0,90,3.0,6,0.11548210339859873
8.015,0.10834733138818531,83.68840901871987,0,90,3.0,6,0.12759606224164674
8.02,0.08636519236690572,84.32197791292448,0,90,3.0,6,0.14065933841081404
8.025,0.06760532616242629,84.96931088968523,0,90,3.0,6,0.15400641009660274
8.03,0.05196904332202373,85.60616534397113,0,90,3.0,6,0.16713742977260057
8.035,0.03923107185803287,86.21263167382902,0,90,3.0,6,0.1796418901820417
8.04,0.02908287038705761,86.77121984433278,0,90,3.0,6,0.19115917204809849
8.045,0.02117220077308346,87.26614028210291,0,90,3.0,6,0.20136371715676102
8.05,0.0151361834125735,87.68327944307798,0,90,3.0,6,0.20996452459954595
8.055,0.010626454858290009,88.01051741167255,0,90,3.0,6,0.21671169920974334
8.06,0.007326255555493652,88.23816273562356,0,90,3.0,6,0.22140541722935178
8.065,0.004960179211183015,88.35936913531009,0,90,3.0,6,0.22390451825381627
8.07,0.0032978759379303545,88.3704549759066,0,90,3.0,6,0.22413309228673395
8.075,0.002153242296767213,88.27108106749418,0,90,3.0,6,0.22208414572152949
8.08,0.001380616732225004,88.06426526041847,0,90,3.0,6,0.2178199022766694
8.085,0.0008693106590991584,87.75622938752784,0,90,3.0,6,0.21146864716552244
8.09,0.000537524815942247,87.35608811985259,0,90,3.0,6,0.20321831174953786
8.095,0.0003263951340288585,86.87540102954962,0,90,3.0,6,0.1933072377226726
8.1,0.00019463030985187395,86.32761843902698,0,90,3.0,6,0.18201275132014386
8.105,0.00011397219555062695,85.72745804544682,0,90,3.0,6,0.16963831021539844
8.11,6.55403863487943e-05,85.09025249472462,0,90,3.0,6,0.1565000514376211
8.115,3.701184389455385e-05,84.43130793834682,0,90,3.0,6,0.14291356573910968
8.12,2.0525516217290957e-05,83.7653103417945,0,90,3.0,6,0.12918165653184543
8.125,1.1178128483661116e-05,83.10581041043784,0,90,3.0,6,0.11558371980284206
8.13,5.978135409912517e-06,82.46481016288601,0,90,3.0,6,0.1023672198533198
8.135,3.1396702713238487e-06,81.85246524967621,0,90,3.0,6,0.08974155153971576
8.14,1.6192875458531019e-06,81.276907956434,0,90,3.0,6,0.07787439085430932
8.145,8.201353897972012e-07,80.74418725350604,0,90,3.0,6,0.06689045883517611
8.15,4.0791415086824765e-07,80.25831492720756,0,90,3.0,6,0.056872472725929164
8.155,1.9923866938774793e-07,79.82140122596148,0,90,3.0,6,0.04786394280332949
8.16,9.556527981051257e-08,79.43385983225944,0,90,3.0,6,0.039873398603287494
8.165,4.501406988770349e-08,79.09466036456183,0,90,3.0,6,0.03287959514560479
8.17,0.0,78.80160686539986,0,90,3.0,6,0.026837254956698177
8.175,0.0,78.55162253760456,0,90,3.0,6,0.021682938919681614
8.18,0.0,78.34102394918298,0,90,3.0,6,0.017340699983154285
8.185,0.0,78.16577159895577,0,90,3.0,6,0.0137272494630056
8.19,0.0,78.02168769123986,0,90,3.0,6,0.010756447242059007
8.195,0.0,77.90463583247852,0,90,3.0,6,0.008343006855227193
8.2,0.0,77.81066083961933,0,90,3.0,6,0.006405378136481049
8.205,0.0,77.73608973677702,0,90,3.0,6,0.004867829624268409
8.21,0.0,77.67759720552577,0,90,3.0,6,0.003661798052077754
8.215,0.0,77.63224022257143,0,90,3.0,6,0.0027266025272458896
8.22,0.0,77.59746741293033,0,90,3.0,6,0.0020096373800067655
8.225,0.0,77.57110886220912,0,90,3.0,6,0.001466162107404441
8.23,0.0,77.55135189140306,0,90,3.0,6,0.0010588018845991423
8.235,0.0,77.53670773455,0,90,3.0,6,0.0007568605061856994
8.24,0.0,77.52597330075044,0,90,3.0,6,0.0005355319742358057
8.245,0.0,77.51819135838316,0,90,3.0,6,0.00037507955429202044
8.25,0.0,77.51261163923783,0,90,3.0,6,0.00026003379871818866
8.255,0.0,77.50865458747553,0,90,3.0,6,0.00017844510258831027
8.26,0.0,77.50587881276304,0,90,3.0,6,0.00012121263428955844
8.265,0.0,77.5039527678497,0,90,3.0,6,8.150036803498289e-05
8.27,0.0,77.5026307611049,0,90,3.0,6,5.424249700817218e-05
8.275,0.0,77.50173312521085,0,90,3.0,6,3.5734540429848964e-05
8.28,0.0,77.50113017810872,0,90,3.0,6,2.3302641416991072e-05
8.285,0.0,77.50072951170684,0,90,3.0,6,1.5041478491477542e-05
8.29,0.0,77.50046610747096,0,90,3.0,6,9.610463318680203e-06
8.295,0.0,77.50029478697198,0,90,3.0,6,6.078081896445378e-06
8.3,0.0,77.50018454357595,0,90,3.0,6,3.805022184636626e-06
8.305,0.0,77.5001143557486,0,90,3.0,6,2.357850486457688e-06
8.31,0.0,77.50007014318696,0,90,3.0,6,1.446251277527444e-06
8.315,0.0,77.50004258742786,0,90,3.0,6,8.780912960048095e-07
8.32,0.0,77.50002559444704,0,90,3.0,6,5.277205574886991e-07
8.325,0.0,77.50001522574371,0,90,3.0,6,3.139328599872053e-07
8.33,0.0,77.5000089656071,0,90,3.0,6,1.8485787822822944e-07
8.335,0.0,77.50000522575824,0,90,3.0,6,1.0774759265793186e-07
8.34,0.0,77.50000301500023,0,90,3.0,6,6.21649532309e-08
8.345,0.001684486749771458,77.50000172184403,0,90,3.0,6,3.5501938745040105e-08
8.35,0.004172395771277602,77.50000097334923,0,90,3.0,6,2.0069056299970978e-08
8.355,0.009438687428818865,77.50000054464309,0,90,3.0,6,1.1229754354363397e-08
8.36,0.019500507867137046,77.50000030166417,0,90,3.0,6,6.219879850570728e-09
8.365,0.03679496976339974,77.50000016538796,0,90,3.0,6,3.410061017066911e-09
8.37,0.06340728953298436,77.50000008975371,0,90,3.0,6,1.850592000373956e-09
8.375,0.09979255396093453,77.5000000482136,0,90,3.0,6,9.940947034620061e-10
8.38,0.14343835518453557,77.50000002563627,0,90,3.0,6,5.285828498842617e-10
8.385,0.18829581417209276,77.50000001349301,0,90,3.0,6,2.782063422704802e-10
8.39,0.2257481735193119,77.50000000702961,0,90,3.0,6,1.449404628390804e-10
8.395,0.24718154073554727,77.50000000362512,0,90,3.0,6,7.474470069225681e-11
8.4,0.24718154074102772,77.50000000185047,0,90,3.0,6,3.8153947355464515e-11
8.405,0.22574817354072055,77.50000000093499,0,90,3.0,6,1.927812319859795e-11
8.41,0.18829581422840957,77.50000000046764,0,90,3.0,6,9.641991672436131e-12
8.415,0.14343835532456656,77.50000000023151,0,90,3.0,6,4.773382147739296e-12
8.42,0.09979255431561854,77.50000000011345,0,90,3.0,6,2.3390773853908783e-12
8.425,0.06340729067170194,77.50000000005502,0,90,3.0,6,1.1345243187064363e-12
8.43,0.03679497683410042,77.50000000002642,0,90,3.0,6,5.447005961971242e-13
8.435,0.019500578284482293,77.50000000001256,0,90,3.0,7,2.590184653245066e-13
8.44,0.009439396781978427,77.50000000000591,0,90,3.0,7,1.2189104250565017e-13
8.445,0.004178588733610924,77.50000000000276,0,90,3.0,7,5.684341886080802e-14
8.45,0.0017299316936037381,77.50000000000126,0,90,3.0,7,2.6077650920679964e-14
8.455,0.0008997325756988589,77.50000000000058,0,90,3.0,7,1.2013299862335714e-14
8.46,0.001634769674224814,77.50000000000026,0,90,3.0,7,5.274131646879094e-15
8.465,0.00614904736476635,77.50000000000011,0,90,3.0,7,2.344058509724042e-15
8.47,0.02168080359963608,77.50000000000006,0,90,3.0,7,1.172029254862021e-15
8.475,0.06433400338904088,77.50000000000003,0,90,3.0,7,5.860146274310105e-16
8.48,0.1593410769217493,77.50000000000001,0,90,3.0,7,2.9300731371550523e-16
8.485,0.3291989194808569,77.5,0,90,3.0,7,0.0
8.49,0.5672906802982638,77.5,0,90,3.0,7,0.0
8.495,0.815339152120446,77.5,0,90,3.0,7,0.0
8.5,0.9768711246313155,77.50000284586159,1,90,3.0,7,5.8677558500516847e-08
8.505,0.9726380909165361,77.50000527961552,0,90,3.0,7,1.0885805199295553e-07
8.51,0.7921091683291741,77.50001031954956,0,90,3.0,7,2.1277421772716367e-07
8.515,0.49139090102639077,77.5000219076864,0,90,3.0,7,4.517048742836215e-07
8.52,0.15739335672107918,77.5000513062313,0,90,3.0,7,1.0578604391548184e-06
8.525,-0.11102342218909485,77.50013076005604,0,90,3.0,7,2.6960836296509407e-06
8.53,-0.2314207883647528,77.50035020381222,0,90,3.0,7,7.220697159130761e-06
8.535,-0.2029124434754801,77.50095018691317,0,90,3.0,7,1.9591482745824776e-05
8.54,-0.11151350554305876,77.50254252172627,0,90,3.0,7,5.242312837668747e-05
8.545,-0.039430666652076896,77.50659976740856,0,90,3.0,7,0.00013607767852699768
8.55,-0.006087703519843621,77.51646537881305,0,90,3.0,7,0.00033949234666087036
8.555,0.005350271385530551,77.53928253215116,0,90,3.0,7,0.00080994911651881
8.56,0.010381647827441833,77.58937615985101,0,90,3.0,7,0.0018428074196085336
8.565,0.015115203303506243,77.69363594416527,0,90,3.0,7,0.003992493694129186
8.57,0.021170964062928475,77.89914273187748,0,90,3.0,7,0.008229747049020112
8.575,0.029082821134029553,78.28242166935907,0,90,3.0,7,0.016132405553795196
8.58,0.03923107061708144,78.95815265228912,0,90,3.0,7,0.03006500313998176
8.585,0.051969043308817596,80.08310908029944,0,90,3.0,7,0.05325998103710179
8.59,0.06760532616283861,81.84927459141106,0,90,3.0,7,0.08967576477136206
8.595,0.08636519236693461,84.45983730743244,0,90,3.0,7,0.14350180015324612
8.6,0.10834733138818661,88.08459313200352,0,90,3.0,7,0.2182390336495571
8.605,0.1334809643017884,92.79797719482352,0,90,3.0,7,0.31542221020254674
8.61,0.16148868344343945,98.51242125918112,0,90,3.0,7,0.4332457991583737
