Time,ECG,Pressure,R_Peaks,mean_hr,hrv_scale,Phase_Bin,Normalized_Pressure
0.0,0.001684486749771458,77.5,0,60,3.0,0,0.0
0.005,0.003097557930867117,77.5,0,60,3.0,0,0.0
0.01,0.005475106668887023,77.5,0,60,3.0,0,0.0
0.015,0.00930222931468658,77.5,0,60,3.0,0,0.0
0.02,0.01519157517868857,77.5,0,60,3.0,0,0.0
0.025,0.023847336626128316,77.5,0,60,3.0,0,0.0
0.03,0.0359830743700859,77.5,0,60,3.0,0,0.0
0.035,0.05218887796857759,77.5,0,60,3.0,0,0.0
0.04,0.0727577001223134,77.5,0,60,3.0,0,0.0
0.045,0.0974992498694751,77.5,0,60,3.0,0,0.0
0.05,0.12558706050443358,77.5,0,60,3.0,0,0.0
0.055,0.15549263588878245,77.5,0,60,3.0,0,0.0
0.06,0.1850529723539114,77.5,0,60,3.0,0,0.0
0.065,0.21169159439317053,77.5,0,60,3.0,0,0.0
0.07,0.23277292922115492,77.5,0,60,3.0,0,0.0
0.075,0.24602692519491282,77.5,0,60,3.0,0,0.0
0.08,0.24995056064839283,77.5,0,60,3.0,0,0.0
0.085,0.24408826520424054,77.5,0,60,3.0,0,0.0
0.09,0.22911894216865275,77.5,0,60,3.0,0,0.0
0.095,0.20672661788705934,77.5,0,60,3.0,0,0.0
0.1,0.17928878030241233,77.5,0,60,3.0,0,0.0
0.105,0.14946211903866036,77.5,0,60,3.0,0,0.0
0.11,0.1197651512573837,77.5,0,60,3.0,0,0.0
0.115,0.09224675744988023,77.5,0,60,3.0,0,0.0
0.12,0.06829565320281596,77.5,0,60,3.0,0,0.0
0.125,0.04860224607515734,77.5,0,60,3.0,0,0.0
0.13,0.03324612389699793,77.5,0,60,3.0,0,0.0
0.135,0.021859876340472782,77.5,0,60,3.0,0,0.0
0.14,0.01381595518554205,77.5,0,60,3.0,0,0.0
0.145,0.008394095110402422,77.5,0,60,3.0,0,0.0
0.15,0.0049052535271608,77.5,0,60,3.0,0,0.0
0.155,0.0027671663551903634,77.5,0,60,3.0,0,0.0
0.16,0.0015425553464444616,77.5,0,60,3.0,0,0.0
0.165,0.0009638206637011801,77.5,0,60,3.0,0,0.0
0.17,0.0009804935156568228,77.5,0,60,3.0,0,0.0
0.175,0.0018793744894085216,77.5,0,60,3.0,0,0.0
0.18,0.004535525206900863,77.5,0,60,3.0,0,0.0
0.185,0.010832767979632273,77.5,0,60,3.0,0,0.0
0.19,0.024208003392322392,77.5,0,60,3.0,0,0.0
0.195,0.0500971897335304,77.5,0,60,3.0,0,0.0
0.2,0.09582894921774403,77.5,0,60,3.0,0,0.0
0.205,0.16937896721820658,77.5,0,60,3.0,0,0.0
0.21,0.27661303008991756,77.5,0,60,3.0,0,0.0
0.215,0.4173782800009149,77.5,0,60,3.0,0,0.0
0.22,0.5818720934538056,77.5,0,60,3.0,0,0.0
0.225,0.7494718801585675,77.5,0,60,3.0,0,0.0
0.23,0.891813020752378,77.5,0,60,3.0,0,0.0
0.235,0.9800361632936612,77.5,0,60,3.0,0,0.0
0.24,0.993574479225126,77.5,0,60,3.0,0,0.0
0.245,0.9263438449375362,77.5,0,60,3.0,0,0.0
0.25,0.7873015962290536,77.5,0,60,3.0,0,0.0
0.255,0.5959516244629897,77.5,0,60,3.0,0,0.0
0.26,0.376910120078773,77.5,0,60,3.0,0,0.0
0.265,0.15739335672107918,77.5,0,60,3.0,0,0.0
0.27,-0.033361226269301235,77.5,0,60,3.0,0,0.0
0.275,-0.1680180840843834,77.5,0,60,3.0,0,0.0
0.28,-0.23069703190837854,77.5,0,60,3.0,0,0.0
0.285,-0.22587267821131068,77.5,0,60,3.0,0,0.0
0.29,-0.17718181630665902,77.5,0,60,3.0,0,0.0
0.295,-0.11494332516451301,77.5,0,60,3.0,0,0.0
0.3,-0.061810214049552864,77.5,0,60,3.0,0,0.0
0.305,-0.026546104631500547,77.5,0,60,3.0,0,0.0
0.31,-0.00719600351942686,77.5,0,60,3.0,0,0.0
0.315,0.0022072757983807078,77.5,0,60,3.0,0,0.0
0.32,0.006917199873730717,77.5,0,60,3.0,0,0.0
0.325,0.01004859748264829,77.5,0,60,3.0,0,0.0
0.33,0.013037082251128167,77.5,0,60,3.0,0,0.0
0.335,0.01645163937690478,77.5,0,60,3.0,0,0.0
0.34,0.020526639934696615,77.5,0,60,3.0,0,0.0
0.345,0.02539629541761738,77.5,0,60,3.0,0,0.0
0.35,0.031171612185577933,77.5,0,60,3.0,0,0.0
0.355,0.03795853426638131,77.5,0,60,3.0,0,0.0
0.36,0.0458588961882057,77.5,0,60,3.0,0,0.0
0.365,0.054966995891435555,77.5,0,60,3.0,0,0.0
0.37,0.06536491004445595,77.5,0,60,3.0,0,0.0
0.375,0.07711726085088699,77.5,0,60,3.0,0,0.0
0.38,0.09026570629555215,77.5,0,60,3.0,0,0.0
0.385,0.10482339848670268,77.5,0,60,3.0,0,0.0
0.39,0.12076968927580028,77.5,0,60,3.0,0,0.0
0.395,0.13804539501007884,77.5,0,60,3.0,0,0.0
0.4,0.15654895051787066,77.5,0,60,3.0,0,0.0
0.405,0.17613378141900526,77.5,0,60,3.0,0,0.0
0.41,0.19660720058055794,77.5,0,60,3.0,0,0.0
0.415,0.21773108748496234,77.5,0,60,3.0,0,0.0
0.42,0.23922453870058807,77.5,0,60,3.0,0,0.0
0.425,0.2607685857914563,77.5,0,60,3.0,0,0.0
0.43,0.2820129681603682,77.5,0,60,3.0,0,0.0
0.435,0.30258482867153996,77.5,0,60,3.0,0,0.0
0.44,0.3220990771751686,77.5,0,60,3.0,0,0.0
0.445,0.3401700499968971,77.5,0,60,3.0,0,0.0
0.45,0.3564239911198326,77.5,0,60,3.0,0,0.0
0.455,0.3705118017738417,77.5,0,60,3.0,0,0.0
0.46,0.3821214567925213,77.5,0,60,3.0,0,0.0
0.465,0.39098947374066967,77.5,0,60,3.0,0,0.0
0.47,0.3969108472035567,77.5,0,60,3.0,0,0.0
0.475,0.3997469255491936,77.5,0,60,3.0,0,0.0
0.48,0.3994308076379137,77.5,0,60,3.0,0,0.0
0.485,0.3959699661768434,77.5,0,60,3.0,0,0.0
0.49,0.38944595408114946,77.5,0,60,3.0,0,0.0
0.495,0.38001120995358023,77.5,0,60,3.0,0,0.0
0.5,0.3678831374098315,77.5,0,60,3.0,0,0.0
0.505,0.35333577933796634,77.5,0,60,3.0,0,0.0
0.51,0.33668953221163944,77.5,0,60,3.0,0,0.0
0.515,0.3182994390982644,77.5,0,60,3.0,0,0.0
0.52,0.29854265738230645,77.5,0,60,3.0,0,0.0
0.525,0.2778057157821067,77.5,0,60,3.0,0,0.0
0.53,0.2564721553719815,77.5,0,60,3.0,0,0.0
0.535,0.23491109433464996,77.5,0,60,3.0,0,0.0
0.54,0.21346717185309805,77.5,0,60,3.0,0,0.0
0.545,0.19245222055656455,77.5,0,60,3.0,0,0.0
0.55,0.17213889801761392,77.5,0,60,3.0,0,0.0
0.555,0.15275638501270183,77.5,0,60,3.0,0,0.0
0.56,0.13448814019607322,77.5,0,60,3.0,0,0.0
0.565,0.11747159495449566,77.5,0,60,3.0,0,0.0
0.57,0.10179958433370105,77.5,0,60,3.0,0,0.0
0.575,0.08752324394101413,77.5,0,60,3.0,0,0.0
0.58,0.07465606047174059,77.5,0,60,3.0,0,0.0
0.585,0.0631787448609295,77.5,0,60,3.0,0,0.0
0.59,0.05304460019959574,77.5,0,60,3.0,0,0.0
0.595,0.044185078305849994,77.5,0,60,3.0,0,0.0
0.6,0.03651525513023255,77.5,0,60,3.0,0,0.0
0.605,0.0299390014708757,77.5,0,60,3.0,0,0.0
0.61,0.024353677220580638,77.5,0,60,3.0,0,0.0
0.615,0.01965423034339045,77.5,0,60,3.0,0,0.0
0.62,0.015736632374757337,77.5,0,60,3.0,0,0.0
0.625,0.012500627640593535,77.5,0,60,3.0,0,0.0
0.63,0.009851811652115898,77.5,0,60,3.0,0,0.0
0.635,0.007703084175428559,77.5,0,60,3.0,0,0.0
0.64,0.005975544002062424,77.5,0,60,3.0,0,0.0
0.645,0.004598905818663047,77.5,0,60,3.0,0,0.0
0.65,0.0035115256454839104,77.5,0,60,3.0,0,0.0
0.655,0.002660121266303676,77.5,0,60,3.0,0,0.0
0.66,0.0019992692560877024,77.5,0,60,3.0,0,0.0
0.665,0.0014907520044639367,77.5,0,60,3.0,0,0.0
0.67,0.0011028178277539807,77.5,0,60,3.0,0,0.0
0.675,0.0008094059938923333,77.5,0,60,3.0,0,0.0
0.68,0.0005893771793717645,77.5,0,60,3.0,0,0.0
0.685,0.0004257792353490551,77.5,0,60,3.0,0,0.0
0.69,0.0003051686392901525,77.5,0,60,3.0,0,0.0
0.695,0.00021699992642659966,77.5,0,60,3.0,0,0.0
0.7,0.00015308884054097838,77.5,0,60,3.0,0,0.0
0.705,0.00010714989329311098,77.5,0,60,3.0,0,0.0
0.71,7.440535854020571e-05,77.5,0,60,3.0,0,0.0
0.715,5.1260276743925106e-05,77.5,0,60,3.0,0,0.0
0.72,3.503659887882241e-05,77.5,0,60,3.0,0,0.0
0.725,2.375894748103639e-05,77.5,0,60,3.0,0,0.0
0.73,1.5984413869232557e-05,77.5,0,60,3.0,0,0.0
0.735,1.0669166579899869e-05,77.5,0,60,3.0,0,0.0
0.74,7.06526633560511e-06,77.5,0,60,3.0,0,0.0
0.745,4.641847214699205e-06,77.5,0,60,3.0,0,0.0
0.75,3.025641074479182e-06,77.5,0,60,3.0,0,0.0
0.755,1.9566278676921314e-06,77.5,0,60,3.0,0,0.0
0.76,1.2553456560008793e-06,77.5,0,60,3.0,0,0.0
0.765,7.990660428214668e-07,77.5,0,60,3.0,0,0.0
0.77,5.046221251618276e-07,77.5,0,60,3.0,0,0.0
0.775,3.1616527078858815e-07,77.5,0,60,3.0,0,0.0
0.78,1.9652884407760343e-07,77.5,0,60,3.0,0,0.0
0.785,1.2120002189836396e-07,77.5,0,60,3.0,0,0.0
0.79,7.415549848886236e-08,77.5,0,60,3.0,0,0.0
0.795,4.501406988770349e-08,77.5,0,60,3.0,0,0.0
0.8,0.0,77.5,0,60,3.0,0,0.0
0.805,0.0,77.5,0,60,3.0,0,0.0
0.81,0.0,77.5,0,60,3.0,0,0.0
0.815,0.0,77.5,0,60,3.0,0,0.0
0.82,0.0,77.5,0,60,3.0,0,0.0
0.825,0.0,77.5,0,60,3.0,0,0.0
0.83,0.0,77.5,0,60,3.0,0,0.0
0.835,0.0,77.5,0,60,3.0,0,0.0
0.84,0.0,77.5,0,60,3.0,0,0.0
0.845,0.0,77.5,0,60,3.0,0,0.0
0.85,0.0,77.5,0,60,3.0,0,0.0
0.855,0.0,77.5,0,60,3.0,0,0.0
0.86,0.0,77.5,0,60,3.0,0,0.0
0.865,0.0,77.5,0,60,3.0,0,0.0
0.87,0.0,77.5,0,60,3.0,0,0.0
0.875,0.0,77.5,0,60,3.0,0,0.0
0.88,0.0,77.5,0,60,3.0,0,0.0
0.885,0.0,77.5,0,60,3.0,0,0.0
0.89,0.0,77.5,0,60,3.0,0,0.0
0.895,0.0,77.5,0,60,3.0,0,0.0
0.9,0.0,77.5,0,60,3.0,0,0.0
0.905,0.0,77.5,0,60,3.0,0,0.0
0.91,0.0,77.5,0,60,3.0,0,0.0
0.915,0.0,77.5,0,60,3.0,0,0.0
0.92,0.0,77.5,0,60,3.0,0,0.0
0.925,0.0,77.5,0,60,3.0,0,0.0
0.93,0.0,77.5,0,60,3.0,0,0.0
0.935,0.0,77.5,0,60,3.0,0,0.0
0.94,0.0,77.5,0,60,3.0,0,0.0
0.945,0.0,77.5,0,60,3.0,0,0.0
0.95,0.0,77.5,0,60,3.0,0,0.0
0.955,0.0,77.5,0,60,3.0,0,0.0
0.96,0.0,77.5,0,60,3.0,0,0.0
0.965,0.0,77.5,0,60,3.0,0,0.0
0.97,0.0,77.5,0,60,3.0,0,0.0
0.975,0.0,77.5,0,60,3.0,0,0.0
0.98,0.0,77.5,0,60,3.0,0,0.0
0.985,0.0,77.5,0,60,3.0,0,0.0
0.99,0.0,77.5,0,60,3.0,0,0.0
0.995,0.0,77.5,0,60,3.0,0,0.0
1.0,0.0,77.5,0,60,3.0,0,0.0
1.005,0.0,77.5,0,60,3.0,0,0.0
1.01,0.0,77.5,0,60,3.0,0,0.0
1.015,0.0,77.5,0,60,3.0,0,0.0
1.02,0.0,77.5,0,60,3.0,0,0.0
1.025,0.001684486749771458,77.5,0,60,3.0,0,0.0
1.03,0.003097557930867117,77.5,0,60,3.0,0,0.0
1.035,0.005475106668887023,77.5,0,60,3.0,0,0.0
1.04,0.00930222931468658,77.5,0,60,3.0,0,0.0
1.045,0.01519157517868857,77.5,0,60,3.0,0,0.0
1.05,0.023847336626128316,77.5,0,60,3.0,0,0.0
1.055,0.0359830743700859,77.5,0,60,3.0,0,0.0
1.06,0.05218887796857759,77.5,0,60,3.0,0,0.0
1.065,0.0727577001223134,77.5,0,60,3.0,0,0.0
1.07,0.0974992498694751,77.5,0,60,3.0,0,0.0
1.075,0.12558706050443358,77.5,0,60,3.0,0,0.0
1.08,0.15549263588878245,77.5,0,60,3.0,0,0.0
1.085,0.1850529723539114,77.5,0,60,3.0,0,0.0
1.09,0.21169159439317053,77.5,0,60,3.0,0,0.0
1.095,0.23277292922115492,77.5,0,60,3.0,0,0.0
1.1,0.24602692519491282,77.5,0,60,3.0,0,0.0
1.105,0.24995056064839283,77.5,0,60,3.0,0,0.0
1.11,0.24408826520424054,77.5,0,60,3.0,0,0.0
1.115,0.22911894216865275,77.5,0,60,3.0,0,0.0
1.12,0.20672661788705934,77.5,0,60,3.0,0,0.0
1.125,0.17928878030241233,77.5,0,60,3.0,0,0.0
1.13,0.14946211903866036,77.5,0,60,3.0,0,0.0
1.135,0.1197651512573837,77.5,0,60,3.0,0,0.0
1.14,0.09224675744988023,77.5,0,60,3.0,0,0.0
1.145,0.06829565320281596,77.5,0,60,3.0,0,0.0
1.15,0.04860224607515734,77.5,0,60,3.0,0,0.0
1.155,0.03324612389699793,77.5,0,60,3.0,0,0.0
1.16,0.021859876340472782,77.5,0,60,3.0,0,0.0
1.165,0.01381595518554205,77.5,0,60,3.0,0,0.0
1.17,0.008394095110402422,77.5,0,60,3.0,0,0.0
1.175,0.0049052535271608,77.5,0,60,3.0,0,0.0
1.18,0.0027671663551903634,77.5,0,60,3.0,0,0.0
1.185,0.0015425553464444616,77.5,0,60,3.0,0,0.0
1.19,0.0009638206637011801,77.5,0,60,3.0,0,0.0
1.195,0.0009804935156568228,77.5,0,60,3.0,0,0.0
1.2,0.0018793744894085216,77.5,0,60,3.0,0,0.0
1.205,0.004535525206900863,77.5,0,60,3.0,1,0.0
1.21,0.010832767979632273,77.5,0,60,3.0,1,0.0
1.215,0.024208003392322392,77.5,0,60,3.0,1,0.0
1.22,0.0500971897335304,77.5,0,60,3.0,1,0.0
1.225,0.09582894921774403,77.5,0,60,3.0,1,0.0
1.23,0.16937896721820658,77.5,0,60,3.0,1,0.0
1.235,0.27661303008991756,77.5,0,60,3.0,1,0.0
1.24,0.4173782800009149,77.5,0,60,3.0,1,0.0
1.245,0.5818720934538056,77.5,0,60,3.0,1,0.0
1.25,0.7494718801585675,77.5,0,60,3.0,1,0.0
1.255,0.891813020752378,77.5,0,60,3.0,1,0.0
1.26,0.9800361632936612,77.5,0,60,3.0,1,0.0
1.265,0.993574479225126,77.50000249553136,1,60,3.0,1,5.871838498826358e-08
1.27,0.9263438449375362,77.5000037979206,0,60,3.0,1,8.936283761078598e-08
1.275,0.7873015962290536,77.50000589651982,0,60,3.0,1,1.387416429064187e-07
1.28,0.5959516244629897,77.5000094348155,0,60,3.0,1,2.2199565872891553e-07
1.285,0.376910120078773,77.50001571195249,0,60,3.0,1,3.6969299966425324e-07
1.29,0.15739335672107918,77.50002740197677,0,60,3.0,1,6.447523944911261e-07
1.295,-0.033361226269301235,77.5000500328844,0,60,3.0,1,1.177244338885644e-06
1.3,-0.1680180840843834,77.50009495573708,0,60,3.0,1,2.234252637248681e-06
1.305,-0.23069703190837854,77.50018514752661,0,60,3.0,1,4.356412390774601e-06
1.31,-0.22587267821131068,77.50036623180388,0,60,3.0,1,8.617218914838198e-06
1.315,-0.17718181630665902,77.50072678709442,0,60,3.0,1,1.710087280992625e-05
1.32,-0.11494332516451301,77.50143461155861,0,60,3.0,1,3.3755566084892054e-05
1.325,-0.061810214049552864,77.5027993939534,0,60,3.0,1,6.58680930210748e-05
1.33,-0.026546104631500547,77.50537738125638,0,60,3.0,1,0.0001265266177971866
1.335,-0.00719600351942686,77.5101400375162,0,60,3.0,1,0.0002385891180281038
1.34,0.0022072757983807078,77.51873573170647,0,60,3.0,1,0.00044084074603460975
1.345,0.006917199873730717,77.53387969714991,0,60,3.0,1,0.0007971693447038486
1.35,0.01004859748264829,77.55991023047092,0,60,3.0,1,0.0014096524816686858
1.355,0.013037082251128167,77.60354438392822,0,60,3.0,1,0.00243633844536997
1.36,0.01645163937690478,77.67484918417814,0,60,3.0,1,0.004114098451250423
1.365,0.020526639934696615,77.7884093308522,0,60,3.0,1,0.0067861019024047994
1.37,0.02539629541761738,77.96461536956245,0,60,3.0,1,0.01093212634264593
1.375,0.031171612185577933,78.23091721059663,0,60,3.0,1,0.017198052014038345
1.38,0.03795853426638131,78.6227928599652,0,60,3.0,1,0.02641865552859298
1.385,0.0458588961882057,79.18408665755831,0,60,3.0,1,0.03962556841313672
1.39,0.054966995891435555,79.96630039667855,0,60,3.0,1,0.058030597568907015
1.395,0.06536491004445595,81.02640747170874,0,60,3.0,1,0.08297429345197027
1.4,0.07711726085088699,82.42283947403011,0,60,3.0,1,0.11583151703600265
1.405,0.09026570629555215,84.20949296015137,0,60,3.0,1,0.15787042259179684
1.41,0.10482339848670268,86.42792724167438,0,60,3.0,1,0.21006887627469134
1.415,0.12076968927580028,89.09834551335945,0,60,3.0,1,0.2729022473731635
1.42,0.13804539501007884,92.21040668051529,0,60,3.0,1,0.3461272160121245
1.425,0.15654895051787066,95.71530488045332,0,60,3.0,1,0.4285954089518428
1.43,0.17613378141900526,99.52076142138833,0,60,3.0,1,0.518135562856196
1.435,0.19660720058055794,103.49049392863455,0,60,3.0,1,0.6115410336149306
1.44,0.21773108748496234,107.44929879905975,0,60,3.0,1,0.7046893835072882
1.445,0.23922453870058807,111.1941190293451,0,60,3.0,1,0.792802800690473
1.45,0.2607685857914563,114.51047262775617,0,60,3.0,1,0.8708346500648512
1.455,0.2820129681603682,117.1925695932531,0,60,3.0,1,0.9339428139588964
1.46,0.30258482867153996,119.06457506308963,0,60,3.0,1,0.977990001484462
1.465,0.3220990771751686,120.0,0,60,3.0,1,1.0
1.47,0.3401700499968971,119.93626626357627,0,60,3.0,1,0.9985003826723828
1.475,0.3564239911198326,118.88213103465766,0,60,3.0,1,0.9736972008154744
1.48,0.3705118017738417,116.91676286621725,0,60,3.0,1,0.9274532439109943
1.485,0.3821214567925213,114.18061934032266,0,60,3.0,1,0.8630733962428863
1.49,0.39098947374066967,110.85960266710498,0,60,3.0,1,0.7849318274612936
1.495,0.3969108472035567,107.16499075378253,0,60,3.0,1,0.6979997824419419
1.5,0.3997469255491936,103.31215997547778,0,60,3.0,1,0.6073449405994773
1.505,0.3994308076379137,99.50105733238124,0,60,3.0,1,0.5176719372324997
1.51,0.3959699661768434,95.90080270694628,0,60,3.0,1,0.43296006369285367
1.515,0.38944595408114946,92.63987384862794,0,60,3.0,1,0.35623232585006925
1.52,0.38001120995358023,89.80227211535595,0,60,3.0,1,0.2894652262436693
1.525,0.3678831374098315,87.429107562273,0,60,3.0,1,0.23362606028877655
1.53,0.35333577933796634,85.52434499291017,0,60,3.0,1,0.18880811748023937
1.535,0.33668953221163944,84.06310121889615,0,60,3.0,1,0.1544259110328506
1.54,0.3182994390982644,83.00087339718817,0,60,3.0,1,0.129432315227957
1.545,0.29854265738230645,82.28233533973716,0,60,3.0,1,0.11252553740558022
1.55,0.2778057157821067,81.84875222780497,0,60,3.0,1,0.10232358183070507
1.555,0.2564721553719815,81.64351943719842,0,60,3.0,1,0.09749457499290402
1.56,0.23491109433464996,81.61573561778272,0,60,3.0,1,0.09684083806547572
1.565,0.21346717185309805,81.7220173312601,0,60,3.0,1,0.09934158426494365
1.57,0.19245222055656455,81.92693369355118,0,60,3.0,1,0.10416314573061594
1.575,0.17213889801761392,82.20249593298601,0,60,3.0,1,0.1106469631290826
1.58,0.15275638501270183,82.52710789170109,0,60,3.0,1,0.11828489156943747
1.585,0.13448814019607322,82.88430441935833,0,60,3.0,1,0.12668951574960777
1.59,0.11747159495449566,83.26150706007847,0,60,3.0,1,0.1355648720018464
1.595,0.10179958433370105,83.64893355810317,0,60,3.0,1,0.14468078960242745
1.6,0.08752324394101413,84.03872273042094,0,60,3.0,1,0.1538522995393163
1.605,0.07465606047174059,84.42428381662813,0,60,3.0,1,0.16292432509713253
1.61,0.0631787448609295,84.79984820751459,0,60,3.0,1,0.17176113429446085
1.615,0.05304460019959574,85.16018700493531,0,60,3.0,1,0.18023969423377198
1.62,0.044185078305849994,85.50045479613394,0,60,3.0,1,0.18824599520315147
1.625,0.03651525513023255,85.81612348054294,0,60,3.0,1,0.1956734936598339
1.63,0.0299390014708757,86.10297630590426,0,60,3.0,1,0.20242297190362973
1.635,0.024353677220580638,86.35713909920837,0,60,3.0,1,0.20840327292254984
1.64,0.01965423034339045,86.5751317625649,0,60,3.0,1,0.21353251206035045
1.645,0.015736632374757337,86.75392796721998,0,60,3.0,1,0.21773948158164658
1.65,0.012500627640593535,86.89101460585793,0,60,3.0,1,0.22096504954959842
1.655,0.009851811652115898,86.98444515996042,0,60,3.0,1,0.22316341552848037
1.66,0.007703084175428559,87.0328829744056,0,60,3.0,1,0.22430312880954342
1.665,0.005975544002062424,87.03563175280645,0,60,3.0,1,0.22436780594838712
1.67,0.004598905818663047,86.99265158497569,0,60,3.0,1,0.22335650788178094
1.675,0.0035115256454839104,86.90455962174919,0,60,3.0,1,0.2212837558058632
1.68,0.002660121266303676,86.7726151996039,0,60,3.0,1,0.2181791811671507
1.685,0.0019992692560877024,86.5986898271919,0,60,3.0,1,0.21408681946333893
1.69,0.0014907520044639367,86.38522299196607,0,60,3.0,1,0.20906407039920175
1.695,0.0011028178277539807,86.13516522658897,0,60,3.0,1,0.20318035827268158
1.7,0.0008094059938923333,85.85191028364954,0,60,3.0,1,0.19651553608587163
1.705,0.0005893771793717645,85.53921859307545,0,60,3.0,1,0.1891580845429517
1.71,0.0004257792353490551,85.20113441032936,0,60,3.0,1,0.18120316259598493
1.715,0.0003051686392901525,84.84189919885794,0,60,3.0,1,0.17275056938489283
1.72,0.00021699992642659966,84.4658638252098,0,60,3.0,1,0.16390267824023047
1.725,0.00015308884054097838,84.07740208207215,0,60,3.0,1,0.15476240193110952
1.73,0.00010714989329311098,83.68082789985633,0,60,3.0,1,0.14543124470250177
1.735,7.440535854020571e-05,83.28031837196917,0,60,3.0,1,0.136007491105157
1.74,5.1260276743925106e-05,82.87984441636587,0,60,3.0,1,0.12658457450272637
1.745,3.503659887882241e-05,82.48311054260569,0,60,3.0,1,0.11724965982601615
1.75,2.375894748103639e-05,82.09350480709807,0,60,3.0,1,0.10808246604936639
1.755,1.5984413869232557e-05,81.71405963766578,0,60,3.0,1,0.09915434441566551
1.76,1.0669166579899869e-05,81.34742380962653,0,60,3.0,1,0.09052761905003609
1.765,7.06526633560511e-06,80.99584547562104,0,60,3.0,1,0.0822551876616715
1.77,4.641847214699205e-06,80.66116580464649,0,60,3.0,1,0.07438037187403498
1.775,3.025641074479182e-06,80.34482248380725,0,60,3.0,1,0.0669369996189941
1.78,1.9566278676921314e-06,80.04786208778954,0,60,3.0,1,0.05994969618328328
1.785,1.2553456560008793e-06,79.77096013143739,0,60,3.0,1,0.05343435603382097
1.79,7.990660428214668e-07,79.51444749231865,0,60,3.0,1,0.04739876452514476
1.795,5.046221251618276e-07,79.278341822098,0,60,3.0,1,0.041843336990541165
1.8,3.1616527078858815e-07,79.06238255449453,0,60,3.0,1,0.0367619424586949
1.805,1.9652884407760343e-07,78.86606815798669,0,60,3.0,1,0.03214278018792209
1.81,1.2120002189836396e-07,78.68869436592169,0,60,3.0,1,0.027969279198157438
1.815,7.415549848886236e-08,78.52939223681737,0,60,3.0,1,0.02422099380746759
1.82,4.501406988770349e-08,78.38716504432811,0,60,3.0,1,0.020874471631249742
1.825,0.0,78.26092316041584,0,60,3.0,1,0.017904074362725703
1.83,0.0,78.14951626792161,0,60,3.0,1,0.01528273571580264
1.835,0.0,78.05176241193382,0,60,3.0,1,0.012982644986678171
1.84,0.0,77.96647356610181,0,60,3.0,1,0.010975848614160268
1.845,0.0,77.89247754460511,0,60,3.0,1,0.009234765755414454
1.85,0.0,77.8286362284681,0,60,3.0,1,0.00773261714042586
1.855,0.0,77.77386019328746,0,60,3.0,1,0.0064437692538226255
1.86,0.0,77.72711992251153,0,60,3.0,1,0.005343998176741974
1.865,0.0,77.68745386566955,0,60,3.0,1,0.004410679192224787
1.87,0.0,77.65397365492345,0,60,3.0,1,0.003622909527610532
1.875,0.0,77.62586682737643,0,60,3.0,1,0.00296157240885711
1.88,0.0,77.60239741673563,0,60,3.0,1,0.0024093509820147575
1.885,0.0,77.58290477863605,0,60,3.0,1,0.0019507006737893896
1.89,0.0,77.56680100188535,0,60,3.0,1,0.0015717882796553462
1.895,0.0,77.55356723584703,0,60,3.0,1,0.0012604055493418
1.9,0.0,77.54274923483845,0,60,3.0,1,0.001005864349140077
1.905,0.0,77.5339523862881,0,60,3.0,1,0.000798879677367214
1.91,0.0,77.52683645271036,0,60,3.0,1,0.0006314459461260172
1.915,0.0,77.52111022023206,0,60,3.0,1,0.0004967110642837725
1.92,0.0,77.51652621000613,0,60,3.0,1,0.0003888520001443313
1.925,0.0,77.51287557458264,0,60,3.0,1,0.0003029546960620417
1.93,0.0,77.50998327004963,0,60,3.0,1,0.00023490047175601724
1.935,0.0,77.50770356706387,0,60,3.0,1,0.0001812604015028415
1.94,0.0,77.50591594005692,0,60,3.0,1,0.0001391985895746556
1.945,0.0,77.5045213539901,0,60,3.0,1,0.00010638479976705639
1.95,0.0,77.50343895192604,0,60,3.0,1,8.091651590689253e-05
1.955,0.0,77.50260313413699,0,60,3.0,1,6.125021498800218e-05
1.96,0.0,77.50196101013708,0,60,3.0,1,4.614141499012155e-05
1.965,0.0,77.50147019851048,0,60,3.0,1,3.459290612882422e-05
1.97,0.0,77.50109694528726,0,60,3.0,1,2.581047734726299e-05
1.975,0.0,77.50081452947285,0,60,3.0,1,1.9165399361126593e-05
1.98,0.0,77.50060192376263,0,60,3.0,1,1.4162912061893247e-05
1.985,0.0,77.50044267910418,0,60,3.0,1,1.041597892193589e-05
1.99,0.0,77.50032400327848,0,60,3.0,1,7.623606552442652e-06
1.995,0.0,77.5002360057779,0,60,3.0,1,5.553077126893079e-06
2.0,0.0,77.50017108373179,0,60,3.0,1,4.025499571432246e-06
2.005,0.0,77.50012342628081,0,60,3.0,1,2.9041477837247786e-06
2.01,0.0,77.50008861748469,0,60,3.0,1,2.0851172868841626e-06
2.015,0.0,77.50006332045746,0,60,3.0,1,1.4898931166338597e-06
2.02,0.0,77.50004502788177,0,60,3.0,1,1.0594795710136062e-06
2.025,0.0,77.50003186631457,0,60,3.0,1,7.49795636987555e-07
2.03,0.0,77.50002244372865,0,60,3.0,1,5.28087733019835e-07
2.035,0.0,77.50001573153237,0,60,3.0,1,3.701537028679441e-07
2.04,0.0,77.50001097387214,0,60,3.0,1,2.5820875614900773e-07
2.045,0.0,77.50000761836212,0,60,3.0,1,1.7925557926901092e-07
2.05,0.001684486749771458,77.50000526351877,0,60,3.0,1,1.2384750053730815e-07
2.055,0.003097557930867117,77.50000361912504,0,60,3.0,1,8.51558832651148e-08
2.06,0.005475106668887023,77.50000247653146,0,60,3.0,1,5.827132855194898e-08
2.065,0.00930222931468658,77.50000168654122,0,60,3.0,1,3.9683322938799394e-08
2.07,0.01519157517868857,77.50000114304392,0,60,3.0,1,2.6895150995187578e-08
2.075,0.023847336626128316,77.50000077097754,0,60,3.0,1,1.814064790671503e-08
2.08,0.0359830743700859,77.50000051752744,0,60,3.0,1,1.2177116225168849e-08
2.085,0.05218887796857759,77.50000034573065,0,60,3.0,1,8.134838935802691e-09
2.09,0.0727577001223134,77.50000022985567,0,60,3.0,1,5.408368759376839e-09
2.095,0.0974992498694751,77.50000015208467,0,60,3.0,1,3.5784627444252904e-09
2.1,0.12558706050443358,77.50000010014482,0,60,3.0,1,2.3563486325549412e-09
2.105,0.15549263588878245,77.50000006562728,0,60,3.0,1,1.544171201363925e-09
2.11,0.1850529723539114,77.50000004280092,0,60,3.0,1,1.0070804739156944e-09
2.115,0.21169159439317053,77.50000002778016,0,60,3.0,1,6.536508328067344e-10
2.12,0.23277292922115492,77.50000001794442,0,60,3.0,1,4.222215466143098e-10
2.125,0.24602692519491282,77.5000000115355,0,60,3.0,1,2.714236469567849e-10
2.13,0.24995056064839283,77.50000000738001,0,60,3.0,1,1.7364728217430907e-10
2.135,0.24408826520424054,77.50000000469883,0,60,3.0,1,1.1056078405732371e-10
2.14,0.22911894216865275,77.50000000297739,0,60,3.0,1,7.005617001542466e-11
2.145,0.20672661788705934,77.50000000187757,0,60,3.0,1,4.417803639251575e-11
2.15,0.17928878030241233,77.50000000117832,0,60,3.0,1,2.7725210362833048e-11
2.155,0.14946211903866036,77.50000000073595,0,60,3.0,1,1.7316511623314855e-11
2.16,0.1197651512573837,77.50000000045745,0,60,3.0,1,1.0763468547820058e-11
2.165,0.09224675744988023,77.50000000028298,0,60,3.0,1,6.658370586913353e-12
2.17,0.06829565320281596,77.50000000017421,0,60,3.0,1,4.0990792459685025e-12
2.175,0.04860224607515734,77.50000000010674,0,60,3.0,1,2.511475994491347e-12
2.18,0.03324612389699793,77.50000000006509,0,60,3.0,1,1.5314285787205924e-12
2.185,0.021859876340472782,77.50000000003949,0,60,3.0,1,9.292227118481499e-13
2.19,0.01381595518554205,77.50000000002385,0,60,3.0,1,5.610779814613874e-13
2.195,0.008394095110402422,77.50000000001434,0,60,3.0,1,3.373824095915017e-13
2.2,0.0049052535271608,77.50000000000857,0,60,3.0,1,2.0162695042980724e-13
2.205,0.0027671663551903634,77.5000000000051,0,60,3.0,1,1.2003992571194163e-13
2.21,0.0015425553464444616,77.50000000000303,0,60,3.0,1,7.122146010207122e-14
2.215,0.0009638206637011801,77.50000000000178,0,60,3.0,1,4.1796631515300014e-14
2.22,0.0009804935156568228,77.50000000000105,0,60,3.0,1,2.4743605857057607e-14
2.225,0.0018793744894085216,77.50000000000061,0,60,3.0,1,1.4378041241263203e-14
2.23,0.004535525206900863,77.50000000000036,0,60,3.0,1,8.359326303060002e-15
2.235,0.010832767979632273,77.5000000000002,0,60,3.0,1,4.681222729713601e-15
2.24,0.024208003392322392,77.50000000000011,0,60,3.0,1,2.6749844169792007e-15
2.245,0.0500971897335304,77.50000000000007,0,60,3.0,1,1.6718652606120004e-15
2.25,0.09582894921774403,77.50000000000004,0,60,3.0,1,1.0031191563672002e-15
2.255,0.16937896721820658,77.50000000000001,0,60,3.0,1,3.343730521224001e-16
2.26,0.27661303008991756,77.50000000000001,0,60,3.0,1,3.343730521224001e-16
2.265,0.4173782800009149,77.5,0,60,3.0,1,0.0
2.27,0.5818720934538056,77.5,0,60,3.0,1,0.0
2.275,0.7494718801585675,77.5,0,60,3.0,1,0.0
2.28,0.891813020752378,77.5,0,60,3.0,1,0.0
2.285,0.9800361632936612,77.5,0,60,3.0,1,0.0
2.29,0.993574479225126,77.5000024966485,1,60,3.0,1,5.874467072263702e-08
2.295,0.9263438449375362,77.50000388454893,0,60,3.0,1,9.140115132729132e-08
2.3,0.7873015962290536,77.50000618232913,0,60,3.0,1,1.454665677743726e-07
2.305,0.5959516244629897,77.5000101847726,0,60,3.0,1,2.396417083700191e-07
2.31,0.376910120078773,77.50001756083037,0,60,3.0,1,4.1319600875474007e-07
2.315,0.15739335672107918,77.50003188149957,0,60,3.0,1,7.501529309780274e-07
2.32,-0.033361226269301235,77.50006080365405,0,60,3.0,1,1.4306742129707239e-06
2.325,-0.1680180840843834,77.50012058486693,0,60,3.0,1,2.8372909866902773e-06
2.33,-0.23069703190837854,77.50024513995355,0,60,3.0,1,5.7679989070306076e-06
2.335,-0.22587267821131068,77.50050363241509,0,60,3.0,1,1.1850174472690068e-05
2.34,-0.17718181630665902,77.50103350758017,0,60,3.0,1,2.4317825415878626e-05
2.345,-0.11494332516451301,77.50210036935763,0,60,3.0,1,4.942045547375742e-05
2.35,-0.061810214049552864,77.50420258594323,0,60,3.0,1,9.888437513489087e-05
2.355,-0.026546104631500547,77.50824711533218,0,60,3.0,1,0.00019404977252192754
2.36,-0.00719600351942686,77.51583324529174,0,60,3.0,1,0.0003725469480410565
2.365,0.0022072757983807078,77.52969102922935,0,60,3.0,1,0.0006986124524554029
2.37,0.006917199873730717,77.55432766935884,0,60,3.0,1,0.0012782981025609656
2.375,0.01004859748264829,77.5969322368778,0,60,3.0,1,0.0022807585147718865
2.38,0.013037082251128167,77.66856909864642,0,60,3.0,1,0.003966331732856829
2.385,0.01645163937690478,77.78564441251984,0,60,3.0,1,0.006721045000466909
2.39,0.020526639934696615,77.97155076923681,0,60,3.0,1,0.011095312217336789
2.395,0.02539629541761738,78.2582808201053,0,60,3.0,1,0.017841901649536432
2.4,0.031171612185577933,78.68766052792253,0,60,3.0,1,0.027944953598177214
2.405,0.03795853426638131,79.31171075246023,0,60,3.0,1,0.04262848829318186
2.41,0.0458588961882057,80.19154347445966,0,60,3.0,2,0.06333043469316856
2.415,0.054966995891435555,81.39419054317591,0,60,3.0,2,0.09162801278060964
2.42,0.06536491004445595,82.9869047835598,0,60,3.0,2,0.1291036419661128
2.425,0.07711726085088699,85.02880519220997,0,60,3.0,2,0.17714835746376406
2.43,0.09026570629555215,87.56025991780172,0,60,3.0,2,0.23671199806592272
2.435,0.10482339848670268,90.59105402879193,0,60,3.0,2,0.3080248006774572
2.44,0.12076968927580028,94.08904924277502,0,60,3.0,2,0.3903305704182357
2.445,0.13804539501007884,97.97153364558193,0,60,3.0,2,0.48168314460192774
2.45,0.15654895051787066,102.10159121830677,0,60,3.0,2,0.5788609698425121
2.455,0.17613378141900526,106.29144711748273,0,60,3.0,2,0.6774458145290054
2.46,0.19660720058055794,110.31382182199403,0,60,3.0,2,0.7720899252233888
2.465,0.21773108748496234,113.92095766616347,0,60,3.0,2,0.8569637097920817
2.47,0.23922453870058807,116.86941633089845,0,60,3.0,2,0.9263392077858458
2.475,0.2607685857914563,118.94734075580467,0,60,3.0,2,0.9752315471954041
2.48,0.2820129681603682,120.0,0,60,3.0,2,1.0
2.485,0.30258482867153996,119.94936806517826,0,60,3.0,2,0.9988086603571356
2.49,0.3220990771751686,118.80431883209974,0,60,3.0,2,0.9718663254611704
2.495,0.3401700499968971,116.65961054384493,0,60,3.0,2,0.9214026010316455
2.5,0.3564239911198326,113.6838413525704,0,60,3.0,2,0.8513845024134211
2.505,0.3705118017738417,110.09852371838782,0,60,3.0,2,0.7670240874914782
2.51,0.3821214567925213,106.15190294941635,0,60,3.0,2,0.6741624223392083
2.515,0.39098947374066967,102.09182171295444,0,60,3.0,2,0.5786310991283398
2.52,0.3969108472035567,98.14171008969322,0,60,3.0,2,0.48568729622807577
2.525,0.3997469255491936,94.48278858522536,0,60,3.0,2,0.39959502553471443
2.53,0.3994308076379137,91.24411073570738,0,60,3.0,2,0.32339084084017367
2.535,0.3959699661768434,88.50051791606685,0,60,3.0,2,0.2588357156721613
2.54,0.38944595408114946,86.27727400892925,0,60,3.0,2,0.20652409432774715
2.545,0.38001120995358023,84.55931872476093,0,60,3.0,2,0.1661016170531983
2.55,0.3678831374098315,83.3028005744429,0,60,3.0,2,0.13653648410453878
2.555,0.35333577933796634,82.44675842842192,0,60,3.0,2,0.1163943159628686
2.56,0.33668953221163944,81.9233555217599,0,60,3.0,2,0.10407895345317417
2.565,0.3182994390982644,81.6657405782961,0,60,3.0,2,0.09801742537167282
2.57,0.29854265738230645,81.61324823680155,0,60,3.0,2,0.0967823114541542
2.575,0.2778057157821067,81.71414190823803,0,60,3.0,2,0.09915628019383609
2.58,0.2564721553719815,81.92639917335062,0,60,3.0,2,0.10415056878472041
2.585,0.23491109433464996,82.21715152529522,0,60,3.0,2,0.1109918005951817
2.59,0.21346717185309805,82.56136080468661,0,60,3.0,2,0.11909084246321447
2.595,0.19245222055656455,82.94020128362216,0,60,3.0,2,0.12800473608522728
2.6,0.17213889801761392,83.33947177339249,0,60,3.0,2,0.13739933584452915
2.605,0.15275638501270183,83.74822470521731,0,60,3.0,2,0.14701705188746614
2.61,0.13448814019607322,84.1576901961562,0,60,3.0,2,0.1566515340272046
2.615,0.11747159495449566,84.56049942906901,0,60,3.0,2,0.16612939833103557
2.62,0.10179958433370105,84.95017025612171,0,60,3.0,2,0.17529812367345196
2.625,0.08752324394101413,85.32080099438407,0,60,3.0,2,0.18401884692668405
2.63,0.07465606047174059,85.66691715781909,0,60,3.0,2,0.19216275665456672
2.635,0.0631787448609295,85.98342289070791,0,60,3.0,2,0.19960995036959797
2.64,0.05304460019959574,86.26561884786955,0,60,3.0,2,0.20624985524398934
2.645,0.044185078305849994,86.50925808244908,0,60,3.0,2,0.21198254311644893
2.65,0.03651525513023255,86.71061970560895,0,60,3.0,2,0.21672046366138703
2.655,0.0299390014708757,86.86658630913784,0,60,3.0,2,0.22039026609736104
2.66,0.024353677220580638,86.97471559675341,0,60,3.0,2,0.22293448462949206
2.665,0.01965423034339045,87.03329977142683,0,60,3.0,2,0.22431293579827827
2.67,0.015736632374757337,87.04140840180983,0,60,3.0,2,0.2245037271014078
2.675,0.012500627640593535,86.99891208474476,0,60,3.0,2,0.2235038137587002
2.68,0.009851811652115898,86.90648547061232,0,60,3.0,2,0.22132906989676057
2.685,0.007703084175428559,86.76558926724239,0,60,3.0,2,0.21801386511158566
2.69,0.005975544002062424,86.5784317591195,0,60,3.0,2,0.2136101590381058
2.695,0.004598905818663047,86.34791119812435,0,60,3.0,2,0.20818614583822
2.7,0.0035115256454839104,86.07754113966531,0,60,3.0,2,0.20182449740388975
2.705,0.002660121266303676,85.77136140052126,0,60,3.0,2,0.19462026824755901
2.71,0.0019992692560877024,85.43383778522907,0,60,3.0,2,0.18667853612303703
2.715,0.0014907520044639367,85.06975405182008,0,60,3.0,2,0.1781118600428255
2.72,0.0011028178277539807,84.68409975610096,0,60,3.0,2,0.16903764132002266
2.725,0.0008094059938923333,84.2819576246531,0,60,3.0,2,0.15957547352124948
2.73,0.0005893771793717645,83.86839396614698,0,60,3.0,2,0.14984456390934076
2.735,0.0004257792353490551,83.44835535165316,0,60,3.0,2,0.13996130239183913
2.74,0.0003051686392901525,83.02657439701731,0,60,3.0,2,0.13003704463570148
2.745,0.00021699992642659966,82.6074869887465,0,60,3.0,2,0.12017616444109415
2.75,0.00015308884054097838,82.19516273734413,0,60,3.0,2,0.11047441734927374
2.755,0.00010714989329311098,81.7932498483948,0,60,3.0,2,0.1010176434916422
2.76,7.440535854020571e-05,81.40493500158567,0,60,3.0,2,0.09188082356672166
2.765,5.1260276743925106e-05,81.03291824914021,0,60,3.0,2,0.08312748821506374
2.77,3.503659887882241e-05,80.6794024125245,0,60,3.0,2,0.07480946852998814
2.775,2.375894748103639e-05,80.34609599014749,0,60,3.0,2,0.06696696447405857
2.78,1.5984413869232557e-05,80.03422820440662,0,60,3.0,2,0.05962889892721451
2.785,1.0669166579899869e-05,79.74457452363798,0,60,3.0,2,0.05281351820324657
2.79,7.06526633560511e-06,79.4774907976045,0,60,3.0,2,0.04652919523775301
2.795,4.641847214699205e-06,79.23295404316598,0,60,3.0,2,0.04077538925096412
2.8,3.025641074479182e-06,79.01060790415472,0,60,3.0,2,0.035543715391875876
2.805,1.9566278676921314e-06,78.80981087682954,0,60,3.0,2,0.030819079454812815
2.81,1.2553456560008793e-06,78.62968552729907,0,60,3.0,2,0.0265808359364488
2.815,7.990660428214668e-07,78.4691671158064,0,60,3.0,2,0.022803932136621168
2.82,5.046221251618276e-07,78.32705026967079,0,60,3.0,2,0.01946000634519511
2.825,3.1616527078858815e-07,78.2020325969465,0,60,3.0,2,0.01651841404579988
2.83,1.9652884407760343e-07,78.0927543922857,0,60,3.0,2,0.013947162171428197
2.835,1.2120002189836396e-07,77.99783384238104,0,60,3.0,2,0.011713737467789209
2.84,7.415549848886236e-08,77.91589737998032,0,60,3.0,2,0.009785820705419343
2.845,4.501406988770349e-08,77.84560505434425,0,60,3.0,2,0.008131883631629347
2.85,0.0,77.78567097606587,0,60,3.0,2,0.006721670025079367
2.855,0.0,77.73487905164139,0,60,3.0,2,0.0055265659209737805
2.86,0.0,77.69209434649721,0,60,3.0,2,0.004519866976405036
2.865,0.0,77.65627050466959,0,60,3.0,2,0.0036769530510492344
2.87,0.0,77.62645371089663,0,60,3.0,2,0.0029753814328618024
2.875,0.0,77.60178370962433,0,60,3.0,2,0.0023949108146900794
2.88,0.0,77.58149239927823,0,60,3.0,2,0.0019174682183113552
2.885,0.0,77.5649005035173,0,60,3.0,2,0.001527070670995138
2.89,0.0,77.55141278863067,0,60,3.0,2,0.001209712673662847
2.895,0.0,77.5405122522104,0,60,3.0,2,0.0009532294637742379
2.9,0.0,77.53175365686594,0,60,3.0,2,0.0007471448674339974
2.905,0.0,77.5247567276939,0,60,3.0,2,0.0005825112398564242
2.91,0.0,77.51919927656837,0,60,3.0,2,0.0004517476839616981
2.915,0.0,77.51481046255032,0,60,3.0,2,0.0003484814717721212
2.92,0.0,77.51136434769356,0,60,3.0,2,0.0002673964163190088
2.925,0.0,77.50867386254117,0,60,3.0,2,0.00020409088332170916
2.93,0.0,77.50658525642717,0,60,3.0,2,0.0001549472100511112
2.935,0.0,77.50497307465665,0,60,3.0,2,0.00011701352133286491
2.94,0.0,77.50373567769842,0,60,3.0,2,8.78982987862454e-05
2.945,0.0,77.50279129638474,0,60,3.0,2,6.567756199394674e-05
2.95,0.0,77.50207460126839,0,60,3.0,2,4.88141474915317e-05
2.955,0.0,77.50153375311476,0,60,3.0,2,3.608830858250739e-05
2.96,0.0,77.50112789431837,0,60,3.0,2,2.653868984406044e-05
2.965,0.0,77.50082503712781,0,60,3.0,2,1.9412638301432976e-05
2.97,0.0,77.50060030327039,0,60,3.0,2,1.4124782832676133e-05
2.975,0.0,77.50043447026465,0,60,3.0,2,1.022282975648469e-05
2.98,0.0,77.50031278184728,0,60,3.0,2,7.35957287728899e-06
2.985,0.0,77.50022398305025,0,60,3.0,2,5.270189417588507e-06
2.99,0.0,77.50015954415629,0,60,3.0,2,3.753980147995903e-06
2.995,0.0,77.50011304172635,0,60,3.0,2,2.659805325907548e-06
3.0,0.0,77.50007966889501,0,60,3.0,2,1.8745622355709203e-06
3.005,0.0,77.50005585099808,0,60,3.0,2,1.3141411313079194e-06
3.01,0.0,77.50003894621133,0,60,3.0,2,9.163814431357263e-07
3.015,0.0,77.50002701416986,0,60,3.0,2,6.356275261008276e-07
3.02,0.0,77.50001863846614,0,60,3.0,2,4.3855214458102745e-07
3.025,0.001684486749771458,77.50001279148142,0,60,3.0,2,3.00976033512972e-07
3.03,0.003097557930867117,77.50000873219956,0,60,3.0,2,2.0546351907689635e-07
3.035,0.005475106668887023,77.5000059295071,0,60,3.0,2,1.3951781404423802e-07
3.04,0.00930222931468658,77.50000400502901,0,60,3.0,2,9.42359767631227e-08
3.045,0.01519157517868857,77.50000269082139,0,60,3.0,2,6.331344446366797e-08
3.05,0.023847336626128316,77.50000179827543,0,60,3.0,2,4.231236316092477e-08
3.055,0.0359830743700859,77.5000011954177,0,60,3.0,2,2.8127475188204484e-08
3.06,0.05218887796857759,77.50000079045161,0,60,3.0,2,1.8598861368659796e-08
3.065,0.0727577001223134,77.50000051990384,0,60,3.0,2,1.2233031424436965e-08
3.07,0.0974992498694751,77.50000034014406,0,60,3.0,2,8.003389532806229e-09
3.075,0.12558706050443358,77.50000022135784,0,60,3.0,2,5.208419692922582e-09
3.08,0.15549263588878245,77.50000014329103,0,60,3.0,2,3.3715537028911058e-09
3.085,0.1850529723539114,77.50000009226464,0,60,3.0,2,2.170932756438132e-09
3.09,0.21169159439317053,77.50000005909403,0,60,3.0,2,1.3904478718733812e-09
3.095,0.23277292922115492,77.5000000376482,0,60,3.0,2,8.858401489466333e-10
3.1,0.24602692519491282,77.50000002385815,0,60,3.0,2,5.613682172706296e-10
3.105,0.24995056064839283,77.50000001503909,0,60,3.0,2,3.538609823461978e-10
3.11,0.24408826520424054,77.50000000942971,0,60,3.0,2,2.2187557934718345e-10
3.115,0.22911894216865275,77.50000000588122,0,60,3.0,2,1.3838162511306377e-10
3.12,0.20672661788705934,77.50000000364862,0,60,3.0,2,8.58499467593741e-11
3.125,0.17928878030241233,77.50000000225155,0,60,3.0,2,5.297773200522095e-11
3.13,0.14946211903866036,77.50000000138206,0,60,3.0,2,3.25191168111119e-11
3.135,0.1197651512573837,77.50000000084385,0,60,3.0,2,1.985540620808024e-11
3.14,0.09224675744988023,77.5000000005125,0,60,3.0,2,1.2058829751742238e-11
3.145,0.06829565320281596,77.50000000030961,0,60,3.0,2,7.28498568659073e-12
3.15,0.04860224607515734,77.50000000018605,0,60,3.0,2,4.377611998386462e-12
3.155,0.03324612389699793,77.50000000011121,0,60,3.0,2,2.6168035059099033e-12
3.16,0.021859876340472782,77.50000000006612,0,60,3.0,2,1.5558378115255276e-12
3.165,0.01381595518554205,77.50000000003911,0,60,3.0,2,9.20194639440845e-13
3.17,0.008394095110402422,77.50000000002301,0,60,3.0,2,5.413499713861657e-13
3.175,0.0049052535271608,77.50000000001346,0,60,3.0,2,3.1665128035991287e-13
3.18,0.0027671663551903634,77.50000000000783,0,60,3.0,2,1.8423955171944245e-13
3.185,0.0015425553464444616,77.50000000000453,0,60,3.0,2,1.0666500362704563e-13
3.19,0.0009638206637011801,77.50000000000261,0,60,3.0,2,6.152464159052161e-14
3.195,0.0009804935156568228,77.50000000000149,0,60,3.0,2,3.510917047285201e-14
3.2,0.0018793744894085216,77.50000000000085,0,60,3.0,2,2.0062383127344007e-14
3.205,0.004535525206900863,77.50000000000048,0,60,3.0,2,1.1368683772161604e-14
3.21,0.010832767979632273,77.50000000000027,0,60,3.0,2,6.353087990325602e-15
3.215,0.024208003392322392,77.50000000000016,0,60,3.0,2,3.678103573346401e-15
3.22,0.0500971897335304,77.50000000000009,0,60,3.0,2,2.0062383127344005e-15
3.225,0.09582894921774403,77.50000000000004,0,60,3.0,2,1.0031191563672002e-15
3.23,0.16937896721820658,77.50000000000003,0,60,3.0,2,6.687461042448002e-16
3.235,0.27661303008991756,77.50000000000001,0,60,3.0,2,3.343730521224001e-16
3.24,0.4173782800009149,77.50000000000001,0,60,3.0,2,3.343730521224001e-16
3.245,0.5818720934538056,77.5,0,60,3.0,2,0.0
3.25,0.7494718801585675,77.5,0,60,3.0,2,0.0
3.255,0.891813020752378,77.5,0,60,3.0,2,0.0
3.26,0.9800361632936612,77.5,0,60,3.0,2,0.0
3.265,0.993574479225126,77.5000024966485,1,60,3.0,2,5.874467072263702e-08
3.27,0.9263438449375362,77.50000388454893,0,60,3.0,2,9.140115132729132e-08
3.275,0.7873015962290536,77.50000618232913,0,60,3.0,2,1.454665677743726e-07
3.28,0.5959516244629897,77.5000101847726,0,60,3.0,2,2.396417083700191e-07
3.285,0.376910120078773,77.50001756083037,0,60,3.0,2,4.1319600875474007e-07
3.29,0.15739335672107918,77.50003188149957,0,60,3.0,2,7.501529309780274e-07
3.295,-0.033361226269301235,77.50006080365405,0,60,3.0,2,1.4306742129707239e-06
3.3,-0.1680180840843834,77.50012058486693,0,60,3.0,2,2.8372909866902773e-06
3.305,-0.23069703190837854,77.50024513995355,0,60,3.0,2,5.7679989070306076e-06
3.31,-0.22587267821131068,77.50050363241509,0,60,3.0,2,1.1850174472690068e-05
3.315,-0.17718181630665902,77.50103350758017,0,60,3.0,2,2.4317825415878626e-05
3.32,-0.11494332516451301,77.50210036935763,0,60,3.0,2,4.942045547375742e-05
3.325,-0.061810214049552864,77.50420258594323,0,60,3.0,2,9.888437513489087e-05
3.33,-0.026546104631500547,77.50824711533218,0,60,3.0,2,0.00019404977252192754
3.335,-0.00719600351942686,77.51583324529174,0,60,3.0,2,0.0003725469480410565
3.34,0.0022072757983807078,77.52969102922935,0,60,3.0,2,0.0006986124524554029
3.345,0.006917199873730717,77.55432766935884,0,60,3.0,2,0.0012782981025609656
3.35,0.01004859748264829,77.5969322368778,0,60,3.0,2,0.0022807585147718865
3.355,0.013037082251128167,77.66856909864642,0,60,3.0,2,0.003966331732856829
3.36,0.01645163937690478,77.78564441251984,0,60,3.0,2,0.006721045000466909
3.365,0.020526639934696615,77.97155076923681,0,60,3.0,2,0.011095312217336789
3.37,0.02539629541761738,78.2582808201053,0,60,3.0,2,0.017841901649536432
3.375,0.031171612185577933,78.68766052792253,0,60,3.0,2,0.027944953598177214
3.38,0.03795853426638131,79.31171075246023,0,60,3.0,2,0.04262848829318186
3.385,0.0458588961882057,80.19154347445966,0,60,3.0,2,0.06333043469316856
3.39,0.054966995891435555,81.39419054317591,0,60,3.0,2,0.09162801278060964
3.395,0.06536491004445595,82.9869047835598,0,60,3.0,2,0.1291036419661128
3.4,0.07711726085088699,85.02880519220997,0,60,3.0,2,0.17714835746376406
3.405,0.09026570629555215,87.56025991780172,0,60,3.0,2,0.23671199806592272
3.41,0.10482339848670268,90.59105402879193,0,60,3.0,2,0.3080248006774572
3.415,0.12076968927580028,94.08904924277502,0,60,3.0,2,0.3903305704182357
3.42,0.13804539501007884,97.97153364558193,0,60,3.0,2,0.48168314460192774
3.425,0.15654895051787066,102.10159121830677,0,60,3.0,2,0.5788609698425121
3.43,0.17613378141900526,106.29144711748273,0,60,3.0,2,0.6774458145290054
3.435,0.19660720058055794,110.31382182199403,0,60,3.0,2,0.7720899252233888
3.44,0.21773108748496234,113.92095766616347,0,60,3.0,2,0.8569637097920817
3.445,0.23922453870058807,116.86941633089845,0,60,3.0,2,0.9263392077858458
3.45,0.2607685857914563,118.94734075580467,0,60,3.0,2,0.9752315471954041
3.455,0.2820129681603682,120.0,0,60,3.0,2,1.0
3.46,0.30258482867153996,119.94936806517826,0,60,3.0,2,0.9988086603571356
3.465,0.3220990771751686,118.80431883209974,0,60,3.0,2,0.9718663254611704
3.47,0.3401700499968971,116.65961054384493,0,60,3.0,2,0.9214026010316455
3.475,0.3564239911198326,113.6838413525704,0,60,3.0,2,0.8513845024134211
3.48,0.3705118017738417,110.09852371838782,0,60,3.0,2,0.7670240874914782
3.485,0.3821214567925213,106.15190294941635,0,60,3.0,2,0.6741624223392083
3.49,0.39098947374066967,102.09182171295444,0,60,3.0,2,0.5786310991283398
3.495,0.3969108472035567,98.14171008969322,0,60,3.0,2,0.48568729622807577
3.5,0.3997469255491936,94.48278858522536,0,60,3.0,2,0.39959502553471443
3.505,0.3994308076379137,91.24411073570738,0,60,3.0,2,0.32339084084017367
3.51,0.3959699661768434,88.50051791606685,0,60,3.0,2,0.2588357156721613
3.515,0.38944595408114946,86.27727400892925,0,60,3.0,2,0.20652409432774715
3.52,0.38001120995358023,84.55931872476093,0,60,3.0,2,0.1661016170531983
3.525,0.3678831374098315,83.3028005744429,0,60,3.0,2,0.13653648410453878
3.53,0.35333577933796634,82.44675842842192,0,60,3.0,2,0.1163943159628686
3.535,0.33668953221163944,81.9233555217599,0,60,3.0,2,0.10407895345317417
3.54,0.3182994390982644,81.6657405782961,0,60,3.0,2,0.09801742537167282
3.545,0.29854265738230645,81.61324823680155,0,60,3.0,2,0.0967823114541542
3.55,0.2778057157821067,81.71414190823803,0,60,3.0,2,0.09915628019383609
3.555,0.2564721553719815,81.92639917335062,0,60,3.0,2,0.10415056878472041
3.56,0.23491109433464996,82.21715152529522,0,60,3.0,2,0.1109918005951817
3.565,0.21346717185309805,82.56136080468661,0,60,3.0,2,0.11909084246321447
3.57,0.19245222055656455,82.94020128362216,0,60,3.0,2,0.12800473608522728
3.575,0.17213889801761392,83.33947177339249,0,60,3.0,2,0.13739933584452915
3.58,0.15275638501270183,83.74822470521731,0,60,3.0,2,0.14701705188746614
3.585,0.13448814019607322,84.1576901961562,0,60,3.0,2,0.1566515340272046
3.59,0.11747159495449566,84.56049942906901,0,60,3.0,2,0.16612939833103557
3.595,0.10179958433370105,84.95017025612171,0,60,3.0,2,0.17529812367345196
3.6,0.08752324394101413,85.32080099438407,0,60,3.0,2,0.18401884692668405
3.605,0.07465606047174059,85.66691715781909,0,60,3.0,2,0.19216275665456672
3.61,0.0631787448609295,85.98342289070791,0,60,3.0,2,0.19960995036959797
3.615,0.05304460019959574,86.26561884786955,0,60,3.0,3,0.20624985524398934
3.62,0.044185078305849994,86.50925808244908,0,60,3.0,3,0.21198254311644893
3.625,0.03651525513023255,86.71061970560895,0,60,3.0,3,0.21672046366138703
3.63,0.0299390014708757,86.86658630913784,0,60,3.0,3,0.22039026609736104
3.635,0.024353677220580638,86.97471559675341,0,60,3.0,3,0.22293448462949206
3.64,0.01965423034339045,87.03329977142683,0,60,3.0,3,0.22431293579827827
3.645,0.015736632374757337,87.04140840180983,0,60,3.0,3,0.2245037271014078
3.65,0.012500627640593535,86.99891208474476,0,60,3.0,3,0.2235038137587002
3.655,0.009851811652115898,86.90648547061232,0,60,3.0,3,0.22132906989676057
3.66,0.007703084175428559,86.76558926724239,0,60,3.0,3,0.21801386511158566
3.665,0.005975544002062424,86.5784317591195,0,60,3.0,3,0.2136101590381058
3.67,0.004598905818663047,86.34791119812435,0,60,3.0,3,0.20818614583822
3.675,0.0035115256454839104,86.07754113966531,0,60,3.0,3,0.20182449740388975
3.68,0.002660121266303676,85.77136140052126,0,60,3.0,3,0.19462026824755901
3.685,0.0019992692560877024,85.43383778522907,0,60,3.0,3,0.18667853612303703
3.69,0.0014907520044639367,85.06975405182008,0,60,3.0,3,0.1781118600428255
3.695,0.0011028178277539807,84.68409975610096,0,60,3.0,3,0.16903764132002266
3.7,0.0008094059938923333,84.2819576246531,0,60,3.0,3,0.15957547352124948
3.705,0.0005893771793717645,83.86839396614698,0,60,3.0,3,0.14984456390934076
3.71,0.0004257792353490551,83.44835535165316,0,60,3.0,3,0.13996130239183913
3.715,0.0003051686392901525,83.02657439701731,0,60,3.0,3,0.13003704463570148
3.72,0.00021699992642659966,82.6074869887465,0,60,3.0,3,0.12017616444109415
3.725,0.00015308884054097838,82.19516273734413,0,60,3.0,3,0.11047441734927374
3.73,0.00010714989329311098,81.7932498483948,0,60,3.0,3,0.1010176434916422
3.735,7.440535854020571e-05,81.40493500158567,0,60,3.0,3,0.09188082356672166
3.74,5.1260276743925106e-05,81.03291824914021,0,60,3.0,3,0.08312748821506374
3.745,3.503659887882241e-05,80.6794024125245,0,60,3.0,3,0.07480946852998814
3.75,2.375894748103639e-05,80.34609599014749,0,60,3.0,3,0.06696696447405857
3.755,1.5984413869232557e-05,80.03422820440662,0,60,3.0,3,0.05962889892721451
3.76,1.0669166579899869e-05,79.74457452363798,0,60,3.0,3,0.05281351820324657
3.765,7.06526633560511e-06,79.4774907976045,0,60,3.0,3,0.04652919523775301
3.77,4.641847214699205e-06,79.23295404316598,0,60,3.0,3,0.04077538925096412
3.775,3.025641074479182e-06,79.01060790415472,0,60,3.0,3,0.035543715391875876
3.78,1.9566278676921314e-06,78.80981087682954,0,60,3.0,3,0.030819079454812815
3.785,1.2553456560008793e-06,78.62968552729907,0,60,3.0,3,0.0265808359364488
3.79,7.990660428214668e-07,78.4691671158064,0,60,3.0,3,0.022803932136621168
3.795,5.046221251618276e-07,78.32705026967079,0,60,3.0,3,0.01946000634519511
3.8,3.1616527078858815e-07,78.2020325969465,0,60,3.0,3,0.01651841404579988
3.805,1.9652884407760343e-07,78.0927543922857,0,60,3.0,3,0.013947162171428197
3.81,1.2120002189836396e-07,77.99783384238104,0,60,3.0,3,0.011713737467789209
3.815,7.415549848886236e-08,77.91589737998032,0,60,3.0,3,0.009785820705419343
3.82,4.501406988770349e-08,77.84560505434425,0,60,3.0,3,0.008131883631629347
3.825,0.0,77.78567097606587,0,60,3.0,3,0.006721670025079367
3.83,0.0,77.73487905164139,0,60,3.0,3,0.0055265659209737805
3.835,0.0,77.69209434649721,0,60,3.0,3,0.004519866976405036
3.84,0.0,77.65627050466959,0,60,3.0,3,0.0036769530510492344
3.845,0.0,77.62645371089663,0,60,3.0,3,0.0029753814328618024
3.85,0.0,77.60178370962433,0,60,3.0,3,0.0023949108146900794
3.855,0.0,77.58149239927823,0,60,3.0,3,0.0019174682183113552
3.86,0.0,77.5649005035173,0,60,3.0,3,0.001527070670995138
3.865,0.0,77.55141278863067,0,60,3.0,3,0.001209712673662847
3.87,0.0,77.5405122522104,0,60,3.0,3,0.0009532294637742379
3.875,0.0,77.53175365686594,0,60,3.0,3,0.0007471448674339974
3.88,0.0,77.5247567276939,0,60,3.0,3,0.0005825112398564242
3.885,0.0,77.51919927656837,0,60,3.0,3,0.0004517476839616981
3.89,0.0,77.51481046255032,0,60,3.0,3,0.0003484814717721212
3.895,0.0,77.51136434769356,0,60,3.0,3,0.0002673964163190088
3.9,0.0,77.50867386254117,0,60,3.0,3,0.00020409088332170916
3.905,0.0,77.50658525642717,0,60,3.0,3,0.0001549472100511112
3.91,0.0,77.50497307465665,0,60,3.0,3,0.00011701352133286491
3.915,0.0,77.50373567769842,0,60,3.0,3,8.78982987862454e-05
3.92,0.0,77.50279129638474,0,60,3.0,3,6.567756199394674e-05
3.925,0.0,77.50207460126839,0,60,3.0,3,4.88141474915317e-05
3.93,0.0,77.50153375311476,0,60,3.0,3,3.608830858250739e-05
3.935,0.0,77.50112789431837,0,60,3.0,3,2.653868984406044e-05
3.94,0.0,77.50082503712781,0,60,3.0,3,1.9412638301432976e-05
3.945,0.0,77.50060030327039,0,60,3.0,3,1.4124782832676133e-05
3.95,0.0,77.50043447026465,0,60,3.0,3,1.022282975648469e-05
3.955,0.0,77.50031278184728,0,60,3.0,3,7.35957287728899e-06
3.96,0.0,77.50022398305025,0,60,3.0,3,5.270189417588507e-06
3.965,0.0,77.50015954415629,0,60,3.0,3,3.753980147995903e-06
3.97,0.0,77.50011304172635,0,60,3.0,3,2.659805325907548e-06
3.975,0.0,77.50007966889501,0,60,3.0,3,1.8745622355709203e-06
3.98,0.0,77.50005585099808,0,60,3.0,3,1.3141411313079194e-06
3.985,0.0,77.50003894621133,0,60,3.0,3,9.163814431357263e-07
3.99,0.0,77.50002701416986,0,60,3.0,3,6.356275261008276e-07
3.995,0.0,77.50001863846614,0,60,3.0,3,4.3855214458102745e-07
4.0,0.001684486749771458,77.50001279148142,0,60,3.0,3,3.00976033512972e-07
4.005,0.003097557930867117,77.50000873219956,0,60,3.0,3,2.0546351907689635e-07
4.01,0.005475106668887023,77.5000059295071,0,60,3.0,3,1.3951781404423802e-07
4.015,0.00930222931468658,77.50000400502901,0,60,3.0,3,9.42359767631227e-08
4.02,0.01519157517868857,77.50000269082139,0,60,3.0,3,6.331344446366797e-08
4.025,0.023847336626128316,77.50000179827543,0,60,3.0,3,4.231236316092477e-08
4.03,0.0359830743700859,77.5000011954177,0,60,3.0,3,2.8127475188204484e-08
4.035,0.05218887796857759,77.50000079045161,0,60,3.0,3,1.8598861368659796e-08
4.04,0.0727577001223134,77.50000051990384,0,60,3.0,3,1.2233031424436965e-08
4.045,0.0974992498694751,77.50000034014406,0,60,3.0,3,8.003389532806229e-09
4.05,0.12558706050443358,77.50000022135784,0,60,3.0,3,5.208419692922582e-09
4.055,0.15549263588878245,77.50000014329103,0,60,3.0,3,3.3715537028911058e-09
4.06,0.1850529723539114,77.50000009226464,0,60,3.0,3,2.170932756438132e-09
4.065,0.21169159439317053,77.50000005909403,0,60,3.0,3,1.3904478718733812e-09
4.07,0.23277292922115492,77.5000000376482,0,60,3.0,3,8.858401489466333e-10
4.075,0.24602692519491282,77.50000002385815,0,60,3.0,3,5.613682172706296e-10
4.08,0.24995056064839283,77.50000001503909,0,60,3.0,3,3.538609823461978e-10
4.085,0.24408826520424054,77.50000000942971,0,60,3.0,3,2.2187557934718345e-10
4.09,0.22911894216865275,77.50000000588122,0,60,3.0,3,1.3838162511306377e-10
4.095,0.20672661788705934,77.50000000364862,0,60,3.0,3,8.58499467593741e-11
4.1,0.17928878030241233,77.50000000225155,0,60,3.0,3,5.297773200522095e-11
4.105,0.14946211903866036,77.50000000138206,0,60,3.0,3,3.25191168111119e-11
4.11,0.1197651512573837,77.50000000084385,0,60,3.0,3,1.985540620808024e-11
4.115,0.09224675744988023,77.5000000005125,0,60,3.0,3,1.2058829751742238e-11
4.12,0.06829565320281596,77.50000000030961,0,60,3.0,3,7.28498568659073e-12
4.125,0.04860224607515734,77.50000000018605,0,60,3.0,3,4.377611998386462e-12
4.13,0.03324612389699793,77.50000000011121,0,60,3.0,3,2.6168035059099033e-12
4.135,0.021859876340472782,77.50000000006612,0,60,3.0,3,1.5558378115255276e-12
4.14,0.01381595518554205,77.50000000003911,0,60,3.0,3,9.20194639440845e-13
4.145,0.008394095110402422,77.50000000002301,0,60,3.0,3,5.413499713861657e-13
4.15,0.0049052535271608,77.50000000001346,0,60,3.0,3,3.1665128035991287e-13
4.155,0.0027671663551903634,77.50000000000783,0,60,3.0,3,1.8423955171944245e-13
4.16,0.0015425553464444616,77.50000000000453,0,60,3.0,3,1.0666500362704563e-13
4.165,0.0009638206637011801,77.50000000000261,0,60,3.0,3,6.152464159052161e-14
4.17,0.0009804935156568228,77.50000000000149,0,60,3.0,3,3.510917047285201e-14
4.175,0.0018793744894085216,77.50000000000085,0,60,3.0,3,2.0062383127344007e-14
4.18,0.004535525206900863,77.50000000000048,0,60,3.0,3,1.1368683772161604e-14
4.185,0.010832767979632273,77.50000000000027,0,60,3.0,3,6.353087990325602e-15
4.19,0.024208003392322392,77.50000000000016,0,60,3.0,3,3.678103573346401e-15
4.195,0.0500971897335304,77.50000000000009,0,60,3.0,3,2.0062383127344005e-15
4.2,0.09582894921774403,77.50000000000004,0,60,3.0,3,1.0031191563672002e-15
4.205,0.16937896721820658,77.50000000000003,0,60,3.0,3,6.687461042448002e-16
4.21,0.27661303008991756,77.50000000000001,0,60,3.0,3,3.343730521224001e-16
4.215,0.4173782800009149,77.50000000000001,0,60,3.0,3,3.343730521224001e-16
4.22,0.5818720934538056,77.5,0,60,3.0,3,0.0
4.225,0.7494718801585675,77.5,0,60,3.0,3,0.0
4.23,0.891813020752378,77.5,0,60,3.0,3,0.0
4.235,0.9800361632936612,77.5,0,60,3.0,3,0.0
4.24,0.993574479225126,77.50000249206059,1,60,3.0,3,5.8636719720251515e-08
4.245,0.9263438449375362,77.50000388649308,0,60,3.0,3,9.144689590143303e-08
4.25,0.7873015962290536,77.50000620174501,0,60,3.0,3,1.4592341197866892e-07
4.255,0.5959516244629897,77.50001024868433,0,60,3.0,3,2.411455137221577e-07
4.26,0.376910120078773,77.50001773713392,0,60,3.0,3,4.1734432744199103e-07
4.265,0.15739335672107918,77.50003234050088,0,60,3.0,3,7.609529618816047e-07
4.27,-0.033361226269301235,77.50006196542242,0,60,3.0,3,1.4580099392493568e-06
4.275,-0.1680180840843834,77.50012345839556,0,60,3.0,3,2.9049034250259437e-06
4.28,-0.23069703190837854,77.50025207253846,0,60,3.0,3,5.93111855196452e-06
4.285,-0.22587267821131068,77.50051989833095,0,60,3.0,3,1.2232901904700852e-05
4.29,-0.17718181630665902,77.50107053879677,0,60,3.0,3,2.5189148159236486e-05
4.295,-0.11494332516451301,77.50218205581817,0,60,3.0,3,5.134248983923124e-05
4.3,-0.061810214049552864,77.50437705138005,0,60,3.0,3,0.00010298944423639382
4.305,-0.026546104631500547,77.50860779491533,0,60,3.0,3,0.00020253635094905697
4.31,-0.00719600351942686,77.5165549676137,0,60,3.0,3,0.00038952864973412836
4.315,0.0022072757983807078,77.53108897869964,0,60,3.0,3,0.0007315053811680627
4.32,0.006917199873730717,77.55694911283238,0,60,3.0,3,0.0013399791254678748
4.325,0.01004859748264829,77.60169183598806,0,60,3.0,3,0.0023927490820720805
4.33,0.013037082251128167,77.67693707547176,0,60,3.0,3,0.0041632253052177794
4.335,0.01645163937690478,77.7998909378598,0,60,3.0,3,0.0070562573614070595
4.34,0.020526639934696615,77.99503777956711,0,60,3.0,3,0.011647947754520306
4.345,0.02539629541761738,78.29577278054447,0,60,3.0,3,0.01872406542457571
4.35,0.031171612185577933,78.74559890656192,0,60,3.0,3,0.029308209566162906
4.355,0.03795853426638131,79.39836652237483,0,60,3.0,3,0.04466744758529009
4.36,0.0458588961882057,80.3169349302758,0,60,3.0,3,0.0662808218888425
4.365,0.054966995891435555,81.56964085920548,0,60,3.0,3,0.09575625551071713
4.37,0.06536491004445595,83.22412774219025,0,60,3.0,3,0.13468535863977055
4.375,0.07711726085088699,85.33845947360807,0,60,3.0,3,0.18443434055548397
4.38,0.09026570629555215,87.95000681664004,0,60,3.0,3,0.24588251333270686
4.385,0.10482339848670268,91.06328339863445,0,60,3.0,3,0.3191360799678695
4.39,0.12076968927580028,94.63858211835603,0,60,3.0,3,0.40326075572602416
4.395,0.13804539501007884,98.5837320054619,0,60,3.0,3,0.4960878118932211
4.4,0.15654895051787066,102.75136341377669,0,60,3.0,3,0.5941497273829809
4.405,0.17613378141900526,106.94359409913197,0,60,3.0,3,0.6927904493913405
4.41,0.19660720058055794,110.92500582405262,0,60,3.0,3,0.7864707252718264
4.415,0.21773108748496234,114.44330342499879,0,60,3.0,3,0.8692541982352656
4.42,0.23922453870058807,117.25542188596262,0,60,3.0,3,0.9354216914344146
4.425,0.2607685857914563,119.15545481965574,0,60,3.0,3,0.9801283486977822
4.43,0.2820129681603682,120.0,0,60,3.0,3,1.0
4.435,0.30258482867153996,119.72661680769721,0,60,3.0,3,0.9935674542987579
4.44,0.3220990771751686,118.36212003966133,0,60,3.0,3,0.9614616479920314
4.445,0.3401700499968971,116.0192046826335,0,60,3.0,3,0.9063342278266706
4.45,0.3564239911198326,112.88201428084409,0,60,3.0,3,0.8325179830786844
4.455,0.3705118017738417,109.18324133098602,0,60,3.0,3,0.7454880313173181
4.46,0.3821214567925213,105.17673159742563,0,60,3.0,3,0.6512172140570737
4.465,0.39098947374066967,101.1100694710858,0,60,3.0,3,0.5555310463784893
4.47,0.3969108472035567,97.20119773854125,0,60,3.0,3,0.46355759384802947
4.475,0.3997469255491936,93.62195394509827,0,60,3.0,3,0.37934009282584163
4.48,0.3994308076379137,90.48983035382798,0,60,3.0,3,0.3056430671488937
4.485,0.3959699661768434,87.86768093596174,0,60,3.0,3,0.24394543378733516
4.49,0.38944595408114946,85.76984429058865,0,60,3.0,3,0.19458457154326236
4.495,0.38001120995358023,84.17242779702583,0,60,3.0,3,0.15699830110649018
4.5,0.3678831374098315,83.02534578800257,0,60,3.0,3,0.1300081361882957
4.505,0.35333577933796634,82.26402464586049,0,60,3.0,3,0.11209469754965853
4.51,0.33668953221163944,81.8192991437891,0,60,3.0,3,0.10163056808915519
4.515,0.3182994390982644,81.62472762003841,0,60,3.0,3,0.09705241458913914
4.52,0.29854265738230645,81.62118407871675,0,60,3.0,3,0.09696903714627651
4.525,0.2778057157821067,81.75904264873614,0,60,3.0,3,0.10021276820555626
4.53,0.2564721553719815,81.9985219925281,0,60,3.0,3,0.10584757629477876
4.535,0.23491109433464996,82.30882611113378,0,60,3.0,3,0.11314884967373606
4.54,0.21346717185309805,82.66665602002601,0,60,3.0,3,0.12156837694178849
4.545,0.19245222055656455,83.05453424588724,0,60,3.0,3,0.13069492343264094
4.55,0.17213889801761392,83.45923266320771,0,60,3.0,3,0.14021723913429918
4.555,0.15275638501270183,83.87045877227034,0,60,3.0,3,0.1498931475828315
4.56,0.13448814019607322,84.2798534333411,0,60,3.0,3,0.15952596313743772
4.565,0.11747159495449566,84.68028767641711,0,60,3.0,3,0.16894794532746138
4.57,0.10179958433370105,85.06541226325399,0,60,3.0,3,0.1780097003118586
4.575,0.08752324394101413,85.42940233018484,0,60,3.0,3,0.18657417247493746
4.58,0.07465606047174059,85.76684174356433,0,60,3.0,3,0.19451392337798418
4.585,0.0631787448609295,86.07270061918209,0,60,3.0,3,0.20171060280428438
4.59,0.05304460019959574,86.34237003707361,0,60,3.0,3,0.20805576557820252
4.595,0.044185078305849994,86.57172770912837,0,60,3.0,3,0.21345241668537335
4.6,0.03651525513023255,86.75721616923929,0,60,3.0,3,0.21781685104092435
4.605,0.0299390014708757,86.89592083331073,0,60,3.0,3,0.2210804901955465
4.61,0.024353677220580638,86.98563934776703,0,60,3.0,3,0.22319151406510668
4.615,0.01965423034339045,87.02493647066403,0,60,3.0,3,0.22411615225091838
4.62,0.015736632374757337,87.01318073228062,0,60,3.0,3,0.22383954664189687
4.625,0.012500627640593535,86.95056062220486,0,60,3.0,3,0.2223661322871732
4.63,0.009851811652115898,86.83807925732597,0,60,3.0,3,0.2197195119370817
4.635,0.007703084175428559,86.67752751899921,0,60,3.0,3,0.21594182397645206
4.64,0.005975544002062424,86.47143656288762,0,60,3.0,3,0.21109262500912043
4.645,0.004598905818663047,86.22301141626089,0,60,3.0,3,0.20524732744143268
4.65,0.0035115256454839104,85.9360480776319,0,60,3.0,3,0.19849524888545636
4.655,0.002660121266303676,85.61483710619105,0,60,3.0,3,0.19093734367508344
4.66,0.0019992692560877024,85.26405711630112,0,60,3.0,3,0.18268369685414393
4.665,0.0014907520044639367,84.88866186212869,0,60,3.0,3,0.17385086734420438
4.67,0.0011028178277539807,84.49376470286529,0,60,3.0,3,0.16455916947918334
4.675,0.0008094059938923333,84.08452418143106,0,60,3.0,3,0.15492998073955444
4.68,0.0005893771793717645,83.66603423862483,0,60,3.0,3,0.1450831585558784
4.685,0.0004257792353490551,83.24322223736209,0,60,3.0,3,0.135134640879108
4.69,0.0003051686392901525,82.82075751109831,0,60,3.0,3,0.1251942943787837
4.695,0.00021699992642659966,82.40297260454615,0,60,3.0,3,0.11536406128343883
4.7,0.00015308884054097838,81.9937987739174,0,60,3.0,3,0.10573644173923305
4.705,0.00010714989329311098,81.5967166896027,0,60,3.0,3,0.09639333387300472
4.71,7.440535854020571e-05,81.21472266694637,0,60,3.0,3,0.08740523922226758
4.715,5.1260276743925106e-05,80.85031016848625,0,60,3.0,3,0.07883082749379401
4.72,3.503659887882241e-05,80.50546579764779,0,60,3.0,3,0.07071684229759499
4.725,2.375894748103639e-05,80.18167855835483,0,60,3.0,3,0.0630983190201137
4.73,1.5984413869232557e-05,79.87996080067171,0,60,3.0,3,0.055999077662863786
4.735,1.0669166579899869e-05,79.60087901688703,0,60,3.0,3,0.049432447456165526
4.74,7.06526633560511e-06,79.34459249714048,0,60,3.0,3,0.04340217640330546
4.745,4.641847214699205e-06,79.1108977952886,0,60,3.0,3,0.037903477536202206
4.75,3.025641074479182e-06,78.8992769862145,0,60,3.0,3,0.032924164381517705
4.755,1.9566278676921314e-06,78.70894780365752,0,60,3.0,3,0.028445830674294657
4.76,1.2553456560008793e-06,78.53891391879662,0,60,3.0,3,0.024445033383449968
4.765,7.990660428214668e-07,78.38801383874541,0,60,3.0,3,0.02089444326459784
4.77,5.046221251618276e-07,78.25496715486534,0,60,3.0,3,0.017763933055655077
4.775,3.1616527078858815e-07,78.13841713794321,0,60,3.0,3,0.015021579716310766
4.78,1.9652884407760343e-07,78.03696894665431,0,60,3.0,3,0.012634563450689699
4.785,1.2120002189836396e-07,77.94922297505981,0,60,3.0,3,0.010569952354348502
4.79,7.415549848886236e-08,77.8738031041554,0,60,3.0,3,0.008795367156597636
4.795,4.501406988770349e-08,77.8093798341656,0,60,3.0,3,0.007279525509778751
4.8,0.0,77.75468845334072,0,60,3.0,3,0.005992669490369869
4.805,0.0,77.7085425428285,0,60,3.0,3,0.004906883360670503
4.81,0.0,77.6698432252712,0,60,3.0,3,0.003996311182851621
4.815,0.0,77.63758463845281,0,60,3.0,3,0.0032372856106542927
4.82,0.0,77.6108561573609,0,60,3.0,4,0.002608380173197635
4.825,0.0,77.5888419022451,0,60,3.0,4,0.002090397699884547
4.83,0.0,77.5708180611178,0,60,3.0,4,0.0016663073204189432
4.835,0.0,77.55614852741415,0,60,3.0,4,0.0013211418215094534
4.84,0.0,77.54427931196614,0,60,3.0,4,0.001041866163909082
4.845,0.0,77.53473213754465,0,60,3.0,4,0.000817226765756499
4.85,0.0,77.52709756803894,0,60,3.0,4,0.0006375898362103485
4.855,0.0,77.52102796635984,0,60,3.0,4,0.0004947756790550236
4.86,0.0,77.5162305182252,0,60,3.0,4,0.0003818945464752901
4.865,0.0,77.51246050531307,0,60,3.0,4,0.0002931883603075809
4.87,0.0,77.50951496242737,0,60,3.0,4,0.00022388146887939966
4.875,0.0,77.50722681031257,0,60,3.0,4,0.0001700425955899685
4.88,0.0,77.50545951908494,0,60,3.0,4,0.00012845927258675093
4.885,0.0,77.50410232700878,0,60,3.0,4,9.652534138307173e-05
4.89,0.0,77.50306601530963,0,60,3.0,4,7.214153669712473e-05
4.895,0.0,77.50227922141525,0,60,3.0,4,5.362873918235945e-05
4.9,0.0,77.50168525983179,0,60,3.0,4,3.965317251266456e-05
4.905,0.0,77.50123941108798,0,60,3.0,4,2.916261383481523e-05
4.91,0.0,77.50090663407934,0,60,3.0,4,2.1332566572763266e-05
4.915,0.0,77.5006596549978,0,60,3.0,4,1.5521294065980756e-05
4.92,0.0,77.50047738616604,0,60,3.0,4,1.1232615671521189e-05
4.925,0.0,77.50034362990894,0,60,3.0,4,8.085409622120043e-06
4.93,0.0,77.50024602556587,0,60,3.0,4,5.788836844043116e-06
4.935,0.0,77.50017520144215,0,60,3.0,4,4.122386874047044e-06
4.94,0.0,77.50012409756755,0,60,3.0,4,2.919942765883581e-06
4.945,0.0,77.500087429303,0,60,3.0,4,2.057160070441622e-06
4.95,0.0,77.50006126591418,0,60,3.0,4,1.4415509219682409e-06
4.955,0.0,77.50004270207464,0,60,3.0,4,1.004754697345668e-06
4.96,0.0,77.50002960378131,0,60,3.0,4,6.96559560337311e-07
4.965,0.0,77.5000204133158,0,60,3.0,4,4.803133128247924e-07
4.97,0.001684486749771458,77.50001400064605,0,60,3.0,4,3.294269658106393e-07
4.975,0.003097557930867117,77.50000955104196,0,60,3.0,4,2.247303989540395e-07
4.98,0.005475106668887023,77.50000648069503,0,60,3.0,4,1.5248694199619744e-07
4.985,0.00930222931468658,77.50000437381664,0,60,3.0,4,1.0291333263226346e-07
4.99,0.01519157517868857,77.50000293607884,0,60,3.0,4,6.908420807442727e-08
4.995,0.023847336626128316,77.5000019603924,0,60,3.0,4,4.6126879905226385e-08
5.0,0.0359830743700859,77.50000130192649,0,60,3.0,4,3.063356443282614e-08
5.005,0.05218887796857759,77.50000085999925,0,60,3.0,4,2.0235276398285778e-08
5.01,0.0727577001223134,77.50000056503822,0,60,3.0,4,1.3295016956630313e-08
5.015,0.0974992498694751,77.50000036925445,0,60,3.0,4,8.688340023902984e-09
5.02,0.12558706050443358,77.5000002400169,0,60,3.0,4,5.6474565259550755e-09
5.025,0.15549263588878245,77.50000015517654,0,60,3.0,4,3.6512126237486133e-09
5.03,0.1850529723539114,77.50000009978802,0,60,3.0,4,2.347953528335304e-09
5.035,0.21169159439317053,77.50000006382619,0,60,3.0,4,1.5017927607379319e-09
5.04,0.23277292922115492,77.50000004060576,0,60,3.0,4,9.55429534181295e-10
5.045,0.24602692519491282,77.50000002569476,0,60,3.0,4,6.045825905269286e-10
5.05,0.24995056064839283,77.50000001617221,0,60,3.0,4,3.805225520302295e-10
5.055,0.24408826520424054,77.50000001012424,0,60,3.0,4,2.382173935235615e-10
5.06,0.22911894216865275,77.5000000063041,0,60,3.0,4,1.4833189839812215e-10
5.065,0.20672661788705934,77.50000000390439,0,60,3.0,4,9.186799295147306e-11
5.07,0.17928878030241233,77.5000000024052,0,60,3.0,4,5.659297344476834e-11
5.075,0.14946211903866036,77.50000000147372,0,60,3.0,4,3.467582299730138e-11
5.08,0.1197651512573837,77.50000000089815,0,60,3.0,4,2.113304564023993e-11
5.085,0.09224675744988023,77.50000000054445,0,60,3.0,4,1.2810500372913393e-11
5.09,0.06829565320281596,77.50000000032826,0,60,3.0,4,7.72368313097532e-12
5.095,0.04860224607515734,77.50000000019686,0,60,3.0,4,4.632069891051608e-12
5.1,0.03324612389699793,77.50000000011742,0,60,3.0,4,2.762924529687392e-12
5.105,0.021859876340472782,77.50000000006968,0,60,3.0,4,1.6394310745561276e-12
5.11,0.01381595518554205,77.50000000004111,0,60,3.0,4,9.673412397901036e-13
5.115,0.008394095110402422,77.50000000002413,0,60,3.0,4,5.677654425038354e-13
5.12,0.0049052535271608,77.50000000001408,0,60,3.0,4,3.3136369465329847e-13
5.125,0.0027671663551903634,77.50000000000819,0,60,3.0,4,1.9259887802250245e-13
5.13,0.0015425553464444616,77.50000000000472,0,60,3.0,4,1.1101185330463683e-13
5.135,0.0009638206637011801,77.50000000000271,0,60,3.0,4,6.386525295537842e-14
5.14,0.0009804935156568228,77.50000000000155,0,60,3.0,4,3.644666268134161e-14
5.145,0.0018793744894085216,77.50000000000088,0,60,3.0,4,2.0731129231588804e-14
5.15,0.004535525206900863,77.5000000000005,0,60,3.0,4,1.1703056824284003e-14
5.155,0.010832767979632273,77.50000000000028,0,60,3.0,4,6.687461042448002e-15
5.16,0.024208003392322392,77.50000000000016,0,60,3.0,4,3.678103573346401e-15
5.165,0.0500971897335304,77.50000000000009,0,60,3.0,4,2.0062383127344005e-15
5.17,0.09582894921774403,77.50000000000004,0,60,3.0,4,1.0031191563672002e-15
5.175,0.16937896721820658,77.50000000000003,0,60,3.0,4,6.687461042448002e-16
5.18,0.27661303008991756,77.50000000000001,0,60,3.0,4,3.343730521224001e-16
5.185,0.4173782800009149,77.50000000000001,0,60,3.0,4,3.343730521224001e-16
5.19,0.5818720934538056,77.5,0,60,3.0,4,0.0
5.195,0.7494718801585675,77.5,0,60,3.0,4,0.0
5.2,0.891813020752378,77.5,0,60,3.0,4,0.0
5.205,0.9800361632936612,77.5,0,60,3.0,4,0.0
5.21,0.993574479225126,77.5000024966485,1,60,3.0,4,5.874467072263702e-08
5.215,0.9263438449375362,77.50000388454893,0,60,3.0,4,9.140115132729132e-08
5.22,0.7873015962290536,77.50000618232913,0,60,3.0,4,1.454665677743726e-07
5.225,0.5959516244629897,77.5000101847726,0,60,3.0,4,2.396417083700191e-07
5.23,0.376910120078773,77.50001756083037,0,60,3.0,4,4.1319600875474007e-07
5.235,0.15739335672107918,77.50003188149957,0,60,3.0,4,7.501529309780274e-07
5.24,-0.033361226269301235,77.50006080365405,0,60,3.0,4,1.4306742129707239e-06
5.245,-0.1680180840843834,77.50012058486693,0,60,3.0,4,2.8372909866902773e-06
5.25,-0.23069703190837854,77.50024513995355,0,60,3.0,4,5.7679989070306076e-06
5.255,-0.22587267821131068,77.50050363241509,0,60,3.0,4,1.1850174472690068e-05
5.26,-0.17718181630665902,77.50103350758017,0,60,3.0,4,2.4317825415878626e-05
5.265,-0.11494332516451301,77.50210036935763,0,60,3.0,4,4.942045547375742e-05
5.27,-0.061810214049552864,77.50420258594323,0,60,3.0,4,9.888437513489087e-05
5.275,-0.026546104631500547,77.50824711533218,0,60,3.0,4,0.00019404977252192754
5.28,-0.00719600351942686,77.51583324529174,0,60,3.0,4,0.0003725469480410565
5.285,0.0022072757983807078,77.52969102922935,0,60,3.0,4,0.0006986124524554029
5.29,0.006917199873730717,77.55432766935884,0,60,3.0,4,0.0012782981025609656
5.295,0.01004859748264829,77.5969322368778,0,60,3.0,4,0.0022807585147718865
5.3,0.013037082251128167,77.66856909864642,0,60,3.0,4,0.003966331732856829
5.305,0.01645163937690478,77.78564441251984,0,60,3.0,4,0.006721045000466909
5.31,0.020526639934696615,77.97155076923681,0,60,3.0,4,0.011095312217336789
5.315,0.02539629541761738,78.2582808201053,0,60,3.0,4,0.017841901649536432
5.32,0.031171612185577933,78.68766052792253,0,60,3.0,4,0.027944953598177214
5.325,0.03795853426638131,79.31171075246023,0,60,3.0,4,0.04262848829318186
5.33,0.0458588961882057,80.19154347445966,0,60,3.0,4,0.06333043469316856
5.335,0.054966995891435555,81.39419054317591,0,60,3.0,4,0.09162801278060964
5.34,0.06536491004445595,82.9869047835598,0,60,3.0,4,0.1291036419661128
5.345,0.07711726085088699,85.02880519220997,0,60,3.0,4,0.17714835746376406
5.35,0.09026570629555215,87.56025991780172,0,60,3.0,4,0.23671199806592272
5.355,0.10482339848670268,90.59105402879193,0,60,3.0,4,0.3080248006774572
5.36,0.12076968927580028,94.08904924277502,0,60,3.0,4,0.3903305704182357
5.365,0.13804539501007884,97.97153364558193,0,60,3.0,4,0.48168314460192774
5.37,0.15654895051787066,102.10159121830677,0,60,3.0,4,0.5788609698425121
5.375,0.17613378141900526,106.29144711748273,0,60,3.0,4,0.6774458145290054
5.38,0.19660720058055794,110.31382182199403,0,60,3.0,4,0.7720899252233888
5.385,0.21773108748496234,113.92095766616347,0,60,3.0,4,0.8569637097920817
5.39,0.23922453870058807,116.86941633089845,0,60,3.0,4,0.9263392077858458
5.395,0.2607685857914563,118.94734075580467,0,60,3.0,4,0.9752315471954041
5.4,0.2820129681603682,120.0,0,60,3.0,4,1.0
5.405,0.30258482867153996,119.94936806517826,0,60,3.0,4,0.9988086603571356
5.41,0.3220990771751686,118.80431883209974,0,60,3.0,4,0.9718663254611704
5.415,0.3401700499968971,116.65961054384493,0,60,3.0,4,0.9214026010316455
5.42,0.3564239911198326,113.6838413525704,0,60,3.0,4,0.8513845024134211
5.425,0.3705118017738417,110.09852371838782,0,60,3.0,4,0.7670240874914782
5.43,0.3821214567925213,106.15190294941635,0,60,3.0,4,0.6741624223392083
5.435,0.39098947374066967,102.09182171295444,0,60,3.0,4,0.5786310991283398
5.44,0.3969108472035567,98.14171008969322,0,60,3.0,4,0.48568729622807577
5.445,0.3997469255491936,94.48278858522536,0,60,3.0,4,0.39959502553471443
5.45,0.3994308076379137,91.24411073570738,0,60,3.0,4,0.32339084084017367
5.455,0.3959699661768434,88.50051791606685,0,60,3.0,4,0.2588357156721613
5.46,0.38944595408114946,86.27727400892925,0,60,3.0,4,0.20652409432774715
5.465,0.38001120995358023,84.55931872476093,0,60,3.0,4,0.1661016170531983
5.47,0.3678831374098315,83.3028005744429,0,60,3.0,4,0.13653648410453878
5.475,0.35333577933796634,82.44675842842192,0,60,3.0,4,0.1163943159628686
5.48,0.33668953221163944,81.9233555217599,0,60,3.0,4,0.10407895345317417
5.485,0.3182994390982644,81.6657405782961,0,60,3.0,4,0.09801742537167282
5.49,0.29854265738230645,81.61324823680155,0,60,3.0,4,0.0967823114541542
5.495,0.2778057157821067,81.71414190823803,0,60,3.0,4,0.09915628019383609
5.5,0.2564721553719815,81.92639917335062,0,60,3.0,4,0.10415056878472041
5.505,0.23491109433464996,82.21715152529522,0,60,3.0,4,0.1109918005951817
5.51,0.21346717185309805,82.56136080468661,0,60,3.0,4,0.11909084246321447
5.515,0.19245222055656455,82.94020128362216,0,60,3.0,4,0.12800473608522728
5.52,0.17213889801761392,83.33947177339249,0,60,3.0,4,0.13739933584452915
5.525,0.15275638501270183,83.74822470521731,0,60,3.0,4,0.14701705188746614
5.53,0.13448814019607322,84.1576901961562,0,60,3.0,4,0.1566515340272046
5.535,0.11747159495449566,84.56049942906901,0,60,3.0,4,0.16612939833103557
5.54,0.10179958433370105,84.95017025612171,0,60,3.0,4,0.17529812367345196
5.545,0.08752324394101413,85.32080099438407,0,60,3.0,4,0.18401884692668405
5.55,0.07465606047174059,85.66691715781909,0,60,3.0,4,0.19216275665456672
5.555,0.0631787448609295,85.98342289070791,0,60,3.0,4,0.19960995036959797
5.56,0.05304460019959574,86.26561884786955,0,60,3.0,4,0.20624985524398934
5.565,0.044185078305849994,86.50925808244908,0,60,3.0,4,0.21198254311644893
5.57,0.03651525513023255,86.71061970560895,0,60,3.0,4,0.21672046366138703
5.575,0.0299390014708757,86.86658630913784,0,60,3.0,4,0.22039026609736104
5.58,0.024353677220580638,86.97471559675341,0,60,3.0,4,0.22293448462949206
5.585,0.01965423034339045,87.03329977142683,0,60,3.0,4,0.22431293579827827
5.59,0.015736632374757337,87.04140840180983,0,60,3.0,4,0.2245037271014078
5.595,0.012500627640593535,86.99891208474476,0,60,3.0,4,0.2235038137587002
5.6,0.009851811652115898,86.90648547061232,0,60,3.0,4,0.22132906989676057
5.605,0.007703084175428559,86.76558926724239,0,60,3.0,4,0.21801386511158566
5.61,0.005975544002062424,86.5784317591195,0,60,3.0,4,0.2136101590381058
5.615,0.004598905818663047,86.34791119812435,0,60,3.0,4,0.20818614583822
5.62,0.0035115256454839104,86.07754113966531,0,60,3.0,4,0.20182449740388975
5.625,0.002660121266303676,85.77136140052126,0,60,3.0,4,0.19462026824755901
5.63,0.0019992692560877024,85.43383778522907,0,60,3.0,4,0.18667853612303703
5.635,0.0014907520044639367,85.06975405182008,0,60,3.0,4,0.1781118600428255
5.64,0.0011028178277539807,84.68409975610096,0,60,3.0,4,0.16903764132002266
5.645,0.0008094059938923333,84.2819576246531,0,60,3.0,4,0.15957547352124948
5.65,0.0005893771793717645,83.86839396614698,0,60,3.0,4,0.14984456390934076
5.655,0.0004257792353490551,83.44835535165316,0,60,3.0,4,0.13996130239183913
5.66,0.0003051686392901525,83.02657439701731,0,60,3.0,4,0.13003704463570148
5.665,0.00021699992642659966,82.6074869887465,0,60,3.0,4,0.12017616444109415
5.67,0.00015308884054097838,82.19516273734413,0,60,3.0,4,0.11047441734927374
5.675,0.00010714989329311098,81.7932498483948,0,60,3.0,4,0.1010176434916422
5.68,7.440535854020571e-05,81.40493500158567,0,60,3.0,4,0.09188082356672166
5.685,5.1260276743925106e-05,81.03291824914021,0,60,3.0,4,0.08312748821506374
5.69,3.503659887882241e-05,80.6794024125245,0,60,3.0,4,0.07480946852998814
5.695,2.375894748103639e-05,80.34609599014749,0,60,3.0,4,0.06696696447405857
5.7,1.5984413869232557e-05,80.03422820440662,0,60,3.0,4,0.05962889892721451
5.705,1.0669166579899869e-05,79.74457452363798,0,60,3.0,4,0.05281351820324657
5.71,7.06526633560511e-06,79.4774907976045,0,60,3.0,4,0.04652919523775301
5.715,4.641847214699205e-06,79.23295404316598,0,60,3.0,4,0.04077538925096412
5.72,3.025641074479182e-06,79.01060790415472,0,60,3.0,4,0.035543715391875876
5.725,1.9566278676921314e-06,78.80981087682954,0,60,3.0,4,0.030819079454812815
5.73,1.2553456560008793e-06,78.62968552729907,0,60,3.0,4,0.0265808359364488
5.735,7.990660428214668e-07,78.4691671158064,0,60,3.0,4,0.022803932136621168
5.74,5.046221251618276e-07,78.32705026967079,0,60,3.0,4,0.01946000634519511
5.745,3.1616527078858815e-07,78.2020325969465,0,60,3.0,4,0.01651841404579988
5.75,1.9652884407760343e-07,78.0927543922857,0,60,3.0,4,0.013947162171428197
5.755,1.2120002189836396e-07,77.99783384238104,0,60,3.0,4,0.011713737467789209
5.76,7.415549848886236e-08,77.91589737998032,0,60,3.0,4,0.009785820705419343
5.765,4.501406988770349e-08,77.84560505434425,0,60,3.0,4,0.008131883631629347
5.77,0.0,77.78567097606587,0,60,3.0,4,0.006721670025079367
5.775,0.0,77.73487905164139,0,60,3.0,4,0.0055265659209737805
5.78,0.0,77.69209434649721,0,60,3.0,4,0.004519866976405036
5.785,0.0,77.65627050466959,0,60,3.0,4,0.0036769530510492344
5.79,0.0,77.62645371089663,0,60,3.0,4,0.0029753814328618024
5.795,0.0,77.60178370962433,0,60,3.0,4,0.0023949108146900794
5.8,0.0,77.58149239927823,0,60,3.0,4,0.0019174682183113552
5.805,0.0,77.5649005035173,0,60,3.0,4,0.001527070670995138
5.81,0.0,77.55141278863067,0,60,3.0,4,0.001209712673662847
5.815,0.0,77.5405122522104,0,60,3.0,4,0.0009532294637742379
5.82,0.0,77.53175365686594,0,60,3.0,4,0.0007471448674339974
5.825,0.0,77.5247567276939,0,60,3.0,4,0.0005825112398564242
5.83,0.0,77.51919927656837,0,60,3.0,4,0.0004517476839616981
5.835,0.0,77.51481046255032,0,60,3.0,4,0.0003484814717721212
5.84,0.0,77.51136434769356,0,60,3.0,4,0.0002673964163190088
5.845,0.0,77.50867386254117,0,60,3.0,4,0.00020409088332170916
5.85,0.0,77.50658525642717,0,60,3.0,4,0.0001549472100511112
5.855,0.0,77.50497307465665,0,60,3.0,4,0.00011701352133286491
5.86,0.0,77.50373567769842,0,60,3.0,4,8.78982987862454e-05
5.865,0.0,77.50279129638474,0,60,3.0,4,6.567756199394674e-05
5.87,0.0,77.50207460126839,0,60,3.0,4,4.88141474915317e-05
5.875,0.0,77.50153375311476,0,60,3.0,4,3.608830858250739e-05
5.88,0.0,77.50112789431837,0,60,3.0,4,2.653868984406044e-05
5.885,0.0,77.50082503712781,0,60,3.0,4,1.9412638301432976e-05
5.89,0.0,77.50060030327039,0,60,3.0,4,1.4124782832676133e-05
5.895,0.0,77.50043447026465,0,60,3.0,4,1.022282975648469e-05
5.9,0.0,77.50031278184728,0,60,3.0,4,7.35957287728899e-06
5.905,0.0,77.50022398305025,0,60,3.0,4,5.270189417588507e-06
5.91,0.0,77.50015954415629,0,60,3.0,4,3.753980147995903e-06
5.915,0.0,77.50011304172635,0,60,3.0,4,2.659805325907548e-06
5.92,0.0,77.50007966889501,0,60,3.0,4,1.8745622355709203e-06
5.925,0.0,77.50005585099808,0,60,3.0,4,1.3141411313079194e-06
5.93,0.0,77.50003894621133,0,60,3.0,4,9.163814431357263e-07
5.935,0.0,77.50002701416986,0,60,3.0,4,6.356275261008276e-07
5.94,0.0,77.50001863846614,0,60,3.0,4,4.3855214458102745e-07
5.945,0.001684486749771458,77.50001279148142,0,60,3.0,4,3.00976033512972e-07
5.95,0.003097557930867117,77.50000873219956,0,60,3.0,4,2.0546351907689635e-07
5.955,0.005475106668887023,77.5000059295071,0,60,3.0,4,1.3951781404423802e-07
5.96,0.00930222931468658,77.50000400502901,0,60,3.0,4,9.42359767631227e-08
5.965,0.01519157517868857,77.50000269082139,0,60,3.0,4,6.331344446366797e-08
5.97,0.023847336626128316,77.50000179827543,0,60,3.0,4,4.231236316092477e-08
5.975,0.0359830743700859,77.5000011954177,0,60,3.0,4,2.8127475188204484e-08
5.98,0.05218887796857759,77.50000079045161,0,60,3.0,4,1.8598861368659796e-08
5.985,0.0727577001223134,77.50000051990384,0,60,3.0,4,1.2233031424436965e-08
5.99,0.0974992498694751,77.50000034014406,0,60,3.0,4,8.003389532806229e-09
5.995,0.12558706050443358,77.50000022135784,0,60,3.0,4,5.208419692922582e-09
6.0,0.15549263588878245,77.50000014329103,0,60,3.0,4,3.3715537028911058e-09
6.005,0.1850529723539114,77.50000009226464,0,60,3.0,4,2.170932756438132e-09
6.01,0.21169159439317053,77.50000005909403,0,60,3.0,4,1.3904478718733812e-09
6.015,0.23277292922115492,77.5000000376482,0,60,3.0,4,8.858401489466333e-10
6.02,0.24602692519491282,77.50000002385815,0,60,3.0,4,5.613682172706296e-10
6.025,0.24995056064839283,77.50000001503909,0,60,3.0,5,3.538609823461978e-10
6.03,0.24408826520424054,77.50000000942971,0,60,3.0,5,2.2187557934718345e-10
6.035,0.22911894216865275,77.50000000588122,0,60,3.0,5,1.3838162511306377e-10
6.04,0.20672661788705934,77.50000000364862,0,60,3.0,5,8.58499467593741e-11
6.045,0.17928878030241233,77.50000000225155,0,60,3.0,5,5.297773200522095e-11
6.05,0.14946211903866036,77.50000000138206,0,60,3.0,5,3.25191168111119e-11
6.055,0.1197651512573837,77.50000000084385,0,60,3.0,5,1.985540620808024e-11
6.06,0.09224675744988023,77.5000000005125,0,60,3.0,5,1.2058829751742238e-11
6.065,0.06829565320281596,77.50000000030961,0,60,3.0,5,7.28498568659073e-12
6.07,0.04860224607515734,77.50000000018605,0,60,3.0,5,4.377611998386462e-12
6.075,0.03324612389699793,77.50000000011121,0,60,3.0,5,2.6168035059099033e-12
6.08,0.021859876340472782,77.50000000006612,0,60,3.0,5,1.5558378115255276e-12
6.085,0.01381595518554205,77.50000000003911,0,60,3.0,5,9.20194639440845e-13
6.09,0.008394095110402422,77.50000000002301,0,60,3.0,5,5.413499713861657e-13
6.095,0.0049052535271608,77.50000000001346,0,60,3.0,5,3.1665128035991287e-13
6.1,0.0027671663551903634,77.50000000000783,0,60,3.0,5,1.8423955171944245e-13
6.105,0.0015425553464444616,77.50000000000453,0,60,3.0,5,1.0666500362704563e-13
6.11,0.0009638206637011801,77.50000000000261,0,60,3.0,5,6.152464159052161e-14
6.115,0.0009804935156568228,77.50000000000149,0,60,3.0,5,3.510917047285201e-14
6.12,0.0018793744894085216,77.50000000000085,0,60,3.0,5,2.0062383127344007e-14
6.125,0.004535525206900863,77.50000000000048,0,60,3.0,5,1.1368683772161604e-14
6.13,0.010832767979632273,77.50000000000027,0,60,3.0,5,6.353087990325602e-15
6.135,0.024208003392322392,77.50000000000016,0,60,3.0,5,3.678103573346401e-15
6.14,0.0500971897335304,77.50000000000009,0,60,3.0,5,2.0062383127344005e-15
6.145,0.09582894921774403,77.50000000000004,0,60,3.0,5,1.0031191563672002e-15
6.15,0.16937896721820658,77.50000000000003,0,60,3.0,5,6.687461042448002e-16
6.155,0.27661303008991756,77.50000000000001,0,60,3.0,5,3.343730521224001e-16
6.16,0.4173782800009149,77.50000000000001,0,60,3.0,5,3.343730521224001e-16
6.165,0.5818720934538056,77.5,0,60,3.0,5,0.0
6.17,0.7494718801585675,77.5,0,60,3.0,5,0.0
6.175,0.891813020752378,77.5,0,60,3.0,5,0.0
6.18,0.9800361632936612,77.5,0,60,3.0,5,0.0
6.185,0.993574479225126,77.50000249379623,1,60,3.0,5,5.8677558372972485e-08
6.19,0.9263438449375362,77.5000037873591,0,60,3.0,5,8.911433189282167e-08
6.195,0.7873015962290536,77.50000586643203,0,60,3.0,5,1.3803369490554305e-07
6.2,0.5959516244629897,77.50000936112565,0,60,3.0,5,2.202617799733108e-07
6.205,0.376910120078773,77.50001553885947,0,60,3.0,5,3.656202228713108e-07
6.21,0.15739335672107918,77.5000269987902,0,60,3.0,5,6.352656518682873e-07
6.215,-0.033361226269301235,77.50004909538588,0,60,3.0,5,1.1551855500195362e-06
6.22,-0.1680180840843834,77.5000927881157,0,60,3.0,5,2.1832497810357704e-06
6.225,-0.23069703190837854,77.50018019691618,0,60,3.0,5,4.239927439437665e-06
6.23,-0.22587267821131068,77.50035512985896,0,60,3.0,5,8.355996681409712e-06
6.235,-0.17718181630665902,77.50070244716376,0,60,3.0,5,1.652816855907451e-05
6.24,-0.11494332516451301,77.50138258743117,0,60,3.0,5,3.253146896862049e-05
6.245,-0.061810214049552864,77.50269116678194,0,60,3.0,5,6.332157133984391e-05
6.25,-0.026546104631500547,77.50515844333034,0,60,3.0,5,0.00012137513718458007
6.255,-0.00719600351942686,77.50970954477438,0,60,3.0,5,0.00022845987704426187
6.26,0.0022072757983807078,77.5179131238936,0,60,3.0,5,0.00042148526808486006
6.265,0.006917199873730717,77.5323521823347,0,60,3.0,5,0.0007612278196401188
6.27,0.01004859748264829,77.55715374596484,0,60,3.0,5,0.0013447940227021102
6.275,0.013037082251128167,77.59871019466716,0,60,3.0,5,0.0023225928156979507
6.28,0.01645163937690478,77.66660957566988,0,60,3.0,5,0.00392022530987955
6.285,0.020526639934696615,77.77476004056273,0,60,3.0,5,0.006464942130887654
6.29,0.02539629541761738,77.94264063456316,0,60,3.0,5,0.01041507375442734
6.295,0.031171612185577933,78.1965363540429,0,60,3.0,5,0.016389090683362476
6.3,0.03795853426638131,78.57052498893353,0,60,3.0,5,0.025188823269024184
6.305,0.0458588961882057,79.10689048440082,0,60,3.0,5,0.03780918786825463
6.31,0.054966995891435555,79.85556550877875,0,60,3.0,5,0.05542507079479418
6.315,0.06536491004445595,80.87218550073672,0,60,3.0,5,0.07934554119380517
6.32,0.07711726085088699,82.21440106636989,0,60,3.0,5,0.1109270839145856
6.325,0.09026570629555215,83.93627195484723,0,60,3.0,5,0.1514416930552289
6.33,0.10482339848670268,86.08086244957394,0,60,3.0,5,0.20190264587232806
6.335,0.12076968927580028,88.67155390032357,0,60,3.0,5,0.2628600917723194
6.34,0.13804539501007884,91.70302829420208,0,60,3.0,5,0.33418890104004906
6.345,0.15654895051787066,95.13326660856461,0,60,3.0,5,0.41490039078975555
6.35,0.17613378141900526,98.87813714204108,0,60,3.0,5,0.5030149915774372
6.355,0.19660720058055794,102.81011793964564,0,60,3.0,5,0.5955321868151915
6.36,0.21773108748496234,106.76233734752944,0,60,3.0,5,0.6885255846477515
6.365,0.23922453870058807,110.53842825599659,0,60,3.0,5,0.7773747824940375
6.37,0.2607685857914563,113.92775900036906,0,60,3.0,5,0.8571237411851544
6.375,0.2820129681603682,116.72459033287774,0,60,3.0,5,0.9229315372441821
6.38,0.30258482867153996,118.74882595036786,0,60,3.0,5,0.9705606105968908
6.385,0.3220990771751686,119.8654865137496,0,60,3.0,5,0.9968349767941083
6.39,0.3401700499968971,120.0,0,60,3.0,5,1.0
6.395,0.3564239911198326,119.1469163744074,0,60,3.0,5,0.9799274441037035
6.4,0.3705118017738417,117.37064685570721,0,60,3.0,5,0.9381328671931107
6.405,0.3821214567925213,114.79810695801649,0,60,3.0,5,0.8776025166592115
6.41,0.39098947374066967,111.60444632346429,0,60,3.0,5,0.8024575605521009
6.415,0.3969108472035567,107.99410915756765,0,60,3.0,5,0.7175084507662977
6.42,0.3997469255491936,104.18007944020901,0,60,3.0,5,0.6277665750637414
6.425,0.3994308076379137,100.36422724801442,0,60,3.0,5,0.5379818176003391
6.43,0.3959699661768434,96.7212161790668,0,60,3.0,5,0.45226391009568945
6.435,0.38944595408114946,93.38759728931282,0,60,3.0,5,0.3738258185720664
6.44,0.38001120995358023,90.45670883537264,0,60,3.0,5,0.3048637373028856
6.445,0.3678831374098315,87.9790401462504,0,60,3.0,5,0.24656565050000936
6.45,0.35333577933796634,85.96697701419116,0,60,3.0,5,0.19922298856920373
6.455,0.33668953221163944,84.4024246438112,0,60,3.0,5,0.1624099916190871
6.46,0.3182994390982644,83.24571739115189,0,60,3.0,5,0.13519335038004435
6.465,0.29854265738230645,82.44441592118244,0,60,3.0,5,0.11633919814546917
6.47,0.2778057157821067,81.94096223704659,0,60,3.0,5,0.10449322910697861
6.475,0.2564721553719815,81.67860013199362,0,60,3.0,5,0.09832000310573222
6.48,0.23491109433464996,81.6053774632043,0,60,3.0,5,0.09659711678127779
6.485,0.21346717185309805,81.67636369433883,0,60,3.0,5,0.09826738104326664
6.49,0.19245222055656455,81.85441421730658,0,60,3.0,5,0.10245680511309609
6.495,0.17213889801761392,82.10989597948169,0,60,3.0,5,0.10846814069368688
6.5,0.15275638501270183,82.4197812649522,0,60,3.0,5,0.11575955917534603
6.505,0.13448814019607322,82.76645106571821,0,60,3.0,5,0.123916495663958
6.51,0.11747159495449566,83.13645818712642,0,60,3.0,5,0.13262254557944522
6.515,0.10179958433370105,83.51940780368162,0,60,3.0,5,0.1416331247925086
6.52,0.08752324394101413,83.90703501007195,0,60,3.0,5,0.15075376494286943
6.525,0.07465606047174059,84.29250168132002,0,60,3.0,5,0.15982356897223574
6.53,0.0631787448609295,84.66989887994485,0,60,3.0,5,0.16870350305752596
6.535,0.05304460019959574,85.03392255252196,0,60,3.0,5,0.1772687659416931
6.54,0.044185078305849994,85.37968430795249,0,60,3.0,5,0.1854043366577056
6.545,0.03651525513023255,85.70262077560254,0,60,3.0,5,0.1930028417788833
6.55,0.0299390014708757,85.99847050884269,0,60,3.0,5,0.19996401197276908
6.555,0.024353677220580638,86.26329398177421,0,60,3.0,5,0.2061951525123344
6.56,0.01965423034339045,86.49351840681324,0,60,3.0,5,0.21161219780737028
6.565,0.015736632374757337,86.68599420541278,0,60,3.0,5,0.2161410401273596
6.57,0.012500627640593535,86.83805385632725,0,60,3.0,5,0.2197189142665235
6.575,0.009851811652115898,86.94756666863884,0,60,3.0,5,0.22229568632091393
6.58,0.007703084175428559,87.01298502755421,0,60,3.0,5,0.2238349418248049
6.585,0.005975544002062424,87.03337908862481,0,60,3.0,5,0.2243148020852897
6.59,0.004598905818663047,87.0084579536151,0,60,3.0,5,0.2237284224380025
6.595,0.0035115256454839104,86.938576193165,0,60,3.0,5,0.22208414572152954
6.6,0.002660121266303676,86.82472527864306,0,60,3.0,5,0.2194053006739543
6.605,0.0019992692560877024,86.66851009780702,0,60,3.0,5,0.21572964936016506
6.61,0.0014907520044639367,86.47211127728372,0,60,3.0,5,0.2111085006419698
6.615,0.0011028178277539807,86.23823452311164,0,60,3.0,5,0.2056055181908622
6.62,0.0008094059938923333,85.97004861293706,0,60,3.0,5,0.19929526148087207
6.625,0.0005893771793717645,85.67111402048207,0,60,3.0,5,0.19226150636428388
6.63,0.0004257792353490551,85.34530441514248,0,60,3.0,5,0.18459539800335245
6.635,0.0003051686392901525,84.99672344980459,0,60,3.0,5,0.1763934929365786
6.64,0.00021699992642659966,84.62961932448681,0,60,3.0,5,0.16775574881145436
6.645,0.00015308884054097838,84.248299592624,0,60,3.0,5,0.15878351982644692
6.65,0.00010714989329311098,83.85704856531288,0,60,3.0,5,0.14957761330147953
6.655,7.440535854020571e-05,83.4600494751478,0,60,3.0,5,0.14023645823877173
6.66,5.1260276743925106e-05,83.06131329728954,0,60,3.0,5,0.13085443052445986
6.665,3.503659887882241e-05,82.66461580565927,0,60,3.0,5,0.1215203718978651
6.67,2.375894748103639e-05,82.2734440829479,0,60,3.0,5,0.1123163313634801
6.675,1.5984413869232557e-05,81.89095332165515,0,60,3.0,5,0.10331654874482699
6.68,1.0669166579899869e-05,81.51993436674516,0,60,3.0,5,0.0945866909822391
6.685,7.06526633560511e-06,81.16279207494762,0,60,3.0,5,0.08618334293994394
6.69,4.641847214699205e-06,80.82153421580314,0,60,3.0,5,0.07815374625419154
6.695,3.025641074479182e-06,80.49777032755243,0,60,3.0,5,0.07053577241299837
6.7,1.9566278676921314e-06,80.19271967649756,0,60,3.0,5,0.06335811003523671
6.705,1.2553456560008793e-06,79.9072272581673,0,60,3.0,5,0.05664064136864226
6.71,7.990660428214668e-07,79.64178662610968,0,60,3.0,5,0.05039497943787477
6.715,5.046221251618276e-07,79.39656824009577,0,60,3.0,5,0.04462513506107705
6.72,3.1616527078858815e-07,79.17145198793789,0,60,3.0,5,0.03932828206912672
6.725,1.9652884407760343e-07,78.96606254967222,0,60,3.0,5,0.034495589404052146
6.73,1.2120002189836396e-07,78.77980633332653,0,60,3.0,5,0.03011309019591843
6.735,7.415549848886236e-08,78.61190881032023,0,60,3.0,5,0.026162560242828946
6.74,4.501406988770349e-08,78.46145120731774,0,60,3.0,5,0.022622381348652625
6.745,0.0,78.32740566133431,0,60,3.0,5,0.019468368501983777
6.75,0.0,78.20866810746416,0,60,3.0,5,0.016674543705039135
6.755,0.0,78.10408833568827,0,60,3.0,5,0.014213843192665282
6.76,0.0,78.01249681760311,0,60,3.0,5,0.012058748649484882
6.765,0.0,77.93272805946427,0,60,3.0,5,0.010181836693276877
6.77,0.0,77.86364037977026,0,60,3.0,5,0.008556244229888467
6.775,0.0,77.80413213413297,0,60,3.0,5,0.007156050214893426
6.78,0.0,77.75315451508283,0,60,3.0,5,0.005956576825478271
6.785,0.0,77.70972113863759,0,60,3.0,5,0.004934615026766832
6.79,0.0,77.67291469288736,0,60,3.0,5,0.004068581009114362
6.795,0.0,77.6418909673889,0,60,3.0,5,0.0033386109973859595
6.8,0.0,77.61588060740796,0,60,3.0,5,0.0027266025272461
6.805,0.0,77.59418894611207,0,60,3.0,5,0.002216210496754577
6.81,0.0,77.57619426314615,0,60,3.0,5,0.0017928061916741038
6.815,0.0,77.56134480222934,0,60,3.0,5,0.001443407111278649
6.82,0.0,77.54915485611353,0,60,3.0,5,0.001156584849730159
6.825,0.0,77.53920019694617,0,60,3.0,5,0.0009223575752039725
6.83,0.0,77.53111309607614,0,60,3.0,5,0.0007320728488503605
6.835,0.0,77.52457714164618,0,60,3.0,5,0.0005782856857923862
6.84,0.0,77.51932202662293,0,60,3.0,5,0.00045463592053953804
6.845,0.0,77.51511844558637,0,60,3.0,5,0.00035572813144393184
6.85,0.0,77.51177320666078,0,60,3.0,5,0.0002770166273124045
6.855,0.0,77.50912463613587,0,60,3.0,5,0.00021469732084389816
6.86,0.0,77.50703832803256,0,60,3.0,5,0.00016560771841327818
6.865,0.0,77.50540326930944,0,60,3.0,5,0.00012713574845740956
6.87,0.0,77.50412835357564,0,60,3.0,5,9.713773119147738e-05
6.875,0.0,77.50313928191733,0,60,3.0,5,7.3865456878299e-05
6.88,0.0,77.50237583848272,0,60,3.0,5,5.590208194636194e-05
6.885,0.0,77.50178952045918,0,60,3.0,5,4.2106363745500964e-05
6.89,0.0,77.50134149662578,0,60,3.0,5,3.156462648903738e-05
6.895,0.0,77.5010008653694,0,60,3.0,5,2.3549773397783557e-05
6.9,0.0,77.50074318152002,0,60,3.0,5,1.748662400051912e-05
6.905,0.0,77.50054922121242,0,60,3.0,5,1.2922852057031645e-05
6.91,0.0,77.50040395488503,0,60,3.0,5,9.504820824237387e-06
6.915,0.0,77.50029570017914,0,60,3.0,5,6.957651273818128e-06
6.92,0.0,77.50021542865605,0,60,3.0,5,5.068909554077383e-06
6.925,0.0,77.50015620269332,0,60,3.0,5,3.675357489849857e-06
6.93,0.0,77.50011272149108,0,60,3.0,5,2.652270378308351e-06
6.935,0.0,77.50008095768732,0,60,3.0,5,1.904886760391545e-06
6.94,0.0,77.50005786855301,0,60,3.0,5,1.361613012102894e-06
6.945,0.0,77.50004116805168,0,60,3.0,5,9.686600395418602e-07
6.95,0.0,77.50002914816145,0,60,3.0,5,6.8583909283274e-07
6.955,0.0,77.50002053975126,0,60,3.0,5,4.832882649786958e-07
6.96,0.0,77.50001440496989,0,60,3.0,5,3.3894046797446634e-07
6.965,0.0,77.50001005455123,0,60,3.0,5,2.3657767589129968e-07
6.97,0.0,77.50000698467477,0,60,3.0,5,1.6434528868772116e-07
6.975,0.001684486749771458,77.50000482906273,0,60,3.0,5,1.1362500545681755e-07
6.98,0.003097557930867117,77.50000332286477,0,60,3.0,5,7.8185053432796e-08
6.985,0.005475106668887023,77.50000227559855,0,60,3.0,5,5.354349522188867e-08
6.99,0.00930222931468658,77.50000155099998,0,60,3.0,5,3.6494117239271875e-08
6.995,0.01519157517868857,77.50000105210987,0,60,3.0,5,2.475552625636577e-08
7.0,0.023847336626128316,77.50000071030286,0,60,3.0,5,1.6713008389000177e-08
7.005,0.0359830743700859,77.50000047726456,0,60,3.0,5,1.1229754443989162e-08
7.01,0.05218887796857759,77.50000031915964,0,60,3.0,5,7.509638568508843e-09
7.015,0.0727577001223134,77.50000021241732,0,60,3.0,5,4.99805457152166e-09
7.02,0.0974992498694751,77.50000014070355,0,60,3.0,5,3.3106717263067632e-09
7.025,0.12558706050443358,77.50000009275841,0,60,3.0,5,2.1825508825071773e-09
7.03,0.15549263588878245,77.50000006086039,0,60,3.0,5,1.432009104759987e-09
7.035,0.1850529723539114,77.50000003974196,0,60,3.0,5,9.351050025810872e-10
7.04,0.21169159439317053,77.50000002582837,0,60,3.0,5,6.077263659629834e-10
7.045,0.23277292922115492,77.50000001670621,0,60,3.0,5,3.9308728820983294e-10
7.05,0.24602692519491282,77.50000001075455,0,60,3.0,5,2.5304817587739844e-10
7.055,0.24995056064839283,77.50000000689032,0,60,3.0,5,1.6212512117122327e-10
7.06,0.24408826520424054,77.5000000043936,0,60,3.0,5,1.0337878527078668e-10
7.065,0.22911894216865275,77.50000000278825,0,60,3.0,5,6.560599906472764e-11
7.07,0.20672661788705934,77.50000000176108,0,60,3.0,5,4.143718048426843e-11
7.075,0.17928878030241233,77.50000000110703,0,60,3.0,5,2.6047660760334968e-11
7.08,0.14946211903866036,77.50000000069258,0,60,3.0,5,1.629600506823729e-11
7.085,0.1197651512573837,77.50000000043124,0,60,3.0,5,1.0146884639706353e-11
7.09,0.09224675744988023,77.50000000026724,0,60,3.0,5,6.287885245161734e-12
7.095,0.06829565320281596,77.50000000016482,0,60,3.0,5,3.878058658515596e-12
7.1,0.04860224607515734,77.50000000010117,0,60,3.0,5,2.380401758059366e-12
7.105,0.03324612389699793,77.5000000000618,0,60,3.0,5,1.454188403680318e-12
7.11,0.021859876340472782,77.50000000003757,0,60,3.0,5,8.840823498116258e-13
7.115,0.01381595518554205,77.50000000002274,0,60,3.0,5,5.349968833958402e-13
7.12,0.008394095110402422,77.5000000000137,0,60,3.0,5,3.223356222459937e-13
7.125,0.0049052535271608,77.50000000000821,0,60,3.0,5,1.9326762412674725e-13
7.13,0.0027671663551903634,77.5000000000049,0,60,3.0,5,1.1535870298222802e-13
7.135,0.0015425553464444616,77.50000000000291,0,60,3.0,5,6.854647568509201e-14
7.14,0.0009638206637011801,77.50000000000172,0,60,3.0,5,4.045913930681041e-14
7.145,0.0009804935156568228,77.50000000000101,0,60,3.0,5,2.3740486700690407e-14
7.15,0.0018793744894085216,77.5000000000006,0,60,3.0,5,1.4043668189140804e-14
7.155,0.004535525206900863,77.50000000000034,0,60,3.0,5,8.024953250937602e-15
7.16,0.010832767979632273,77.5000000000002,0,60,3.0,5,4.681222729713601e-15
7.165,0.024208003392322392,77.50000000000011,0,60,3.0,5,2.6749844169792007e-15
7.17,0.0500971897335304,77.50000000000007,0,60,3.0,5,1.6718652606120004e-15
7.175,0.09582894921774403,77.50000000000004,0,60,3.0,5,1.0031191563672002e-15
7.18,0.16937896721820658,77.50000000000001,0,60,3.0,5,3.343730521224001e-16
7.185,0.27661303008991756,77.50000000000001,0,60,3.0,5,3.343730521224001e-16
7.19,0.4173782800009149,77.5,0,60,3.0,5,0.0
7.195,0.5818720934538056,77.5,0,60,3.0,5,0.0
7.2,0.7494718801585675,77.5,0,60,3.0,5,0.0
7.205,0.891813020752378,77.5,0,60,3.0,5,0.0
7.21,0.9800361632936612,77.5,0,60,3.0,5,0.0
7.215,0.993574479225126,77.50000248989905,1,60,3.0,5,5.858585990715844e-08
7.22,0.9263438449375362,77.50000369347886,0,60,3.0,5,8.690538493283384e-08
7.225,0.7873015962290536,77.50000557344883,0,60,3.0,5,1.3113997250216285e-07
7.23,0.5959516244629897,77.5000086277236,0,60,3.0,6,2.0300526122863468e-07
7.235,0.376910120078773,77.50001381674137,0,60,3.0,6,3.2509979699652295e-07
7.24,0.15739335672107918,77.5000230297001,0,60,3.0,6,5.41875296529029e-07
7.245,-0.033361226269301235,77.50004000696563,0,60,3.0,6,9.41340367850952e-07
7.25,-0.1680180840843834,77.50007212773693,0,60,3.0,6,1.6971232218352002e-06
7.255,-0.23069703190837854,77.500133795517,0,60,3.0,6,3.148129811801054e-06
7.26,-0.22587267821131068,77.50025269222103,0,60,3.0,6,5.945699318237316e-06
7.265,-0.17718181630665902,77.5004810332048,0,60,3.0,6,1.1318428348391427e-05
7.27,-0.11494332516451301,77.50091527659382,0,60,3.0,6,2.1535919854480146e-05
7.275,-0.061810214049552864,77.5017296721098,0,60,3.0,6,4.069816728949317e-05
7.28,-0.026546104631500547,77.50323170861597,0,60,3.0,6,7.60402027287241e-05
7.285,-0.00719600351942686,77.50595098331007,0,60,3.0,6,0.0001400231367075749
7.29,0.0022072757983807078,77.51077713042112,0,60,3.0,6,0.00025357953932043264
7.295,0.006917199873730717,77.51916675012615,0,60,3.0,6,0.0004509823559093253
7.3,0.01004859748264829,77.53344282153455,0,60,3.0,6,0.0007868899184599928
7.305,0.013037082251128167,77.55721129485161,0,60,3.0,6,0.0013461481141555797
7.31,0.01645163937690478,77.59591618933916,0,60,3.0,6,0.0022568515138626775
7.315,0.020526639934696615,77.657543784672,0,60,3.0,6,0.0037069125805176636
7.32,0.02539629541761738,77.75346547095405,0,60,3.0,6,0.005963893434213051
7.325,0.031171612185577933,77.89937526733806,0,60,3.0,6,0.009397065113836669
7.33,0.03795853426638131,78.11623148985416,0,60,3.0,6,0.014499564467156662
7.335,0.0458588961882057,78.43105527668516,0,60,3.0,6,0.02190718298082723
7.34,0.054966995891435555,78.87737882535453,0,60,3.0,6,0.03240891353775356
7.345,0.06536491004445595,79.49508551015256,0,60,3.0,6,0.04694318847417796
7.35,0.07711726085088699,80.32935933179266,0,60,3.0,6,0.06657316074806258
7.355,0.09026570629555215,81.4284815251271,0,60,3.0,6,0.09243485941475522
7.36,0.10482339848670268,82.84029492797717,0,60,3.0,6,0.12565399830534515
7.365,0.12076968927580028,84.60731176085159,0,60,3.0,6,0.1672308649612138
7.37,0.13804539501007884,86.76066413766326,0,60,3.0,6,0.21789797970972366
7.375,0.15654895051787066,89.31336701784153,0,60,3.0,6,0.2779615768903889
7.38,0.17613378141900526,92.25363888737695,0,60,3.0,6,0.34714444440886943
7.385,0.19660720058055794,95.53924881423087,0,60,3.0,6,0.4244529132760205
7.39,0.21773108748496234,99.09396597534285,0,60,3.0,6,0.5080933170668906
7.395,0.23922453870058807,102.80712379021509,0,60,3.0,6,0.595461736240355
7.4,0.2607685857914563,106.53704455075982,0,60,3.0,6,0.6832245776649368
7.405,0.2820129681603682,110.11860978233275,0,60,3.0,6,0.7674967007607707
7.41,0.30258482867153996,113.37466009643558,0,60,3.0,6,0.8441096493278959
7.415,0.3220990771751686,116.13026147256033,0,60,3.0,6,0.9089473287661255
7.42,0.3401700499968971,118.22830434348708,0,60,3.0,6,0.9583130433761666
7.425,0.3564239911198326,119.54453001557229,0,60,3.0,6,0.9892830591899363
7.43,0.3705118017738417,120.0,0,60,3.0,6,1.0
7.435,0.3821214567925213,119.56927829171647,0,60,3.0,6,0.9898653715697994
7.44,0.39098947374066967,118.28315730253448,0,60,3.0,6,0.9596037012361054
7.445,0.3969108472035567,116.22553207145418,0,60,3.0,6,0.911188989916569
7.45,0.3997469255491936,113.52487436578907,0,60,3.0,6,0.8476441027244488
7.455,0.3994308076379137,110.34152177989066,0,60,3.0,6,0.7727416889386036
7.46,0.3959699661768434,106.85253909603057,0,60,3.0,6,0.6906479787301311
7.465,0.38944595408114946,103.23614108868534,0,60,3.0,6,0.6055562609102434
7.47,0.38001120995358023,99.65756515886918,0,60,3.0,6,0.5213544743263335
7.475,0.3678831374098315,96.25789346229843,0,60,3.0,6,0.44136219911290414
7.48,0.35333577933796634,93.1467445224093,0,60,3.0,6,0.36815869464492484
7.485,0.33668953221163944,90.39910701590577,0,60,3.0,6,0.3035084003742534
7.49,0.3182994390982644,88.05599403043372,0,60,3.0,6,0.24837633012785232
7.495,0.29854265738230645,86.12814760981598,0,60,3.0,6,0.2030152378780231
7.5,0.2778057157821067,84.6017712852846,0,60,3.0,6,0.16710050083022585
7.505,0.2564721553719815,83.44521745006806,0,60,3.0,6,0.13988746941336605
7.51,0.23491109433464996,82.6156738200793,0,60,3.0,6,0.12036879576657163
7.515,0.21346717185309805,82.06512224585555,0,60,3.0,6,0.10741464107895407
7.52,0.19245222055656455,81.7451201208325,0,60,3.0,6,0.09988517931370579
7.525,0.17213889801761392,81.61022299791726,0,60,3.0,6,0.09671112936275911
7.53,0.15275638501270183,81.6200865234776,0,60,3.0,6,0.09694321231711991
7.535,0.13448814019607322,81.74043585223482,0,60,3.0,6,0.0997749612290547
7.54,0.11747159495449566,81.94316876489165,0,60,3.0,6,0.10454514740921535
7.545,0.10179958433370105,82.2058753394999,0,60,3.0,6,0.11072647857646817
7.55,0.08752324394101413,82.5110298296717,0,60,3.0,6,0.11790658422756939
7.555,0.07465606047174059,82.84505845203199,0,60,3.0,6,0.12576608122428218
7.56,0.0631787448609295,83.19742662716826,0,60,3.0,6,0.1340570971098413
7.565,0.05304460019959574,83.55983276094673,0,60,3.0,6,0.14258430025757018
7.57,0.044185078305849994,83.9255497323364,0,60,3.0,6,0.15118940546673898
7.575,0.03651525513023255,84.28892234932543,0,60,3.0,6,0.15973934939589252
7.58,0.0299390014708757,84.64500854876302,0,60,3.0,6,0.1681178482061886
7.585,0.024353677220580638,84.9893417310895,0,60,3.0,6,0.1762198054373999
7.59,0.01965423034339045,85.31778842171917,0,60,3.0,6,0.18394796286398052
7.595,0.015736632374757337,85.62647668364372,0,60,3.0,6,0.1912112160857345
7.6,0.012500627640593535,85.91177417632449,0,60,3.0,6,0.19792409826645846
7.605,0.009851811652115898,86.17029894574033,0,60,3.0,6,0.2040070340174195
7.61,0.007703084175428559,86.39895003652595,0,60,3.0,6,0.20938705968296342
7.615,0.005975544002062424,86.59494840815444,0,60,3.0,6,0.21399878607422204
7.62,0.004598905818663047,86.75588129405614,0,60,3.0,6,0.2177854422130856
7.625,0.0035115256454839104,86.87974512181765,0,60,3.0,6,0.2206998852192388
7.63,0.002660121266303676,86.96498354662036,0,60,3.0,6,0.2227054952145967
7.635,0.0019992692560877024,87.01051818530924,0,60,3.0,6,0.22377689847786442
7.64,0.0014907520044639367,87.01577040304835,0,60,3.0,6,0.2239004800717259
7.645,0.0011028178277539807,86.98067309602897,0,60,3.0,6,0.22307466108303448
7.65,0.0008094059938923333,86.90567189874692,0,60,3.0,6,0.22130992702933922
7.655,0.0005893771793717645,86.79171566355345,0,60,3.0,6,0.2186286038483164
7.66,0.0004257792353490551,86.64023643475305,0,60,3.0,6,0.21506438670007175
7.665,0.0003051686392901525,86.45311947765566,0,60,3.0,6,0.21066163476836852
7.67,0.00021699992642659966,86.23266422490615,0,60,3.0,6,0.20547445235073283
7.675,0.00015308884054097838,85.98153726414377,0,60,3.0,6,0.1995655826857357
7.68,0.00010714989329311098,85.70271870706542,0,60,3.0,6,0.193005146048598
7.685,7.440535854020571e-05,85.3994434449343,0,60,3.0,6,0.18586925752786604
7.69,5.1260276743925106e-05,85.07513890541706,0,60,3.0,6,0.17823856248040149
7.695,3.503659887882241e-05,84.73336097816738,0,60,3.0,6,0.17019672889805607
7.7,2.375894748103639e-05,84.37772977182186,0,60,3.0,6,0.1618289358075732
7.705,1.5984413869232557e-05,84.01186680530381,0,60,3.0,6,0.1532203954189132
7.71,1.0669166579899869e-05,83.63933512595486,0,60,3.0,6,0.1444549441401143
7.715,7.06526633560511e-06,83.26358369232372,0,60,3.0,6,0.13561373393702872
7.72,4.641847214699205e-06,82.8878971682628,0,60,3.0,6,0.12677405101794814
7.725,3.025641074479182e-06,82.51535205625248,0,60,3.0,6,0.11800828367652898
7.73,1.9566278676921314e-06,82.14877986118354,0,60,3.0,6,0.1093830555572598
7.735,1.2553456560008793e-06,81.79073773095782,0,60,3.0,6,0.10095853484606623
7.74,7.990660428214668e-07,81.44348677673555,0,60,3.0,6,0.09278792415848362
7.745,5.046221251618276e-07,81.1089780423065,0,60,3.0,6,0.08491713040721185
7.75,3.1616527078858815e-07,80.78884587671331,0,60,3.0,6,0.07738460886384259
7.755,1.9652884407760343e-07,80.48440827342908,0,60,3.0,6,0.07022137113950781
7.76,1.2120002189836396e-07,80.19667357811109,0,60,3.0,6,0.06345114301437856
7.765,7.415549848886236e-08,79.92635283864746,0,60,3.0,6,0.05709065502699907
7.77,4.501406988770349e-08,79.67387697768591,0,60,3.0,6,0.051150046533786055
7.775,0.0,79.43941790933113,0,60,3.0,6,0.045633362572497095
7.78,0.0,79.22291269703456,0,60,3.0,6,0.04053912228316609
7.785,0.0,79.0240898564496,0,60,3.0,6,0.03586093779881427
7.79,0.0,78.84249694174446,0,60,3.0,6,0.0315881633351637
7.795,0.0,78.67752861235239,0,60,3.0,6,0.027706555584762114
7.8,0.0,78.52845445469734,0,60,3.0,6,0.02419892834581975
7.805,0.0,78.39444592512721,0,60,3.0,6,0.02104578647358153
7.81,0.0,78.2746018811935,0,60,3.0,6,0.018225926616317754
7.815,0.0,78.1679722738245,0,60,3.0,6,0.015716994678223607
7.82,0.0,78.07357967854485,0,60,3.0,6,0.013495992436349311
7.825,0.0,77.99043844592175,0,60,3.0,6,0.011539728139335386
7.83,0.0,77.91757134672964,0,60,3.0,6,0.00982520815834458
7.835,0.0,77.85402367345773,0,60,3.0,6,0.008329968787240754
7.84,0.0,77.79887483498239,0,60,3.0,6,0.007032349058409061
7.845,0.0,77.75124754439972,0,60,3.0,6,0.005911706927052177
7.85,0.0,77.71031475070534,0,60,3.0,6,0.004948582369537329
7.855,0.0,77.67530450331304,0,60,3.0,6,0.004124811842659844
7.86,0.0,77.64550296488451,0,60,3.0,6,0.0034235991737532724
7.865,0.0,77.62025580352989,0,60,3.0,6,0.0028295483183502683
7.87,0.0,77.59896820134432,0,60,3.0,6,0.0023286635610428245
7.875,0.0,77.58110371384987,0,60,3.0,6,0.0019083226788204817
7.88,0.0,77.56618220569358,0,60,3.0,6,0.001557228369260683
7.885,0.0,77.5537770733974,0,60,3.0,6,0.0012653429034682015
7.89,0.0,77.5435119474997,0,60,3.0,6,0.0010238105294045935
7.895,0.0,77.53505704540301,0,60,3.0,6,0.0008248716565413574
7.9,0.0,77.52812532383865,0,60,3.0,6,0.000661772325615322
7.905,0.0,77.52246855710067,0,60,3.0,6,0.0005286719317803759
7.91,0.0,77.51787344493509,0,60,3.0,6,0.0004205516455315587
7.915,0.0,77.514157832864,0,60,3.0,6,0.0003331254791529612
7.92,0.0,77.51116710826899,0,60,3.0,6,0.0002627554886821733
7.925,0.0,77.50877081809212,0,60,3.0,6,0.0002063721904027502
7.93,0.0,77.50685953872225,0,60,3.0,6,0.0001614009111118348
7.935,0.0,77.50534201559582,0,60,3.0,6,0.00012569448460741274
7.94,0.0,77.50414257922081,0,60,3.0,6,9.747245225439121e-05
7.945,0.0,77.50319883562855,0,60,3.0,6,7.526672067182089e-05
7.95,0.0,77.50245962250408,0,60,3.0,6,5.7873470684158105e-05
7.955,0.0,77.5018832172457,0,60,3.0,6,4.431099401659487e-05
7.96,0.0,77.50143577973259,0,60,3.0,6,3.3783052531495794e-05
7.965,0.0,77.50109001041041,0,60,3.0,6,2.564730377430886e-05
7.97,0.0,77.50082400321146,0,60,3.0,6,1.9388310857948454e-05
7.975,0.0,77.50062027259587,0,60,3.0,6,1.459464931452417e-05
7.98,0.0,77.5004649344373,0,60,3.0,6,1.0939633818907169e-05
7.985,0.0,77.500347021408,0,60,3.0,6,8.165209600092032e-06
7.99,0.0,77.50025791479234,0,60,3.0,6,6.068583349240404e-06
7.995,0.0,77.50019087614979,0,60,3.0,6,4.491203524407063e-06
8.0,0.0,77.50014066385401,0,60,3.0,6,3.309737741453907e-06
8.005,0.0,77.50010322117295,0,60,3.0,6,2.4287334811641117e-06
8.01,0.0,77.50007542416286,0,60,3.0,6,1.7746861849044603e-06
8.015,0.0,77.50005487918317,0,60,3.0,6,1.2912748980611736e-06
8.02,0.0,77.50003976126656,0,60,3.0,6,9.35559213263225e-07
8.025,0.0,77.50002868588233,0,60,3.0,6,6.749619371128253e-07
8.03,0.0,77.50002060780075,0,60,3.0,6,4.84889429398048e-07
8.035,0.0,77.50001474179989,0,60,3.0,6,3.4686587970527935e-07
8.04,0.0,77.50001050085854,0,60,3.0,6,2.4707902438796525e-07
8.045,0.0,77.50000744825498,0,60,3.0,6,1.7525305826679602e-07
8.05,0.0,77.50000526065347,0,60,3.0,6,1.2378008156755481e-07
8.055,0.0,77.50000369981736,0,60,3.0,6,8.70545260140181e-08
8.06,0.0,77.50000259105306,0,60,3.0,6,6.09659543763829e-08
8.065,0.001684486749771458,77.50000180687354,0,60,3.0,6,4.25146715636348e-08
8.07,0.003097557930867117,77.50000125468482,0,60,3.0,6,2.9521995723852717e-08
8.075,0.005475106668887023,77.50000086755489,0,60,3.0,6,2.0413056197011268e-08
8.08,0.00930222931468658,77.50000059733053,0,60,3.0,6,1.405483591470864e-08
8.085,0.01519157517868857,77.50000040953203,0,60,3.0,6,9.636047881191617e-09
8.09,0.023847336626128316,77.50000027958669,0,60,3.0,6,6.578510264636647e-09
8.095,0.0359830743700859,77.5000001900643,0,60,3.0,6,4.472101141693523e-09
8.1,0.05218887796857759,77.50000012865895,0,60,3.0,6,3.0272694991307455e-09
8.105,0.0727577001223134,77.50000008672312,0,60,3.0,6,2.0405439847630023e-09
8.11,0.0974992498694751,77.50000005820834,0,60,3.0,6,1.3696080713998527e-09
8.115,0.12558706050443358,77.5000000389037,0,60,3.0,6,9.153813393555431e-10
8.12,0.15549263588878245,77.5000000258912,0,60,3.0,6,6.092046292264165e-10
8.125,0.1850529723539114,77.50000001715809,0,60,3.0,6,4.03719682521221e-10
8.13,0.21169159439317053,77.50000001132246,0,60,3.0,6,2.664107261593659e-10
8.135,0.23277292922115492,77.50000000743992,0,60,3.0,6,1.750569989620571e-10
8.14,0.24602692519491282,77.50000000486801,0,60,3.0,6,1.1454149524284088e-10
8.145,0.24995056064839283,77.50000000317168,0,60,3.0,6,7.46277183840421e-11
8.15,0.24408826520424054,77.5000000020577,0,60,3.0,6,4.841654920121929e-11
8.155,0.22911894216865275,77.50000000132933,0,60,3.0,6,3.127825841468567e-11
8.16,0.20672661788705934,77.50000000085514,0,60,3.0,6,2.0120898411465427e-11
8.165,0.17928878030241233,77.50000000054777,0,60,3.0,6,1.2888743667110034e-11
8.17,0.14946211903866036,77.50000000034939,0,60,3.0,6,8.220895859481329e-12
8.175,0.1197651512573837,77.50000000022192,0,60,3.0,6,5.2215695819434e-12
8.18,0.09224675744988023,77.50000000014035,0,60,3.0,6,3.3022682627608232e-12
8.185,0.06829565320281596,77.50000000008839,0,60,3.0,6,2.0798003842013284e-12
8.19,0.04860224607515734,77.50000000005542,0,60,3.0,6,1.3040549032773604e-12
8.195,0.03324612389699793,77.50000000003462,0,60,3.0,6,8.145327549701666e-13
8.2,0.021859876340472782,77.50000000002152,0,60,3.0,6,5.062408009133138e-13
8.205,0.01381595518554205,77.50000000001333,0,60,3.0,6,3.136419228908113e-13
8.21,0.008394095110402422,77.50000000000821,0,60,3.0,6,1.9326762412674725e-13
8.215,0.0049052535271608,77.50000000000504,0,60,3.0,6,1.1870243350345204e-13
8.22,0.0027671663551903634,77.50000000000308,0,60,3.0,6,7.255895231056081e-14
8.225,0.0015425553464444616,77.50000000000188,0,60,3.0,6,4.413724288015681e-14
8.23,0.0009638206637011801,77.50000000000114,0,60,3.0,6,2.6749844169792007e-14
8.235,0.0009804935156568228,77.50000000000068,0,60,3.0,6,1.6049906501875204e-14
8.24,0.0018793744894085216,77.50000000000041,0,60,3.0,6,9.696818511549603e-15
8.245,0.004535525206900863,77.50000000000024,0,60,3.0,6,5.684341886080802e-15
8.25,0.010832767979632273,77.50000000000014,0,60,3.0,6,3.343730521224001e-15
8.255,0.024208003392322392,77.50000000000009,0,60,3.0,6,2.0062383127344005e-15
8.26,0.0500971897335304,77.50000000000006,0,60,3.0,6,1.3374922084896003e-15
8.265,0.09582894921774403,77.50000000000003,0,60,3.0,6,6.687461042448002e-16
8.27,0.16937896721820658,77.50000000000001,0,60,3.0,6,3.343730521224001e-16
8.275,0.27661303008991756,77.50000000000001,0,60,3.0,6,3.343730521224001e-16
8.28,0.4173782800009149,77.5,0,60,3.0,6,0.0
8.285,0.5818720934538056,77.5,0,60,3.0,6,0.0
8.29,0.7494718801585675,77.5,0,60,3.0,6,0.0
8.295,0.891813020752378,77.5,0,60,3.0,6,0.0
8.3,0.9800361632936612,77.5,0,60,3.0,6,0.0
8.305,0.993574479225126,77.50000249070214,1,60,3.0,6,5.8604756331453034e-08
8.31,0.9263438449375362,77.5000037748439,0,60,3.0,6,8.881985656765156e-08
8.315,0.7873015962290536,77.500005833579,0,60,3.0,6,1.372606822555741e-07
8.32,0.5959516244629897,77.50000928366461,0,60,3.0,6,2.1843916730337214e-07
8.325,0.376910120078773,77.500015361103,0,60,3.0,6,3.6143771754883777e-07
8.33,0.15739335672107918,77.50002659138995,0,60,3.0,6,6.256797636230177e-07
8.335,-0.033361226269301235,77.50004815927716,0,60,3.0,6,1.133159462503553e-06
8.34,-0.1680180840843834,77.5000906430617,0,60,3.0,6,2.1327779222701793e-06
8.345,-0.23069703190837854,77.50017533177136,0,60,3.0,6,4.1254534437484836e-06
8.35,-0.22587267821131068,77.50034427932519,0,60,3.0,6,8.100690004486001e-06
8.355,-0.17718181630665902,77.50067876339347,0,60,3.0,6,1.5970903375679934e-05
8.36,-0.11494332516451301,77.50133214821588,0,60,3.0,6,3.1344663903061755e-05
8.365,-0.061810214049552864,77.5025865477528,0,60,3.0,6,6.085994712467415e-05
8.37,-0.026546104631500547,77.50494731977106,0,60,3.0,6,0.00011640752402500125
8.375,-0.00719600351942686,77.50929523851232,0,60,3.0,6,0.00021871149440759086
8.38,0.0022072757983807078,77.5171226889302,0,60,3.0,6,0.0004028867983576594
8.385,0.006917199873730717,77.53088616090623,0,60,3.0,6,0.0007267331977937588
8.39,0.01004859748264829,77.55451044219848,0,60,3.0,6,0.0012825986399641752
8.395,0.013037082251128167,77.59407677734065,0,60,3.0,6,0.00221357123154462
8.4,0.01645163937690478,77.65871339087008,0,60,3.0,6,0.003734432726354739
8.405,0.020526639934696615,77.76167727564739,0,60,3.0,6,0.006157112368173798
8.41,0.02539629541761738,77.92156705033047,0,60,3.0,6,0.009919224713658035
8.415,0.031171612185577933,78.16353698380597,0,60,3.0,6,0.01561263491308162
8.42,0.03795853426638131,78.5202964150463,0,60,3.0,6,0.02400697447167772
8.425,0.0458588961882057,79.03258899051217,0,60,3.0,6,0.036060917423815696
8.43,0.054966995891435555,79.74877354393652,0,60,3.0,6,0.05291231868085935
8.435,0.06536491004445595,80.7231018809971,0,60,3.0,7,0.07583769131757896
8.44,0.07711726085088699,82.01234009388017,0,60,3.0,7,0.1061727080912981
8.445,0.09026570629555215,83.67053603700003,0,60,3.0,7,0.1451890832235302
8.45,0.10482339848670268,85.74200698045453,0,60,3.0,7,0.1939295760106949
8.455,0.12076968927580028,88.25299216597037,0,60,3.0,7,0.25301158037577337
8.46,0.13804539501007884,91.20283520772053,0,60,3.0,7,0.3224196519463653
8.465,0.15654895051787066,94.55594843457419,0,60,3.0,7,0.40131643375468684
8.47,0.17613378141900526,98.2360618659798,0,60,3.0,7,0.48790733802305425
8.475,0.19660720058055794,102.12427180024235,0,60,3.0,7,0.5793946305939377
8.48,0.21773108748496234,106.06210749842371,0,60,3.0,7,0.672049588198205
8.485,0.23922453870058807,109.86021864616963,0,60,3.0,7,0.7614169093216383
8.49,0.2607685857914563,113.31241870434148,0,60,3.0,7,0.8426451459845055
8.495,0.2820129681603682,116.21384448755202,0,60,3.0,7,0.9109139879424005
8.5,0.30258482867153996,118.38110783857866,0,60,3.0,7,0.9619084197312625
8.505,0.3220990771751686,119.6717274950356,0,60,3.0,7,0.9922759410596611
8.51,0.3401700499968971,120.0,0,60,3.0,7,1.0
8.515,0.3564239911198326,119.34686742618811,0,60,3.0,7,0.9846321747338379
8.52,0.3705118017738417,117.76221775269957,0,60,3.0,7,0.9473463000635193
8.525,0.3821214567925213,115.35924796725743,0,60,3.0,7,0.8908058345237043
8.53,0.39098947374066967,112.30178985500262,0,60,3.0,7,0.8188656436471206
8.535,0.3969108472035567,108.78658469160068,0,60,3.0,7,0.736154933920016
8.54,0.3997469255491936,105.02318183622177,0,60,3.0,7,0.6476042784993357
8.545,0.3994308076379137,101.21431013746422,0,60,3.0,7,0.5579837679403347
8.55,0.3959699661768434,97.53923277955604,0,60,3.0,7,0.4715113595189658
8.555,0.38944595408114946,94.14185919721706,0,60,3.0,7,0.39157315758157785
8.56,0.38001120995358023,91.12443922669075,0,60,3.0,7,0.3205750406280177
8.565,0.3678831374098315,88.54671365581692,0,60,3.0,7,0.25992267425451565
8.57,0.35333577933796634,86.42962122580431,0,60,3.0,7,0.21010873472480732
8.575,0.33668953221163944,84.76217841349774,0,60,3.0,7,0.17087478619994673
8.58,0.3182994390982644,83.50998827510688,0,60,3.0,7,0.14141148882604418
8.585,0.29854265738230645,82.6239592616714,0,60,3.0,7,0.12056374733344476
8.59,0.2778057157821067,82.04813671665211,0,60,3.0,7,0.10701498156828493
8.595,0.2564721553719815,81.72596289047014,0,60,3.0,7,0.09943442095223866
8.6,0.23491109433464996,81.60468893918195,0,60,3.0,7,0.09658091621604599
8.605,0.21346717185309805,81.63799504646468,0,60,3.0,7,0.09736458932858073
8.61,0.19245222055656455,81.78709744087013,0,60,3.0,7,0.10087288096165005
8.615,0.17213889801761392,82.02073014370184,0,60,3.0,7,0.10637012102827859
8.62,0.15275638501270183,82.31440368405315,0,60,3.0,7,0.11328008668360345
8.625,0.13448814019607322,82.64929288117871,0,60,3.0,7,0.12115983249832257
8.63,0.11747159495449566,83.0110225176634,0,60,3.0,7,0.12967111806266837
8.635,0.10179958433370105,83.3885292368498,0,60,3.0,7,0.13855362910234836
8.64,0.08752324394101413,83.77309765368632,0,60,3.0,7,0.1476022977337958
8.645,0.07465606047174059,84.15760717412064,0,60,3.0,7,0.15664958056754452
8.65,0.0631787448609295,84.53598520779653,0,60,3.0,7,0.1655525931246242
8.655,0.05304460019959574,84.90283979370203,0,60,3.0,7,0.17418446573416538
8.66,0.044185078305849994,85.2532355842238,0,60,3.0,7,0.18242907256997182
8.665,0.03651525513023255,85.58257682747728,0,60,3.0,7,0.1901782782935831
8.67,0.0299390014708757,85.88656538177838,0,60,3.0,7,0.19733095015949134
8.675,0.024353677220580638,86.1612079739718,0,60,3.0,7,0.20379312879933642
8.68,0.01965423034339045,86.40285309350594,0,60,3.0,7,0.2094788963177868
8.685,0.015736632374757337,86.6082432150249,0,60,3.0,7,0.21431160505940938
8.69,0.012500627640593535,86.77457218739008,0,60,3.0,7,0.21822522793859006
8.695,0.009851811652115898,86.89954068208965,0,60,3.0,7,0.22116566310799177
8.7,0.007703084175428559,86.98140477366222,0,60,3.0,7,0.22309187702734634
8.705,0.005975544002062424,87.01901427304892,0,60,3.0,7,0.22397680642468057
8.71,0.004598905818663047,87.01183856381658,0,60,3.0,7,0.22380796620744897
8.715,0.0035115256454839104,86.95997855926363,0,60,3.0,7,0.22258773080620312
8.72,0.002660121266303676,86.86416411011633,0,60,3.0,7,0.22033327317920787
8.725,0.0019992692560877024,86.72573680860323,0,60,3.0,7,0.21707616020242895
8.73,0.0014907520044639367,86.54661868443019,0,60,3.0,7,0.21286161610423968
8.735,0.0011028178277539807,86.32926778050197,0,60,3.0,7,0.20774747718828154
8.74,0.0008094059938923333,86.0766220284689,0,60,3.0,7,0.20180287125809185
8.745,0.0005893771793717645,85.79203320823416,0,60,3.0,7,0.1951066637231567
8.75,0.0004257792353490551,85.47919306210486,0,60,3.0,7,0.18774571910834953
8.755,0.0003051686392901525,85.1420538353606,0,60,3.0,7,0.1798130314202494
8.76,0.00021699992642659966,84.78474562561813,0,60,3.0,7,0.1714057794263089
8.765,0.00015308884054097838,84.41149294219383,0,60,3.0,7,0.1626233633457372
8.77,0.00010714989329311098,84.02653280638995,0,60,3.0,7,0.15356547779741062
8.775,7.440535854020571e-05,83.63403657080012,0,60,3.0,7,0.14433027225412048
8.78,5.1260276743925106e-05,83.23803741033751,0,60,3.0,7,0.13501264494911794
8.785,3.503659887882241e-05,82.8423651525489,0,60,3.0,7,0.12570270947173867
8.79,2.375894748103639e-05,82.45058978476153,0,60,3.0,7,0.11648446552380078
8.795,1.5984413869232557e-05,82.06597461680163,0,60,3.0,7,0.1074346968659206
8.8,1.0669166579899869e-05,81.69143970684148,0,60,3.0,7,0.09862211074921126
8.805,7.06526633560511e-06,81.32953579030706,0,60,3.0,7,0.09010672447781323
8.81,4.641847214699205e-06,80.98242860237454,0,60,3.0,7,0.08193949652645977
8.815,3.025641074479182e-06,80.65189316618567,0,60,3.0,7,0.07416219214554524
8.82,1.9566278676921314e-06,80.33931734191135,0,60,3.0,7,0.06680746686850245
8.825,1.2553456560008793e-06,80.04571370388507,0,60,3.0,7,0.05989914597376636
8.83,7.990660428214668e-07,79.77173863904802,0,60,3.0,7,0.05345267385995351
8.835,5.046221251618276e-07,79.51771744188935,0,60,3.0,7,0.04747570451504343
8.84,3.1616527078858815e-07,79.28367411824715,0,60,3.0,7,0.04196880278228585
