Time,ECG,Pressure,R_Peaks,mean_hr,hrv_scale,Phase_Bin,Normalized_Pressure
0.0,0.001684486749771458,77.5,0,60,3.0,0,0.0
0.005,0.003097557930867117,77.5,0,60,3.0,0,0.0
0.01,0.005475106668887023,77.5,0,60,3.0,0,0.0
0.015,0.00930222931468658,77.5,0,60,3.0,0,0.0
0.02,0.01519157517868857,77.5,0,60,3.0,0,0.0
0.025,0.023847336626128316,77.5,0,60,3.0,0,0.0
0.03,0.0359830743700859,77.5,0,60,3.0,0,0.0
0.035,0.05218887796857759,77.5,0,60,3.0,0,0.0
0.04,0.0727577001223134,77.5,0,60,3.0,0,0.0
0.045,0.0974992498694751,77.5,0,60,3.0,0,0.0
0.05,0.12558706050443358,77.5,0,60,3.0,0,0.0
0.055,0.15549263588878245,77.5,0,60,3.0,0,0.0
0.06,0.1850529723539114,77.5,0,60,3.0,0,0.0
0.065,0.21169159439317053,77.5,0,60,3.0,0,0.0
0.07,0.23277292922115492,77.5,0,60,3.0,0,0.0
0.075,0.24602692519491282,77.5,0,60,3.0,0,0.0
0.08,0.24995056064839283,77.5,0,60,3.0,0,0.0
0.085,0.24408826520424054,77.5,0,60,3.0,0,0.0
0.09,0.22911894216865275,77.5,0,60,3.0,0,0.0
0.095,0.20672661788705934,77.5,0,60,3.0,0,0.0
0.1,0.17928878030241233,77.5,0,60,3.0,0,0.0
0.105,0.14946211903866036,77.5,0,60,3.0,0,0.0
0.11,0.1197651512573837,77.5,0,60,3.0,0,0.0
0.115,0.09224675744988023,77.5,0,60,3.0,0,0.0
0.12,0.06829565320281596,77.5,0,60,3.0,0,0.0
0.125,0.04860224607515734,77.5,0,60,3.0,0,0.0
0.13,0.03324612389699793,77.5,0,60,3.0,0,0.0
0.135,0.021859876340472782,77.5,0,60,3.0,0,0.0
0.14,0.01381595518554205,77.5,0,60,3.0,0,0.0
0.145,0.008394095110402422,77.5,0,60,3.0,0,0.0
0.15,0.0049052535271608,77.5,0,60,3.0,0,0.0
0.155,0.0027671663551903634,77.5,0,60,3.0,0,0.0
0.16,0.0015425553464444616,77.5,0,60,3.0,0,0.0
0.165,0.0009638206637011801,77.5,0,60,3.0,0,0.0
0.17,0.0009804935156568228,77.5,0,60,3.0,0,0.0
0.175,0.0018793744894085216,77.5,0,60,3.0,0,0.0
0.18,0.004535525206900863,77.5,0,60,3.0,0,0.0
0.185,0.010832767979632273,77.5,0,60,3.0,0,0.0
0.19,0.024208003392322392,77.5,0,60,3.0,0,0.0
0.195,0.0500971897335304,77.5,0,60,3.0,0,0.0
0.2,0.09582894921774403,77.5,0,60,3.0,0,0.0
0.205,0.16937896721820658,77.5,0,60,3.0,0,0.0
0.21,0.27661303008991756,77.5,0,60,3.0,0,0.0
0.215,0.4173782800009149,77.5,0,60,3.0,0,0.0
0.22,0.5818720934538056,77.5,0,60,3.0,0,0.0
0.225,0.7494718801585675,77.5,0,60,3.0,0,0.0
0.23,0.891813020752378,77.5,0,60,3.0,0,0.0
0.235,0.9800361632936612,77.5,0,60,3.0,0,0.0
0.24,0.993574479225126,77.5,0,60,3.0,0,0.0
0.245,0.9263438449375362,77.5,0,60,3.0,0,0.0
0.25,0.7873015962290536,77.5,0,60,3.0,0,0.0
0.255,0.5959516244629897,77.5,0,60,3.0,0,0.0
0.26,0.376910120078773,77.5,0,60,3.0,0,0.0
0.265,0.15739335672107918,77.5,0,60,3.0,0,0.0
0.27,-0.033361226269301235,77.5,0,60,3.0,0,0.0
0.275,-0.1680180840843834,77.5,0,60,3.0,0,0.0
0.28,-0.23069703190837854,77.5,0,60,3.0,0,0.0
0.285,-0.22587267821131068,77.5,0,60,3.0,0,0.0
0.29,-0.17718181630665902,77.5,0,60,3.0,0,0.0
0.295,-0.11494332516451301,77.5,0,60,3.0,0,0.0
0.3,-0.061810214049552864,77.5,0,60,3.0,0,0.0
0.305,-0.026546104631500547,77.5,0,60,3.0,0,0.0
0.31,-0.00719600351942686,77.5,0,60,3.0,0,0.0
0.315,0.0022072757983807078,77.5,0,60,3.0,0,0.0
0.32,0.006917199873730717,77.5,0,60,3.0,0,0.0
0.325,0.01004859748264829,77.5,0,60,3.0,0,0.0
0.33,0.013037082251128167,77.5,0,60,3.0,0,0.0
0.335,0.01645163937690478,77.5,0,60,3.0,0,0.0
0.34,0.020526639934696615,77.5,0,60,3.0,0,0.0
0.345,0.02539629541761738,77.5,0,60,3.0,0,0.0
0.35,0.031171612185577933,77.5,0,60,3.0,0,0.0
0.355,0.03795853426638131,77.5,0,60,3.0,0,0.0
0.36,0.0458588961882057,77.5,0,60,3.0,0,0.0
0.365,0.054966995891435555,77.5,0,60,3.0,0,0.0
0.37,0.06536491004445595,77.5,0,60,3.0,0,0.0
0.375,0.07711726085088699,77.5,0,60,3.0,0,0.0
0.38,0.09026570629555215,77.5,0,60,3.0,0,0.0
0.385,0.10482339848670268,77.5,0,60,3.0,0,0.0
0.39,0.12076968927580028,77.5,0,60,3.0,0,0.0
0.395,0.13804539501007884,77.5,0,60,3.0,0,0.0
0.4,0.15654895051787066,77.5,0,60,3.0,0,0.0
0.405,0.17613378141900526,77.5,0,60,3.0,0,0.0
0.41,0.19660720058055794,77.5,0,60,3.0,0,0.0
0.415,0.21773108748496234,77.5,0,60,3.0,0,0.0
0.42,0.23922453870058807,77.5,0,60,3.0,0,0.0
0.425,0.2607685857914563,77.5,0,60,3.0,0,0.0
0.43,0.2820129681603682,77.5,0,60,3.0,0,0.0
0.435,0.30258482867153996,77.5,0,60,3.0,0,0.0
0.44,0.3220990771751686,77.5,0,60,3.0,0,0.0
0.445,0.3401700499968971,77.5,0,60,3.0,0,0.0
0.45,0.3564239911198326,77.5,0,60,3.0,0,0.0
0.455,0.3705118017738417,77.5,0,60,3.0,0,0.0
0.46,0.3821214567925213,77.5,0,60,3.0,0,0.0
0.465,0.39098947374066967,77.5,0,60,3.0,0,0.0
0.47,0.3969108472035567,77.5,0,60,3.0,0,0.0
0.475,0.3997469255491936,77.5,0,60,3.0,0,0.0
0.48,0.3994308076379137,77.5,0,60,3.0,0,0.0
0.485,0.3959699661768434,77.5,0,60,3.0,0,0.0
0.49,0.38944595408114946,77.5,0,60,3.0,0,0.0
0.495,0.38001120995358023,77.5,0,60,3.0,0,0.0
0.5,0.3678831374098315,77.5,0,60,3.0,0,0.0
0.505,0.35333577933796634,77.5,0,60,3.0,0,0.0
0.51,0.33668953221163944,77.5,0,60,3.0,0,0.0
0.515,0.3182994390982644,77.5,0,60,3.0,0,0.0
0.52,0.29854265738230645,77.5,0,60,3.0,0,0.0
0.525,0.2778057157821067,77.5,0,60,3.0,0,0.0
0.53,0.2564721553719815,77.5,0,60,3.0,0,0.0
0.535,0.23491109433464996,77.5,0,60,3.0,0,0.0
0.54,0.21346717185309805,77.5,0,60,3.0,0,0.0
0.545,0.19245222055656455,77.5,0,60,3.0,0,0.0
0.55,0.17213889801761392,77.5,0,60,3.0,0,0.0
0.555,0.15275638501270183,77.5,0,60,3.0,0,0.0
0.56,0.13448814019607322,77.5,0,60,3.0,0,0.0
0.565,0.11747159495449566,77.5,0,60,3.0,0,0.0
0.57,0.10179958433370105,77.5,0,60,3.0,0,0.0
0.575,0.08752324394101413,77.5,0,60,3.0,0,0.0
0.58,0.07465606047174059,77.5,0,60,3.0,0,0.0
0.585,0.0631787448609295,77.5,0,60,3.0,0,0.0
0.59,0.05304460019959574,77.5,0,60,3.0,0,0.0
0.595,0.044185078305849994,77.5,0,60,3.0,0,0.0
0.6,0.03651525513023255,77.5,0,60,3.0,0,0.0
0.605,0.0299390014708757,77.5,0,60,3.0,0,0.0
0.61,0.024353677220580638,77.5,0,60,3.0,0,0.0
0.615,0.01965423034339045,77.5,0,60,3.0,0,0.0
0.62,0.015736632374757337,77.5,0,60,3.0,0,0.0
0.625,0.012500627640593535,77.5,0,60,3.0,0,0.0
0.63,0.009851811652115898,77.5,0,60,3.0,0,0.0
0.635,0.007703084175428559,77.5,0,60,3.0,0,0.0
0.64,0.005975544002062424,77.5,0,60,3.0,0,0.0
0.645,0.004598905818663047,77.5,0,60,3.0,0,0.0
0.65,0.0035115256454839104,77.5,0,60,3.0,0,0.0
0.655,0.002660121266303676,77.5,0,60,3.0,0,0.0
0.66,0.0019992692560877024,77.5,0,60,3.0,0,0.0
0.665,0.0014907520044639367,77.5,0,60,3.0,0,0.0
0.67,0.0011028178277539807,77.5,0,60,3.0,0,0.0
0.675,0.0008094059938923333,77.5,0,60,3.0,0,0.0
0.68,0.0005893771793717645,77.5,0,60,3.0,0,0.0
0.685,0.0004257792353490551,77.5,0,60,3.0,0,0.0
0.69,0.0003051686392901525,77.5,0,60,3.0,0,0.0
0.695,0.00021699992642659966,77.5,0,60,3.0,0,0.0
0.7,0.00015308884054097838,77.5,0,60,3.0,0,0.0
0.705,0.00010714989329311098,77.5,0,60,3.0,0,0.0
0.71,7.440535854020571e-05,77.5,0,60,3.0,0,0.0
0.715,5.1260276743925106e-05,77.5,0,60,3.0,0,0.0
0.72,3.503659887882241e-05,77.5,0,60,3.0,0,0.0
0.725,2.375894748103639e-05,77.5,0,60,3.0,0,0.0
0.73,1.5984413869232557e-05,77.5,0,60,3.0,0,0.0
0.735,1.0669166579899869e-05,77.5,0,60,3.0,0,0.0
0.74,7.06526633560511e-06,77.5,0,60,3.0,0,0.0
0.745,4.641847214699205e-06,77.5,0,60,3.0,0,0.0
0.75,3.025641074479182e-06,77.5,0,60,3.0,0,0.0
0.755,1.9566278676921314e-06,77.5,0,60,3.0,0,0.0
0.76,1.2553456560008793e-06,77.5,0,60,3.0,0,0.0
0.765,7.990660428214668e-07,77.5,0,60,3.0,0,0.0
0.77,5.046221251618276e-07,77.5,0,60,3.0,0,0.0
0.775,3.1616527078858815e-07,77.5,0,60,3.0,0,0.0
0.78,1.9652884407760343e-07,77.5,0,60,3.0,0,0.0
0.785,1.2120002189836396e-07,77.5,0,60,3.0,0,0.0
0.79,7.415549848886236e-08,77.5,0,60,3.0,0,0.0
0.795,4.501406988770349e-08,77.5,0,60,3.0,0,0.0
0.8,0.0,77.5,0,60,3.0,0,0.0
0.805,0.0,77.5,0,60,3.0,0,0.0
0.81,0.0,77.5,0,60,3.0,0,0.0
0.815,0.0,77.5,0,60,3.0,0,0.0
0.82,0.0,77.5,0,60,3.0,0,0.0
0.825,0.0,77.5,0,60,3.0,0,0.0
0.83,0.0,77.5,0,60,3.0,0,0.0
0.835,0.0,77.5,0,60,3.0,0,0.0
0.84,0.0,77.5,0,60,3.0,0,0.0
0.845,0.0,77.5,0,60,3.0,0,0.0
0.85,0.0,77.5,0,60,3.0,0,0.0
0.855,0.0,77.5,0,60,3.0,0,0.0
0.86,0.0,77.5,0,60,3.0,0,0.0
0.865,0.0,77.5,0,60,3.0,0,0.0
0.87,0.0,77.5,0,60,3.0,0,0.0
0.875,0.0,77.5,0,60,3.0,0,0.0
0.88,0.0,77.5,0,60,3.0,0,0.0
0.885,0.0,77.5,0,60,3.0,0,0.0
0.89,0.0,77.5,0,60,3.0,0,0.0
0.895,0.0,77.5,0,60,3.0,0,0.0
0.9,0.0,77.5,0,60,3.0,0,0.0
0.905,0.0,77.5,0,60,3.0,0,0.0
0.91,0.0,77.5,0,60,3.0,0,0.0
0.915,0.0,77.5,0,60,3.0,0,0.0
0.92,0.0,77.5,0,60,3.0,0,0.0
0.925,0.0,77.5,0,60,3.0,0,0.0
0.93,0.0,77.5,0,60,3.0,0,0.0
0.935,0.0,77.5,0,60,3.0,0,0.0
0.94,0.0,77.5,0,60,3.0,0,0.0
0.945,0.0,77.5,0,60,3.0,0,0.0
0.95,0.0,77.5,0,60,3.0,0,0.0
0.955,0.0,77.5,0,60,3.0,0,0.0
0.96,0.0,77.5,0,60,3.0,0,0.0
0.965,0.0,77.5,0,60,3.0,0,0.0
0.97,0.0,77.5,0,60,3.0,0,0.0
0.975,0.0,77.5,0,60,3.0,0,0.0
0.98,0.0,77.5,0,60,3.0,0,0.0
0.985,0.0,77.5,0,60,3.0,0,0.0
0.99,0.001684486749771458,77.5,0,60,3.0,0,0.0
0.995,0.003097557930867117,77.5,0,60,3.0,0,0.0
1.0,0.005475106668887023,77.5,0,60,3.0,0,0.0
1.005,0.00930222931468658,77.5,0,60,3.0,0,0.0
1.01,0.01519157517868857,77.5,0,60,3.0,0,0.0
1.015,0.023847336626128316,77.5,0,60,3.0,0,0.0
1.02,0.0359830743700859,77.5,0,60,3.0,0,0.0
1.025,0.05218887796857759,77.5,0,60,3.0,0,0.0
1.03,0.0727577001223134,77.5,0,60,3.0,0,0.0
1.035,0.0974992498694751,77.5,0,60,3.0,0,0.0
1.04,0.12558706050443358,77.5,0,60,3.0,0,0.0
1.045,0.15549263588878245,77.5,0,60,3.0,0,0.0
1.05,0.1850529723539114,77.5,0,60,3.0,0,0.0
1.055,0.21169159439317053,77.5,0,60,3.0,0,0.0
1.06,0.23277292922115492,77.5,0,60,3.0,0,0.0
1.065,0.24602692519491282,77.5,0,60,3.0,0,0.0
1.07,0.24995056064839283,77.5,0,60,3.0,0,0.0
1.075,0.24408826520424054,77.5,0,60,3.0,0,0.0
1.08,0.22911894216865275,77.5,0,60,3.0,0,0.0
1.085,0.20672661788705934,77.5,0,60,3.0,0,0.0
1.09,0.17928878030241233,77.5,0,60,3.0,0,0.0
1.095,0.14946211903866036,77.5,0,60,3.0,0,0.0
1.1,0.1197651512573837,77.5,0,60,3.0,0,0.0
1.105,0.09224675744988023,77.5,0,60,3.0,0,0.0
1.11,0.06829565320281596,77.5,0,60,3.0,0,0.0
1.115,0.04860224607515734,77.5,0,60,3.0,0,0.0
1.12,0.03324612389699793,77.5,0,60,3.0,0,0.0
1.125,0.021859876340472782,77.5,0,60,3.0,0,0.0
1.13,0.01381595518554205,77.5,0,60,3.0,0,0.0
1.135,0.008394095110402422,77.5,0,60,3.0,0,0.0
1.14,0.0049052535271608,77.5,0,60,3.0,0,0.0
1.145,0.0027671663551903634,77.5,0,60,3.0,0,0.0
1.15,0.0015425553464444616,77.5,0,60,3.0,0,0.0
1.155,0.0009638206637011801,77.5,0,60,3.0,0,0.0
1.16,0.0009804935156568228,77.5,0,60,3.0,0,0.0
1.165,0.0018793744894085216,77.5,0,60,3.0,0,0.0
1.17,0.004535525206900863,77.5,0,60,3.0,0,0.0
1.175,0.010832767979632273,77.5,0,60,3.0,0,0.0
1.18,0.024208003392322392,77.5,0,60,3.0,0,0.0
1.185,0.0500971897335304,77.5,0,60,3.0,0,0.0
1.19,0.09582894921774403,77.5,0,60,3.0,0,0.0
1.195,0.16937896721820658,77.5,0,60,3.0,0,0.0
1.2,0.27661303008991756,77.5,0,60,3.0,0,0.0
1.205,0.4173782800009149,77.5,0,60,3.0,1,0.0
1.21,0.5818720934538056,77.5,0,60,3.0,1,0.0
1.215,0.7494718801585675,77.5,0,60,3.0,1,0.0
1.22,0.891813020752378,77.5,0,60,3.0,1,0.0
1.225,0.9800361632936612,77.5,0,60,3.0,1,0.0
1.23,0.993574479225126,77.50000249553136,1,60,3.0,1,5.871838498826358e-08
1.235,0.9263438449375362,77.5000037979206,0,60,3.0,1,8.936283761078598e-08
1.24,0.7873015962290536,77.50000589651982,0,60,3.0,1,1.387416429064187e-07
1.245,0.5959516244629897,77.5000094348155,0,60,3.0,1,2.2199565872891553e-07
1.25,0.376910120078773,77.50001571195249,0,60,3.0,1,3.6969299966425324e-07
1.255,0.15739335672107918,77.50002740197677,0,60,3.0,1,6.447523944911261e-07
1.26,-0.033361226269301235,77.5000500328844,0,60,3.0,1,1.177244338885644e-06
1.265,-0.1680180840843834,77.50009495573708,0,60,3.0,1,2.234252637248681e-06
1.27,-0.23069703190837854,77.50018514752661,0,60,3.0,1,4.356412390774601e-06
1.275,-0.22587267821131068,77.50036623180388,0,60,3.0,1,8.617218914838198e-06
1.28,-0.17718181630665902,77.50072678709442,0,60,3.0,1,1.710087280992625e-05
1.285,-0.11494332516451301,77.50143461155861,0,60,3.0,1,3.3755566084892054e-05
1.29,-0.061810214049552864,77.5027993939534,0,60,3.0,1,6.58680930210748e-05
1.295,-0.026546104631500547,77.50537738125638,0,60,3.0,1,0.0001265266177971866
1.3,-0.00719600351942686,77.5101400375162,0,60,3.0,1,0.0002385891180281038
1.305,0.0022072757983807078,77.51873573170647,0,60,3.0,1,0.00044084074603460975
1.31,0.006917199873730717,77.53387969714991,0,60,3.0,1,0.0007971693447038486
1.315,0.01004859748264829,77.55991023047092,0,60,3.0,1,0.0014096524816686858
1.32,0.013037082251128167,77.60354438392822,0,60,3.0,1,0.00243633844536997
1.325,0.01645163937690478,77.67484918417814,0,60,3.0,1,0.004114098451250423
1.33,0.020526639934696615,77.7884093308522,0,60,3.0,1,0.0067861019024047994
1.335,0.02539629541761738,77.96461536956245,0,60,3.0,1,0.01093212634264593
1.34,0.031171612185577933,78.23091721059663,0,60,3.0,1,0.017198052014038345
1.345,0.03795853426638131,78.6227928599652,0,60,3.0,1,0.02641865552859298
1.35,0.0458588961882057,79.18408665755831,0,60,3.0,1,0.03962556841313672
1.355,0.054966995891435555,79.96630039667855,0,60,3.0,1,0.058030597568907015
1.36,0.06536491004445595,81.02640747170874,0,60,3.0,1,0.08297429345197027
1.365,0.07711726085088699,82.42283947403011,0,60,3.0,1,0.11583151703600265
1.37,0.09026570629555215,84.20949296015137,0,60,3.0,1,0.15787042259179684
1.375,0.10482339848670268,86.42792724167438,0,60,3.0,1,0.21006887627469134
1.38,0.12076968927580028,89.09834551335945,0,60,3.0,1,0.2729022473731635
1.385,0.13804539501007884,92.21040668051529,0,60,3.0,1,0.3461272160121245
1.39,0.15654895051787066,95.71530488045332,0,60,3.0,1,0.4285954089518428
1.395,0.17613378141900526,99.52076142138833,0,60,3.0,1,0.518135562856196
1.4,0.19660720058055794,103.49049392863455,0,60,3.0,1,0.6115410336149306
1.405,0.21773108748496234,107.44929879905975,0,60,3.0,1,0.7046893835072882
1.41,0.23922453870058807,111.1941190293451,0,60,3.0,1,0.792802800690473
1.415,0.2607685857914563,114.51047262775617,0,60,3.0,1,0.8708346500648512
1.42,0.2820129681603682,117.1925695932531,0,60,3.0,1,0.9339428139588964
1.425,0.30258482867153996,119.06457506308963,0,60,3.0,1,0.977990001484462
1.43,0.3220990771751686,120.0,0,60,3.0,1,1.0
1.435,0.3401700499968971,119.93626626357627,0,60,3.0,1,0.9985003826723828
1.44,0.3564239911198326,118.88213103465766,0,60,3.0,1,0.9736972008154744
1.445,0.3705118017738417,116.91676286621725,0,60,3.0,1,0.9274532439109943
1.45,0.3821214567925213,114.18061934032266,0,60,3.0,1,0.8630733962428863
1.455,0.39098947374066967,110.85960266710498,0,60,3.0,1,0.7849318274612936
1.46,0.3969108472035567,107.16499075378253,0,60,3.0,1,0.6979997824419419
1.465,0.3997469255491936,103.31215997547778,0,60,3.0,1,0.6073449405994773
1.47,0.3994308076379137,99.50105733238124,0,60,3.0,1,0.5176719372324997
1.475,0.3959699661768434,95.90080270694628,0,60,3.0,1,0.43296006369285367
1.48,0.38944595408114946,92.63987384862794,0,60,3.0,1,0.35623232585006925
1.485,0.38001120995358023,89.80227211535595,0,60,3.0,1,0.2894652262436693
1.49,0.3678831374098315,87.429107562273,0,60,3.0,1,0.23362606028877655
1.495,0.35333577933796634,85.52434499291017,0,60,3.0,1,0.18880811748023937
1.5,0.33668953221163944,84.06310121889615,0,60,3.0,1,0.1544259110328506
1.505,0.3182994390982644,83.00087339718817,0,60,3.0,1,0.129432315227957
1.51,0.29854265738230645,82.28233533973716,0,60,3.0,1,0.11252553740558022
1.515,0.2778057157821067,81.84875222780497,0,60,3.0,1,0.10232358183070507
1.52,0.2564721553719815,81.64351943719842,0,60,3.0,1,0.09749457499290402
1.525,0.23491109433464996,81.61573561778272,0,60,3.0,1,0.09684083806547572
1.53,0.21346717185309805,81.7220173312601,0,60,3.0,1,0.09934158426494365
1.535,0.19245222055656455,81.92693369355118,0,60,3.0,1,0.10416314573061594
1.54,0.17213889801761392,82.20249593298601,0,60,3.0,1,0.1106469631290826
1.545,0.15275638501270183,82.52710789170109,0,60,3.0,1,0.11828489156943747
1.55,0.13448814019607322,82.88430441935833,0,60,3.0,1,0.12668951574960777
1.555,0.11747159495449566,83.26150706007847,0,60,3.0,1,0.1355648720018464
1.56,0.10179958433370105,83.64893355810317,0,60,3.0,1,0.14468078960242745
1.565,0.08752324394101413,84.03872273042094,0,60,3.0,1,0.1538522995393163
1.57,0.07465606047174059,84.42428381662813,0,60,3.0,1,0.16292432509713253
1.575,0.0631787448609295,84.79984820751459,0,60,3.0,1,0.17176113429446085
1.58,0.05304460019959574,85.16018700493531,0,60,3.0,1,0.18023969423377198
1.585,0.044185078305849994,85.50045479613394,0,60,3.0,1,0.18824599520315147
1.59,0.03651525513023255,85.81612348054294,0,60,3.0,1,0.1956734936598339
1.595,0.0299390014708757,86.10297630590426,0,60,3.0,1,0.20242297190362973
1.6,0.024353677220580638,86.35713909920837,0,60,3.0,1,0.20840327292254984
1.605,0.01965423034339045,86.5751317625649,0,60,3.0,1,0.21353251206035045
1.61,0.015736632374757337,86.75392796721998,0,60,3.0,1,0.21773948158164658
1.615,0.012500627640593535,86.89101460585793,0,60,3.0,1,0.22096504954959842
1.62,0.009851811652115898,86.98444515996042,0,60,3.0,1,0.22316341552848037
1.625,0.007703084175428559,87.0328829744056,0,60,3.0,1,0.22430312880954342
1.63,0.005975544002062424,87.03563175280645,0,60,3.0,1,0.22436780594838712
1.635,0.004598905818663047,86.99265158497569,0,60,3.0,1,0.22335650788178094
1.64,0.0035115256454839104,86.90455962174919,0,60,3.0,1,0.2212837558058632
1.645,0.002660121266303676,86.7726151996039,0,60,3.0,1,0.2181791811671507
1.65,0.0019992692560877024,86.5986898271919,0,60,3.0,1,0.21408681946333893
1.655,0.0014907520044639367,86.38522299196607,0,60,3.0,1,0.20906407039920175
1.66,0.0011028178277539807,86.13516522658897,0,60,3.0,1,0.20318035827268158
1.665,0.0008094059938923333,85.85191028364954,0,60,3.0,1,0.19651553608587163
1.67,0.0005893771793717645,85.53921859307545,0,60,3.0,1,0.1891580845429517
1.675,0.0004257792353490551,85.20113441032936,0,60,3.0,1,0.18120316259598493
1.68,0.0003051686392901525,84.84189919885794,0,60,3.0,1,0.17275056938489283
1.685,0.00021699992642659966,84.4658638252098,0,60,3.0,1,0.16390267824023047
1.69,0.00015308884054097838,84.07740208207215,0,60,3.0,1,0.15476240193110952
1.695,0.00010714989329311098,83.68082789985633,0,60,3.0,1,0.14543124470250177
1.7,7.440535854020571e-05,83.28031837196917,0,60,3.0,1,0.136007491105157
1.705,5.1260276743925106e-05,82.87984441636587,0,60,3.0,1,0.12658457450272637
1.71,3.503659887882241e-05,82.48311054260569,0,60,3.0,1,0.11724965982601615
1.715,2.375894748103639e-05,82.09350480709807,0,60,3.0,1,0.10808246604936639
1.72,1.5984413869232557e-05,81.71405963766578,0,60,3.0,1,0.09915434441566551
1.725,1.0669166579899869e-05,81.34742380962653,0,60,3.0,1,0.09052761905003609
1.73,7.06526633560511e-06,80.99584547562104,0,60,3.0,1,0.0822551876616715
1.735,4.641847214699205e-06,80.66116580464649,0,60,3.0,1,0.07438037187403498
1.74,3.025641074479182e-06,80.34482248380725,0,60,3.0,1,0.0669369996189941
1.745,1.9566278676921314e-06,80.04786208778954,0,60,3.0,1,0.05994969618328328
1.75,1.2553456560008793e-06,79.77096013143739,0,60,3.0,1,0.05343435603382097
1.755,7.990660428214668e-07,79.51444749231865,0,60,3.0,1,0.04739876452514476
1.76,5.046221251618276e-07,79.278341822098,0,60,3.0,1,0.041843336990541165
1.765,3.1616527078858815e-07,79.06238255449453,0,60,3.0,1,0.0367619424586949
1.77,1.9652884407760343e-07,78.86606815798669,0,60,3.0,1,0.03214278018792209
1.775,1.2120002189836396e-07,78.68869436592169,0,60,3.0,1,0.027969279198157438
1.78,7.415549848886236e-08,78.52939223681737,0,60,3.0,1,0.02422099380746759
1.785,4.501406988770349e-08,78.38716504432811,0,60,3.0,1,0.020874471631249742
1.79,0.0,78.26092316041584,0,60,3.0,1,0.017904074362725703
1.795,0.0,78.14951626792161,0,60,3.0,1,0.01528273571580264
1.8,0.0,78.05176241193382,0,60,3.0,1,0.012982644986678171
1.805,0.0,77.96647356610181,0,60,3.0,1,0.010975848614160268
1.81,0.0,77.89247754460511,0,60,3.0,1,0.009234765755414454
1.815,0.0,77.8286362284681,0,60,3.0,1,0.00773261714042586
1.82,0.0,77.77386019328746,0,60,3.0,1,0.0064437692538226255
1.825,0.0,77.72711992251153,0,60,3.0,1,0.005343998176741974
1.83,0.0,77.68745386566955,0,60,3.0,1,0.004410679192224787
1.835,0.0,77.65397365492345,0,60,3.0,1,0.003622909527610532
1.84,0.0,77.62586682737643,0,60,3.0,1,0.00296157240885711
1.845,0.0,77.60239741673563,0,60,3.0,1,0.0024093509820147575
1.85,0.0,77.58290477863605,0,60,3.0,1,0.0019507006737893896
1.855,0.0,77.56680100188535,0,60,3.0,1,0.0015717882796553462
1.86,0.0,77.55356723584703,0,60,3.0,1,0.0012604055493418
1.865,0.0,77.54274923483845,0,60,3.0,1,0.001005864349140077
1.87,0.0,77.5339523862881,0,60,3.0,1,0.000798879677367214
1.875,0.0,77.52683645271036,0,60,3.0,1,0.0006314459461260172
1.88,0.0,77.52111022023206,0,60,3.0,1,0.0004967110642837725
1.885,0.0,77.51652621000613,0,60,3.0,1,0.0003888520001443313
1.89,0.0,77.51287557458264,0,60,3.0,1,0.0003029546960620417
1.895,0.0,77.50998327004963,0,60,3.0,1,0.00023490047175601724
1.9,0.0,77.50770356706387,0,60,3.0,1,0.0001812604015028415
1.905,0.0,77.50591594005692,0,60,3.0,1,0.0001391985895746556
1.91,0.0,77.5045213539901,0,60,3.0,1,0.00010638479976705639
1.915,0.0,77.50343895192604,0,60,3.0,1,8.091651590689253e-05
1.92,0.0,77.50260313413699,0,60,3.0,1,6.125021498800218e-05
1.925,0.0,77.50196101013708,0,60,3.0,1,4.614141499012155e-05
1.93,0.0,77.50147019851048,0,60,3.0,1,3.459290612882422e-05
1.935,0.0,77.50109694528726,0,60,3.0,1,2.581047734726299e-05
1.94,0.0,77.50081452947285,0,60,3.0,1,1.9165399361126593e-05
1.945,0.0,77.50060192376263,0,60,3.0,1,1.4162912061893247e-05
1.95,0.0,77.50044267910418,0,60,3.0,1,1.041597892193589e-05
1.955,0.0,77.50032400327848,0,60,3.0,1,7.623606552442652e-06
1.96,0.0,77.5002360057779,0,60,3.0,1,5.553077126893079e-06
1.965,0.0,77.50017108373179,0,60,3.0,1,4.025499571432246e-06
1.97,0.0,77.50012342628081,0,60,3.0,1,2.9041477837247786e-06
1.975,0.0,77.50008861748469,0,60,3.0,1,2.0851172868841626e-06
1.98,0.0,77.50006332045746,0,60,3.0,1,1.4898931166338597e-06
1.985,0.0,77.50004502788177,0,60,3.0,1,1.0594795710136062e-06
1.99,0.0,77.50003186631457,0,60,3.0,1,7.49795636987555e-07
1.995,0.0,77.50002244372865,0,60,3.0,1,5.28087733019835e-07
2.0,0.0,77.50001573153237,0,60,3.0,1,3.701537028679441e-07
2.005,0.0,77.50001097387214,0,60,3.0,1,2.5820875614900773e-07
2.01,0.0,77.50000761836212,0,60,3.0,1,1.7925557926901092e-07
2.015,0.001684486749771458,77.50000526351877,0,60,3.0,1,1.2384750053730815e-07
2.02,0.003097557930867117,77.50000361912504,0,60,3.0,1,8.51558832651148e-08
2.025,0.005475106668887023,77.50000247653146,0,60,3.0,1,5.827132855194898e-08
2.03,0.00930222931468658,77.50000168654122,0,60,3.0,1,3.9683322938799394e-08
2.035,0.01519157517868857,77.50000114304392,0,60,3.0,1,2.6895150995187578e-08
2.04,0.023847336626128316,77.50000077097754,0,60,3.0,1,1.814064790671503e-08
2.045,0.0359830743700859,77.50000051752744,0,60,3.0,1,1.2177116225168849e-08
2.05,0.05218887796857759,77.50000034573065,0,60,3.0,1,8.134838935802691e-09
2.055,0.0727577001223134,77.50000022985567,0,60,3.0,1,5.408368759376839e-09
2.06,0.0974992498694751,77.50000015208467,0,60,3.0,1,3.5784627444252904e-09
2.065,0.12558706050443358,77.50000010014482,0,60,3.0,1,2.3563486325549412e-09
2.07,0.15549263588878245,77.50000006562728,0,60,3.0,1,1.544171201363925e-09
2.075,0.1850529723539114,77.50000004280092,0,60,3.0,1,1.0070804739156944e-09
2.08,0.21169159439317053,77.50000002778016,0,60,3.0,1,6.536508328067344e-10
2.085,0.23277292922115492,77.50000001794442,0,60,3.0,1,4.222215466143098e-10
2.09,0.24602692519491282,77.5000000115355,0,60,3.0,1,2.714236469567849e-10
2.095,0.24995056064839283,77.50000000738001,0,60,3.0,1,1.7364728217430907e-10
2.1,0.24408826520424054,77.50000000469883,0,60,3.0,1,1.1056078405732371e-10
2.105,0.22911894216865275,77.50000000297739,0,60,3.0,1,7.005617001542466e-11
2.11,0.20672661788705934,77.50000000187757,0,60,3.0,1,4.417803639251575e-11
2.115,0.17928878030241233,77.50000000117832,0,60,3.0,1,2.7725210362833048e-11
2.12,0.14946211903866036,77.50000000073595,0,60,3.0,1,1.7316511623314855e-11
2.125,0.1197651512573837,77.50000000045745,0,60,3.0,1,1.0763468547820058e-11
2.13,0.09224675744988023,77.50000000028298,0,60,3.0,1,6.658370586913353e-12
2.135,0.06829565320281596,77.50000000017421,0,60,3.0,1,4.0990792459685025e-12
2.14,0.04860224607515734,77.50000000010674,0,60,3.0,1,2.511475994491347e-12
2.145,0.03324612389699793,77.50000000006509,0,60,3.0,1,1.5314285787205924e-12
2.15,0.021859876340472782,77.50000000003949,0,60,3.0,1,9.292227118481499e-13
2.155,0.01381595518554205,77.50000000002385,0,60,3.0,1,5.610779814613874e-13
2.16,0.008394095110402422,77.50000000001434,0,60,3.0,1,3.373824095915017e-13
2.165,0.0049052535271608,77.50000000000857,0,60,3.0,1,2.0162695042980724e-13
2.17,0.0027671663551903634,77.5000000000051,0,60,3.0,1,1.2003992571194163e-13
2.175,0.0015425553464444616,77.50000000000303,0,60,3.0,1,7.122146010207122e-14
2.18,0.0009638206637011801,77.50000000000178,0,60,3.0,1,4.1796631515300014e-14
2.185,0.0009804935156568228,77.50000000000105,0,60,3.0,1,2.4743605857057607e-14
2.19,0.0018793744894085216,77.50000000000061,0,60,3.0,1,1.4378041241263203e-14
2.195,0.004535525206900863,77.50000000000036,0,60,3.0,1,8.359326303060002e-15
2.2,0.010832767979632273,77.5000000000002,0,60,3.0,1,4.681222729713601e-15
2.205,0.024208003392322392,77.50000000000011,0,60,3.0,1,2.6749844169792007e-15
2.21,0.0500971897335304,77.50000000000007,0,60,3.0,1,1.6718652606120004e-15
2.215,0.09582894921774403,77.50000000000004,0,60,3.0,1,1.0031191563672002e-15
2.22,0.16937896721820658,77.50000000000001,0,60,3.0,1,3.343730521224001e-16
2.225,0.27661303008991756,77.50000000000001,0,60,3.0,1,3.343730521224001e-16
2.23,0.4173782800009149,77.5,0,60,3.0,1,0.0
2.235,0.5818720934538056,77.5,0,60,3.0,1,0.0
2.24,0.7494718801585675,77.5,0,60,3.0,1,0.0
2.245,0.891813020752378,77.5,0,60,3.0,1,0.0
2.25,0.9800361632936612,77.5,0,60,3.0,1,0.0
2.255,0.993574479225126,77.50000249181176,1,60,3.0,1,5.863086484810885e-08
2.26,0.9263438449375362,77.50000384183856,0,60,3.0,1,9.039620147846375e-08
2.265,0.7873015962290536,77.50000605203118,0,60,3.0,1,1.4240073369364837e-07
2.27,0.5959516244629897,77.5000098502643,0,60,3.0,1,2.317709248365966e-07
2.275,0.376910120078773,77.50001674040978,0,60,3.0,1,3.9389199474392037e-07
2.28,0.15739335672107918,77.50002988936268,0,60,3.0,1,7.032791218615089e-07
2.285,-0.033361226269301235,77.50005598658028,0,60,3.0,1,1.3173313006705832e-06
2.29,-0.1680180840843834,77.50010904250446,0,60,3.0,1,2.565705987348445e-06
2.295,-0.23069703190837854,77.50021792763697,0,60,3.0,1,5.127709105114691e-06
2.3,-0.22587267821131068,77.50044088337641,0,60,3.0,1,1.0373726503838256e-05
2.305,-0.17718181630665902,77.50089256449868,0,60,3.0,1,2.1001517616107722e-05
2.31,-0.11494332516451301,77.50179276579377,0,60,3.0,1,4.218272455920455e-05
2.315,-0.061810214049552864,77.50355118942913,0,60,3.0,1,8.355739833251285e-05
2.32,-0.026546104631500547,77.50690959240086,0,60,3.0,1,0.00016257864472610142
2.325,-0.00719600351942686,77.51317112223475,0,60,3.0,1,0.00030990875846475104
2.33,0.0022072757983807078,77.52455545137923,0,60,3.0,1,0.0005777753265700834
2.335,0.006917199873730717,77.54472497706796,0,60,3.0,1,0.0010523524015990033
2.34,0.01004859748264829,77.57952766654348,0,60,3.0,1,0.001871239212787861
2.345,0.013037082251128167,77.63799012210991,0,60,3.0,1,0.0032468264025861597
2.35,0.01645163937690478,77.7335629797193,0,60,3.0,1,0.005495599522806943
2.355,0.020526639934696615,77.88556318136334,0,60,3.0,1,0.009072074855607954
2.36,0.02539629541761738,78.12067063847793,0,60,3.0,1,0.014604015023010173
2.365,0.031171612185577933,78.47422412231587,0,60,3.0,1,0.022922920525079396
2.37,0.03795853426638131,78.99093771170499,0,60,3.0,1,0.03508088733423499
2.375,0.0458588961882057,79.72455313644113,0,60,3.0,1,0.05234242673979131
2.38,0.054966995891435555,80.7358957043249,0,60,3.0,1,0.07613872245470361
2.385,0.06536491004445595,82.08885917455554,0,60,3.0,1,0.10797315704836559
2.39,0.07711726085088699,83.84404871167135,0,60,3.0,1,0.149271734392267
2.395,0.09026570629555215,86.05017854498587,0,60,3.0,1,0.20118067164672632
2.4,0.10482339848670268,88.73382931864452,0,60,3.0,1,0.26432539573281233
2.405,0.12076968927580028,91.88874480991677,0,60,3.0,1,0.33855870140980643
2.41,0.13804539501007884,95.46636445671342,0,60,3.0,2,0.4227379872167864
2.415,0.15654895051787066,99.36959295544153,0,60,3.0,2,0.5145786577750949
2.42,0.17613378141900526,103.45175485582882,0,60,3.0,2,0.6106295260195017
2.425,0.19660720058055794,107.5221797930646,0,60,3.0,2,0.7064042304250493
2.43,0.21773108748496234,111.35892106398657,0,60,3.0,2,0.7966804956232134
2.435,0.23922453870058807,114.72785713078791,0,60,3.0,2,0.8759495795479508
2.44,0.2607685857914563,117.40610393874456,0,60,3.0,2,0.9389671514998721
2.445,0.2820129681603682,119.20657953132158,0,60,3.0,2,0.9813312830899196
2.45,0.30258482867153996,120.0,0,60,3.0,2,1.0
2.455,0.3220990771751686,119.73073626244305,0,60,3.0,2,0.9936643826457188
2.46,0.3401700499968971,118.4238494759471,0,60,3.0,2,0.9629141053164022
2.465,0.3564239911198326,116.18208945321945,0,60,3.0,2,0.910166810663987
2.47,0.3705118017738417,113.1733745291447,0,60,3.0,2,0.8393735183328164
2.475,0.3821214567925213,109.61089082664786,0,60,3.0,2,0.7555503723917144
2.48,0.39098947374066967,105.7291023657552,0,60,3.0,2,0.6642141733118869
2.485,0.3969108472035567,101.75942264604797,0,60,3.0,2,0.5708099446128934
2.49,0.3997469255491936,97.90901232617857,0,60,3.0,2,0.4802120547336134
2.495,0.3994308076379137,94.34526416670559,0,60,3.0,2,0.39635915686366097
2.5,0.3959699661768434,91.18727314888353,0,60,3.0,2,0.3220534858560832
2.505,0.38944595408114946,88.50427463175579,0,60,3.0,2,0.2589241089824892
2.51,0.38001120995358023,86.3199414541806,0,60,3.0,2,0.20752803421601396
2.515,0.3678831374098315,84.62074135275094,0,60,3.0,2,0.16754685535884564
2.52,0.35333577933796634,83.36632600348436,0,60,3.0,2,0.13803120008198494
2.525,0.33668953221163944,82.5000975498113,0,60,3.0,2,0.11764935411320708
2.53,0.3182994390982644,81.95854814001777,0,60,3.0,2,0.1049070150592416
2.535,0.29854265738230645,81.67853656537754,0,60,3.0,2,0.09831850742064803
2.54,0.2778057157821067,81.60221366217804,0,60,3.0,2,0.09652267440418928
2.545,0.2564721553719815,81.67973868879486,0,60,3.0,2,0.09834679267752602
2.55,0.23491109433464996,81.87019922391292,0,60,3.0,2,0.10282821703324517
2.555,0.21346717185309805,82.14126026801704,0,60,3.0,2,0.109206123953342
2.56,0.19245222055656455,82.46805768409277,0,60,3.0,2,0.11689547491982988
2.565,0.17213889801761392,82.83176315010746,0,60,3.0,2,0.12545325059076384
2.57,0.15275638501270183,83.21812687136497,0,60,3.0,2,0.13454416167917582
2.575,0.13448814019607322,83.61618424954153,0,60,3.0,2,0.14391021763627135
2.58,0.11747159495449566,84.01721373745077,0,60,3.0,2,0.15334620558707704
2.585,0.10179958433370105,84.41396310723198,0,60,3.0,2,0.16268148487604656
2.59,0.08752324394101413,84.80011942466255,0,60,3.0,2,0.17176751587441305
2.595,0.07465606047174059,85.1699784655929,0,60,3.0,2,0.18047008154336247
2.6,0.0631787448609295,85.51826494996435,0,60,3.0,2,0.18866505764621994
2.605,0.05304460019959574,85.840059253804,0,60,3.0,2,0.1962366883248
2.61,0.044185078305849994,86.13079426679849,0,60,3.0,2,0.20307751215996445
2.615,0.03651525513023255,86.38629466659549,0,60,3.0,2,0.20908928627283505
2.62,0.0299390014708757,86.60283845793114,0,60,3.0,2,0.21418443430426218
2.625,0.024353677220580638,86.77722659458583,0,60,3.0,2,0.21828768457849004
2.63,0.01965423034339045,86.90685088831356,0,60,3.0,2,0.22133766796031898
2.635,0.015736632374757337,86.98975350722205,0,60,3.0,2,0.22328831781698935
2.64,0.012500627640593535,87.02467353697683,0,60,3.0,2,0.22410996557592552
2.645,0.009851811652115898,87.0110776394444,0,60,3.0,2,0.223790062104574
2.65,0.007703084175428559,86.94917303121116,0,60,3.0,2,0.2223334830873214
2.655,0.005975544002062424,86.83990197261397,0,60,3.0,2,0.2197623993556229
2.66,0.004598905818663047,86.68491779355341,0,60,3.0,2,0.21611571278949201
2.665,0.0035115256454839104,86.4865432253902,0,60,3.0,2,0.21144807589153394
2.67,0.002660121266303676,86.2477124690008,0,60,3.0,2,0.20582852868237184
2.675,0.0019992692560877024,85.9718990017495,0,60,3.0,2,0.19933880004116483
2.68,0.0014907520044639367,85.66303159799958,0,60,3.0,2,0.1920713317176371
2.685,0.0011028178277539807,85.32540139533346,0,60,3.0,2,0.1841270916549049
2.69,0.0008094059938923333,84.96356307129537,0,60,3.0,2,0.1756132487363616
2.695,0.0005893771793717645,84.58223329764274,0,60,3.0,2,0.16664078347394692
2.7,0.0004257792353490551,84.18618961118601,0,60,3.0,2,0.15732210849849432
2.705,0.0003051686392901525,83.78017268883372,0,60,3.0,2,0.14776876914902862
2.71,0.00021699992642659966,83.36879475167348,0,60,3.0,2,0.13808928827467004
2.715,0.00015308884054097838,82.95645646592097,0,60,3.0,2,0.12838721096284625
2.72,0.00010714989329311098,82.5472742782177,0,60,3.0,2,0.11875939478159292
2.725,7.440535854020571e-05,82.1450196423469,0,60,3.0,2,0.10929457981992695
2.73,5.1260276743925106e-05,81.75307108830053,0,60,3.0,2,0.10007226090118894
2.735,3.503659887882241e-05,81.37437957677281,0,60,3.0,2,0.09116187239465436
2.74,2.375894748103639e-05,81.01144709498455,0,60,3.0,2,0.08262228458787169
2.745,1.5984413869232557e-05,80.66631800298667,0,60,3.0,2,0.0745016000702746
2.75,1.0669166579899869e-05,80.34058224944994,0,60,3.0,2,0.06683722939882206
2.755,7.06526633560511e-06,80.03538925452028,0,60,3.0,2,0.059656217753418415
2.76,4.641847214699205e-06,79.75147101231343,0,60,3.0,2,0.0529757885250219
2.765,3.025641074479182e-06,79.4891728003454,0,60,3.0,2,0.046804065890480015
2.77,1.9566278676921314e-06,79.24848979680112,0,60,3.0,2,0.041140936395320564
2.775,1.2553456560008793e-06,79.02910789449058,0,60,3.0,2,0.035979009282131276
2.78,7.990660428214668e-07,78.8304470550233,0,60,3.0,2,0.03130463658878351
2.785,5.046221251618276e-07,78.65170565820313,0,60,3.0,2,0.027098956663602996
2.79,3.1616527078858815e-07,78.49190445841805,0,60,3.0,2,0.02333892843336584
2.795,1.9652884407760343e-07,78.34992894961812,0,60,3.0,2,0.01999832822630865
2.8,1.2120002189836396e-07,78.22456915105091,0,60,3.0,2,0.017048685907080346
2.805,7.415549848886236e-08,78.11455604558064,0,60,3.0,2,0.014460142248956278
2.81,4.501406988770349e-08,78.018594120612,0,60,3.0,2,0.01220221460263514
2.815,0.0,77.93538966935525,0,60,3.0,2,0.010244462808358723
2.82,0.0,77.86367470016516,0,60,3.0,2,0.008557051768592066
2.825,0.0,77.80222646861542,0,60,3.0,2,0.00711121102624508
2.83,0.0,77.74988278736755,0,60,3.0,2,0.0058795949968836175
2.835,0.0,77.70555338106993,0,60,3.0,2,0.004836550142821954
2.84,0.0,77.66822763736607,0,60,3.0,2,0.0039582973497899465
2.845,0.0,77.63697916182198,0,60,3.0,2,0.0032230391016937307
2.85,0.0,77.61096757646521,0,60,3.0,2,0.0026110017991815017
2.855,0.0,77.58943801168321,0,60,3.0,2,0.002104423804310914
2.86,0.0,77.57171873294385,0,60,3.0,2,0.0016874995986788288
2.865,0.0,77.55721732087633,0,60,3.0,2,0.0013462899029725443
2.87,0.0,77.54541578936765,0,60,3.0,2,0.0010686068086506431
2.875,0.0,77.53586498497702,0,60,3.0,2,0.0008438819994594001
2.88,0.0,77.52817856529884,0,60,3.0,2,0.0006630250658551685
2.885,0.0,77.52202680664169,0,60,3.0,2,0.0005182778033338978
2.89,0.0,77.5171304447848,0,60,3.0,2,0.0004030692890540542
2.895,0.0,77.51325470838246,0,60,3.0,2,0.0003118754913520447
2.9,0.0,77.51020366409061,0,60,3.0,2,0.00024008621389672204
2.905,0.0,77.50781495653038,0,60,3.0,2,0.00018388133012663008
2.91,0.0,77.50595499523384,0,60,3.0,2,0.00014011753491378358
2.915,0.0,77.50451461486995,0,60,3.0,2,0.00010622623223405433
2.92,0.0,77.50340521419459,0,60,3.0,2,8.012268693144452e-05
2.925,0.0,77.50255536298914,0,60,3.0,2,6.012618797981037e-05
2.93,0.0,77.50190785429267,0,60,3.0,2,4.489068923924285e-05
2.935,0.0,77.50141717096078,0,60,3.0,2,3.334519907712895e-05
2.94,0.0,77.50104733043376,0,60,3.0,2,2.4643069029734227e-05
2.945,0.0,77.50077006899966,0,60,3.0,2,1.811927058016034e-05
2.95,0.0,77.50056332625815,0,60,3.0,2,1.3254735485776002e-05
2.955,0.0,77.50040999143872,0,60,3.0,2,9.646857381540031e-06
2.96,0.0,77.50029687526775,0,60,3.0,2,6.985300417655333e-06
2.965,0.0,77.50021387384992,0,60,3.0,2,5.032325880366068e-06
2.97,0.0,77.50015329422482,0,60,3.0,2,3.6069229368502634e-06
2.975,0.0,77.50010931464227,0,60,3.0,2,2.5721092299590965e-06
2.98,0.0,77.50007755598538,0,60,3.0,2,1.824846714939935e-06
2.985,0.0,77.50005474402688,0,60,3.0,2,1.288094750193255e-06
2.99,0.0,77.50003844524194,0,60,3.0,2,9.045939280253258e-07
2.995,0.0,77.50002686166287,0,60,3.0,2,6.320391264580394e-07
3.0,0.0,77.50001867272185,0,60,3.0,2,4.393581611887331e-07
3.005,0.0,77.50001291417894,0,60,3.0,2,3.0386303385111047e-07
3.01,0.001684486749771458,77.5000088860839,0,60,3.0,2,2.0908432715901547e-07
3.015,0.003097557930867117,77.50000608328911,0,60,3.0,2,1.431362143060088e-07
3.02,0.005475106668887023,77.50000414334353,0,60,3.0,2,9.7490436032518e-08
3.025,0.00930222931468658,77.50000280768167,0,60,3.0,2,6.606309806128968e-08
3.03,0.01519157517868857,77.50000189290678,0,60,3.0,2,4.453898307420947e-08
3.035,0.023847336626128316,77.50000126968219,0,60,3.0,2,2.9874874986917885e-08
3.04,0.0359830743700859,77.50000084731572,0,60,3.0,2,1.9936840424313284e-08
3.045,0.05218887796857759,77.50000056257437,0,60,3.0,2,1.3237044025599436e-08
3.05,0.0727577001223134,77.50000037161998,0,60,3.0,2,8.743999427786228e-09
3.055,0.0974992498694751,77.50000024423203,0,60,3.0,2,5.7466359200642566e-09
3.06,0.12558706050443358,77.50000015969474,0,60,3.0,2,3.757523191940409e-09
3.065,0.15549263588878245,77.50000010388743,0,60,3.0,2,2.444410122681053e-09
3.07,0.1850529723539114,77.50000006723879,0,60,3.0,2,1.5820891054746051e-09
3.075,0.21169159439317053,77.50000004329733,0,60,3.0,2,1.018760793372434e-09
3.08,0.23277292922115492,77.50000002773875,0,60,3.0,2,6.526764697328498e-10
3.085,0.24602692519491282,77.5000000176806,0,60,3.0,2,4.1601424527470956e-10
3.09,0.24995056064839283,77.50000001121222,0,60,3.0,2,2.6381699439405244e-10
3.095,0.24408826520424054,77.50000000707409,0,60,3.0,2,1.6644923348127014e-10
3.1,0.22911894216865275,77.50000000444052,0,60,3.0,2,1.0448288508889484e-10
3.105,0.20672661788705934,77.5000000027732,0,60,3.0,2,6.525189800253001e-11
3.11,0.17928878030241233,77.50000000172311,0,60,3.0,2,4.054373568899738e-11
3.115,0.14946211903866036,77.5000000010652,0,60,3.0,2,2.5063600867938744e-11
3.12,0.1197651512573837,77.50000000065513,0,60,3.0,2,1.5414932075894767e-11
3.125,0.09224675744988023,77.50000000040089,0,60,3.0,2,9.432663800372906e-12
3.13,0.06829565320281596,77.50000000024406,0,60,3.0,2,5.7425227971500995e-12
3.135,0.04860224607515734,77.50000000014782,0,60,3.0,2,3.4781484881772057e-12
3.14,0.03324612389699793,77.50000000008907,0,60,3.0,2,2.0958502907032036e-12
3.145,0.021859876340472782,77.5000000000534,0,60,3.0,2,1.2565739298759795e-12
3.15,0.01381595518554205,77.50000000003186,0,60,3.0,2,7.49664382858421e-13
3.155,0.008394095110402422,77.5000000000189,0,60,3.0,2,4.447161593227921e-13
3.16,0.0049052535271608,77.50000000001116,0,60,3.0,2,2.6248284591608404e-13
3.165,0.0027671663551903634,77.50000000000655,0,60,3.0,2,1.5414597702842645e-13
3.17,0.0015425553464444616,77.50000000000384,0,60,3.0,2,9.028072407304802e-14
3.175,0.0009638206637011801,77.50000000000223,0,60,3.0,2,5.2496569183216817e-14
3.18,0.0009804935156568228,77.5000000000013,0,60,3.0,2,3.042794774313841e-14
3.185,0.0018793744894085216,77.50000000000074,0,60,3.0,2,1.7387398710364806e-14
3.19,0.004535525206900863,77.50000000000043,0,60,3.0,2,1.0031191563672003e-14
3.195,0.010832767979632273,77.50000000000024,0,60,3.0,2,5.684341886080802e-15
3.2,0.024208003392322392,77.50000000000014,0,60,3.0,2,3.343730521224001e-15
3.205,0.0500971897335304,77.50000000000007,0,60,3.0,2,1.6718652606120004e-15
3.21,0.09582894921774403,77.50000000000004,0,60,3.0,2,1.0031191563672002e-15
3.215,0.16937896721820658,77.50000000000003,0,60,3.0,2,6.687461042448002e-16
3.22,0.27661303008991756,77.50000000000001,0,60,3.0,2,3.343730521224001e-16
3.225,0.4173782800009149,77.5,0,60,3.0,2,0.0
3.23,0.5818720934538056,77.5,0,60,3.0,2,0.0
3.235,0.7494718801585675,77.5,0,60,3.0,2,0.0
3.24,0.891813020752378,77.5,0,60,3.0,2,0.0
3.245,0.9800361632936612,77.5,0,60,3.0,2,0.0
3.25,0.993574479225126,77.50000249045704,1,60,3.0,2,5.8598989065050027e-08
3.255,0.9263438449375362,77.50000400286618,0,60,3.0,2,9.418508652208189e-08
3.26,0.7873015962290536,77.50000660952055,0,60,3.0,2,1.555181306818721e-07
3.265,0.5959516244629897,77.5000113773939,0,60,3.0,2,2.6770338596339997e-07
3.27,0.376910120078773,77.5000206800147,0,60,3.0,2,4.865885811715784e-07
3.275,0.15739335672107918,77.50003988970043,0,60,3.0,2,9.385811866275831e-07
3.28,-0.033361226269301235,77.50008114480768,0,60,3.0,2,1.909289592477388e-06
3.285,-0.1680180840843834,77.50017146932757,0,60,3.0,2,4.034572413381872e-06
3.29,-0.23069703190837854,77.50036966292575,0,60,3.0,2,8.697951194094725e-06
3.295,-0.22587267821131068,77.50080013320535,0,60,3.0,2,1.8826663655184294e-05
3.3,-0.17718181630665902,77.50171803030102,0,60,3.0,2,4.042424237695741e-05
3.305,-0.11494332516451301,77.50362954819681,0,60,3.0,2,8.54011340426469e-05
3.31,-0.061810214049552864,77.50750465345409,0,60,3.0,2,0.00017658008127274544
3.315,-0.026546104631500547,77.51513635873366,0,60,3.0,2,0.0003561496172624977
3.32,-0.00719600351942686,77.52971845398473,0,60,3.0,2,0.0006992577408171281
3.325,0.0022072757983807078,77.55672640712274,0,60,3.0,2,0.001334738991123258
3.33,0.006917199873730717,77.60518349208301,0,60,3.0,2,0.0024749056960709313
3.335,0.01004859748264829,77.68936109165882,0,60,3.0,2,0.004455555097854692
3.34,0.013037082251128167,77.83088124422308,0,60,3.0,2,0.007785441040543032
3.345,0.01645163937690478,78.06104685361299,0,60,3.0,2,0.013201102437952774
3.35,0.020526639934696615,78.42301913064607,0,60,3.0,2,0.021718097191672194
3.355,0.02539629541761738,78.97321532329926,0,60,3.0,2,0.03466388995998253
3.36,0.031171612185577933,79.78106862202478,0,60,3.0,2,0.0536722028711712
3.365,0.03795853426638131,80.92616704013723,0,60,3.0,2,0.08061569506205248
3.37,0.0458588961882057,82.49188087315376,0,60,3.0,2,0.11745602054479437
3.375,0.054966995891435555,84.55499957417746,0,60,3.0,2,0.16599998998064608
3.38,0.06536491004445595,87.17167035654579,0,60,3.0,2,0.22756871427166564
3.385,0.07711726085088699,90.36099647690827,0,60,3.0,2,0.30261168180960635
3.39,0.09026570629555215,94.0888101039506,0,60,3.0,2,0.3903249436223672
3.395,0.10482339848670268,98.25505812911113,0,60,3.0,2,0.488354308920262
3.4,0.12076968927580028,102.68855449551354,0,60,3.0,2,0.5926718704826716
3.405,0.13804539501007884,107.15225614582596,0,60,3.0,2,0.6977001446076696
3.41,0.15654895051787066,111.36061521112637,0,60,3.0,2,0.7967203579088559
3.415,0.17613378141900526,115.00815548001408,0,60,3.0,2,0.8825448348238607
3.42,0.19660720058055794,117.80573409149028,0,60,3.0,2,0.9483702139174184
3.425,0.21773108748496234,119.51869485233112,0,60,3.0,2,0.9886751729960265
3.43,0.23922453870058807,120.0,0,60,3.0,2,1.0
3.435,0.2607685857914563,119.21189098020238,0,60,3.0,2,0.9814562583577031
3.44,0.2820129681603682,117.23168901317155,0,60,3.0,2,0.934863270898154
3.445,0.30258482867153996,114.2405381865799,0,60,3.0,2,0.8644832514489388
3.45,0.3220990771751686,110.49739961418078,0,60,3.0,2,0.7764094026866065
3.455,0.3401700499968971,106.30350731821878,0,60,3.0,2,0.6777295839580889
3.46,0.3564239911198326,101.96406843219336,0,60,3.0,2,0.5756251395810201
3.465,0.3705118017738417,97.75391648887043,0,60,3.0,2,0.4765627409145984
3.47,0.3821214567925213,93.89227362858045,0,60,3.0,2,0.3857005559665989
3.475,0.39098947374066967,90.52930083433867,0,60,3.0,2,0.30657178433738047
3.48,0.3969108472035567,87.7444479493286,0,60,3.0,2,0.24104583410184946
3.485,0.3997469255491936,85.55442755793808,0,60,3.0,2,0.18951594253971962
3.49,0.3994308076379137,83.92735255965935,0,60,3.0,2,0.15123182493316129
3.495,0.3959699661768434,82.79929983163439,0,60,3.0,2,0.12468940780316203
3.5,0.38944595408114946,82.0901146172202,0,60,3.0,2,0.10800269687576929
3.505,0.38001120995358023,81.71631047268848,0,60,3.0,2,0.09920730523972887
3.51,0.3678831374098315,81.60007781779635,0,60,3.0,2,0.09647241924226699
3.515,0.35333577933796634,81.67439999880918,0,60,3.0,2,0.0982211764425689
3.52,0.33668953221163944,81.88493163304463,0,60,3.0,2,0.1031748619539913
3.525,0.3182994390982644,82.18959337525769,0,60,3.0,2,0.11034337353547498
3.53,0.29854265738230645,82.55684664422355,0,60,3.0,2,0.11898462692290716
3.535,0.2778057157821067,82.96344010636709,0,60,3.0,2,0.1285515319145197
3.54,0.2564721553719815,83.39217445531156,0,60,3.0,2,0.13863939894850733
3.545,0.23491109433464996,83.82999341927682,0,60,3.0,2,0.14894102163004277
3.55,0.21346717185309805,84.26652148916875,0,60,3.0,2,0.15921227033338242
3.555,0.19245222055656455,84.69304616891482,0,60,3.0,2,0.16924814515093692
3.56,0.17213889801761392,85.10187795604234,0,60,3.0,2,0.17886771661276105
3.565,0.15275638501270183,85.48599890030965,0,60,3.0,2,0.1879058564778742
3.57,0.13448814019607322,85.83891352299925,0,60,3.0,2,0.19620972995292352
3.575,0.11747159495449566,86.15463052503546,0,60,3.0,2,0.20363836529495194
3.58,0.10179958433370105,86.4277212025642,0,60,3.0,2,0.21006402829562823
3.585,0.08752324394101413,86.65341617743188,0,60,3.0,2,0.2153744982925148
3.59,0.07465606047174059,86.82771425468918,0,60,3.0,2,0.21947562952209845
3.595,0.0631787448609295,86.9474859418092,0,60,3.0,2,0.22229378686609894
3.6,0.05304460019959574,87.0105601271492,0,60,3.0,2,0.22377788534468718
3.605,0.044185078305849994,87.0157864779795,0,60,3.0,2,0.22390085830540007
3.61,0.03651525513023255,86.96306900177544,0,60,3.0,2,0.22266044710059854
3.615,0.0299390014708757,86.85336841846404,0,60,3.0,3,0.22007925690503632
3.62,0.024353677220580638,86.68867281242585,0,60,3.0,3,0.21620406617472587
3.625,0.01965423034339045,86.47193761649515,0,60,3.0,3,0.21110441450576833
3.63,0.015736632374757337,86.20699737426307,0,60,3.0,3,0.20487052645324866
3.635,0.012500627640593535,85.8984529263956,0,60,3.0,3,0.1976106570916613
3.64,0.009851811652115898,85.55153864288467,0,60,3.0,3,0.18944796806787448
3.645,0.007703084175428559,85.17197504361916,0,60,3.0,3,0.1805170598498625
3.65,0.005975544002062424,84.76581258930942,0,60,3.0,3,0.17096029621904515
3.655,0.004598905818663047,84.33927257205036,0,60,3.0,3,0.16092406051883204
3.66,0.0035115256454839104,83.89859089414512,0,60,3.0,3,0.150555079862238
3.665,0.002660121266303676,83.44987011584652,0,60,3.0,3,0.1399969439022711
3.67,0.0019992692560877024,82.99894451253525,0,60,3.0,3,0.12938692970671167
3.675,0.0014907520044639367,82.55126205636239,0,60,3.0,3,0.11885322485558564
3.68,0.0011028178277539807,82.11178628145264,0,60,3.0,3,0.10851261838712088
3.685,0.0008094059938923333,81.68491996439298,0,60,3.0,3,0.0984687050445406
3.69,0.0005893771793717645,81.27445151196082,0,60,3.0,3,0.08881062381084281
3.695,0.0004257792353490551,80.88352395118474,0,60,3.0,3,0.0796123282631704
3.7,0.0003051686392901525,80.51462551121838,0,60,3.0,3,0.07093236496984433
3.705,0.00021699992642659966,80.16960001103217,0,60,3.0,3,0.06281411790663938
3.71,0.00015308884054097838,79.84967464939723,0,60,3.0,3,0.05528646233875834
3.715,0.00010714989329311098,79.55550235008373,0,60,3.0,3,0.04836476117844066
3.72,7.440535854020571e-05,79.2872155500403,0,60,3.0,3,0.042052130589183556
3.725,5.1260276743925106e-05,79.04448822532551,0,60,3.0,3,0.036340899419423735
3.73,3.503659887882241e-05,78.82660301340243,0,60,3.0,3,0.03121418855064549
3.735,2.375894748103639e-05,78.63252048869307,0,60,3.0,3,0.02664754091042529
3.74,1.5984413869232557e-05,78.46094795381482,0,60,3.0,3,0.022610540089760555
3.745,1.0669166579899869e-05,78.31040549197006,0,60,3.0,3,0.01906836451694256
3.75,7.06526633560511e-06,78.179287456471,0,60,3.0,3,0.015983234269905926
3.755,4.641847214699205e-06,78.06591802285838,0,60,3.0,3,0.013315718184903142
3.76,3.025641074479182e-06,77.96859987210378,0,60,3.0,3,0.011025879343618365
3.765,1.9566278676921314e-06,77.8856554887536,0,60,3.0,3,0.009074246794202335
3.77,1.2553456560008793e-06,77.81546092920453,0,60,3.0,3,0.007422610098930203
3.775,7.990660428214668e-07,77.7564722312998,0,60,3.0,3,0.006034640736465783
3.78,5.046221251618276e-07,77.70724489073726,0,60,3.0,3,0.004876350370288412
3.785,3.1616527078858815e-07,77.66644702050948,0,60,3.0,3,0.003916400482576003
3.79,1.9652884407760343e-07,77.6328669386945,0,60,3.0,3,0.003126280910458945
3.795,1.2120002189836396e-07,77.60541600235295,0,60,3.0,3,0.002480376525951843
3.8,7.415549848886236e-08,77.58312752819495,0,60,3.0,3,0.0019559418398811803
3.805,4.501406988770349e-08,77.56515262252844,0,60,3.0,3,0.001533002883022217
3.81,0.0,77.55075369282372,0,60,3.0,3,0.0011942045370286745
3.815,0.0,77.53929633998295,0,60,3.0,3,0.0009246197643048002
3.82,0.0,77.53024024244493,0,60,3.0,3,0.0007115351163513558
3.825,0.0,77.52312954797354,0,60,3.0,3,0.0005442246582009268
3.83,0.0,77.51758319256689,0,60,3.0,3,0.000413722178044442
3.835,0.0,77.51328547327073,0,60,3.0,3,0.00031259937107593565
3.84,0.0,77.50997711637612,0,60,3.0,3,0.00023475567943812754
3.845,0.0,77.50744700690414,0,60,3.0,3,0.00017522369186220952
3.85,0.0,77.50552468073164,0,60,3.0,3,0.00012999248780327916
3.855,0.0,77.5040736276038,0,60,3.0,3,9.585006126592495e-05
3.86,0.0,77.50298541131669,0,60,3.0,3,7.024497215732427e-05
3.865,0.0,77.50217458173086,0,60,3.0,3,5.11666289613084e-05
3.87,0.0,77.50157433085046,0,60,3.0,3,3.704307883434494e-05
3.875,0.0,77.5011328306406,0,60,3.0,3,2.665483860235273e-05
3.88,0.0,77.50081018216575,0,60,3.0,3,1.90631097823638e-05
3.885,0.0,77.50057590265568,0,60,3.0,3,1.3550650721954833e-05
3.89,0.0,77.50040687798673,0,60,3.0,3,9.573599687856212e-06
3.895,0.0,77.5002857116946,0,60,3.0,3,6.722628108277337e-06
3.9,0.0,77.5001994070693,0,60,3.0,3,4.691931042423354e-06
3.905,0.0,77.50013832535542,0,60,3.0,3,3.254714245231833e-06
3.91,0.0,77.50009536999269,0,60,3.0,3,2.2439998280574134e-06
3.915,0.0,77.50006535373524,0,60,3.0,3,1.5377349467705832e-06
3.92,0.001684486749771458,77.50004451206985,0,60,3.0,3,1.0473428199689165e-06
3.925,0.003097557930867117,77.50003013241054,0,60,3.0,3,7.089978951438859e-07
3.93,0.005475106668887023,77.50002027396405,0,60,3.0,3,4.770344483350687e-07
3.935,0.00930222931468658,77.50001355789229,0,60,3.0,3,3.1900923030501446e-07
3.94,0.01519157517868857,77.50000901144418,0,60,3.0,3,2.1203398064779535e-07
3.945,0.023847336626128316,77.50000595312942,0,60,3.0,3,1.4007363334070866e-07
3.95,0.0359830743700859,77.50000390881361,0,60,3.0,3,9.197208495446403e-08
3.955,0.05218887796857759,77.50000255089928,0,60,3.0,3,6.002115957712436e-08
3.96,0.0727577001223134,77.50000165458991,0,60,3.0,3,3.893152726210674e-08
3.965,0.0974992498694751,77.50000106668489,0,60,3.0,3,2.509846795232186e-08
3.97,0.12558706050443358,77.50000068348757,0,60,3.0,3,1.6082060483313397e-08
3.975,0.15549263588878245,77.5000004352851,0,60,3.0,3,1.0242002404351404e-08
3.98,0.1850529723539114,77.50000027552798,0,60,3.0,3,6.483011314712177e-09
3.985,0.21169159439317053,77.50000017334301,0,60,3.0,3,4.078659083675387e-09
3.99,0.23277292922115492,77.5000001083916,0,60,3.0,3,2.550390664670404e-09
3.995,0.24602692519491282,77.5000000673649,0,60,3.0,3,1.5850563319391393e-09
4.0,0.24995056064839283,77.50000004161217,0,60,3.0,3,9.791098337326035e-10
4.005,0.24408826520424054,77.50000002554793,0,60,3.0,3,6.011278481524e-10
4.01,0.22911894216865275,77.50000001558978,0,60,3.0,3,3.6681827248899295e-10
4.015,0.20672661788705934,77.50000000945525,0,60,3.0,3,2.224764477218474e-10
4.02,0.17928878030241233,77.50000000569973,0,60,3.0,3,1.341113468644086e-10
4.025,0.14946211903866036,77.50000000341495,0,60,3.0,3,8.035185066332547e-11
4.03,0.1197651512573837,77.50000000203359,0,60,3.0,3,4.7849118131767574e-11
4.035,0.09224675744988023,77.50000000120363,0,60,3.0,3,2.8320728768663044e-11
4.04,0.06829565320281596,77.50000000070806,0,60,3.0,3,1.6660137321998583e-11
4.045,0.04860224607515734,77.50000000041399,0,60,3.0,3,9.74095575442976e-12
4.05,0.03324612389699793,77.50000000024059,0,60,3.0,3,5.660935772432234e-12
4.055,0.021859876340472782,77.50000000013895,0,60,3.0,3,3.269499703652828e-12
4.06,0.01381595518554205,77.50000000007978,0,60,3.0,3,1.877170314615154e-12
4.065,0.008394095110402422,77.50000000004552,0,60,3.0,3,1.0709968859480474e-12
4.07,0.0049052535271608,77.5000000000258,0,60,3.0,3,6.072214626542785e-13
4.075,0.0027671663551903634,77.50000000001455,0,60,3.0,3,3.423980053733377e-13
4.08,0.0015425553464444616,77.50000000000816,0,60,3.0,3,1.9193013191825765e-13
4.085,0.0009638206637011801,77.50000000000453,0,60,3.0,3,1.0666500362704563e-13
4.09,0.0009804935156568228,77.50000000000252,0,60,3.0,3,5.918403022566482e-14
4.095,0.0018793744894085216,77.50000000000138,0,60,3.0,3,3.243418605587281e-14
4.1,0.004535525206900863,77.50000000000075,0,60,3.0,3,1.7721771762487205e-14
4.105,0.010832767979632273,77.50000000000041,0,60,3.0,3,9.696818511549603e-15
4.11,0.024208003392322392,77.50000000000023,0,60,3.0,3,5.349968833958401e-15
4.115,0.0500971897335304,77.50000000000011,0,60,3.0,3,2.6749844169792007e-15
4.12,0.09582894921774403,77.50000000000006,0,60,3.0,3,1.3374922084896003e-15
4.125,0.16937896721820658,77.50000000000003,0,60,3.0,3,6.687461042448002e-16
4.13,0.27661303008991756,77.50000000000001,0,60,3.0,3,3.343730521224001e-16
4.135,0.4173782800009149,77.50000000000001,0,60,3.0,3,3.343730521224001e-16
4.14,0.5818720934538056,77.5,0,60,3.0,3,0.0
4.145,0.7494718801585675,77.5,0,60,3.0,3,0.0
4.15,0.891813020752378,77.5,0,60,3.0,3,0.0
4.155,0.9800361632936612,77.5,0,60,3.0,3,0.0
4.16,0.993574479225126,77.50000249005134,1,60,3.0,3,5.8589443383158035e-08
4.165,0.9263438449375362,77.50000394038275,0,60,3.0,3,9.271488833666595e-08
4.17,0.7873015962290536,77.50000639218067,0,60,3.0,3,1.504042509569605e-07
4.175,0.5959516244629897,77.50001077235028,0,60,3.0,3,2.534670653965483e-07
4.18,0.376910120078773,77.50001908666758,0,60,3.0,3,4.490980606586912e-07
4.185,0.15739335672107918,77.5000357548629,0,60,3.0,3,8.412908919260243e-07
4.19,-0.033361226269301235,77.5000705175213,0,60,3.0,3,1.659235795159475e-06
4.195,-0.1680180840843834,77.5001445789881,0,60,3.0,3,3.401858543504525e-06
4.2,-0.23069703190837854,77.5003031686916,0,60,3.0,3,7.133380978864486e-06
4.205,-0.22587267821131068,77.5006403428687,0,60,3.0,3,1.5066891028388508e-05
4.21,-0.17718181630665902,77.50134618528463,0,60,3.0,3,3.167494787369244e-05
4.215,-0.11494332516451301,77.50279324668047,0,60,3.0,3,6.572345130514216e-05
4.22,-0.061810214049552864,77.5056885995389,0,60,3.0,3,0.0001338494009152836
4.225,-0.026546104631500547,77.51133023532057,0,60,3.0,3,0.00026659377224873157
4.23,-0.00719600351942686,77.52202043086514,0,60,3.0,3,0.0005181277850621267
4.235,0.0022072757983807078,77.54170079619027,0,60,3.0,3,0.000981195204476936
4.24,0.006917199873730717,77.57687766493112,0,60,3.0,3,0.0018088862336733602
4.245,0.01004859748264829,77.63789263572853,0,60,3.0,3,0.003244532605377264
4.25,0.013037082251128167,77.74054920623045,0,60,3.0,3,0.0056599813230695205
4.255,0.01645163937690478,77.90802055981457,0,60,3.0,3,0.009600483760342914
4.26,0.020526639934696615,78.17282908364092,0,60,3.0,3,0.015831272556256944
4.265,0.02539629541761738,78.57851124527741,0,60,3.0,3,0.025376735182997916
4.27,0.031171612185577933,79.1803885212917,0,60,3.0,3,0.03953855344215774
4.275,0.03795853426638131,80.0447076348371,0,60,3.0,3,0.059875473760872835
4.28,0.0458588961882057,81.24536512508388,0,60,3.0,3,0.08812623823726774
4.285,0.054966995891435555,82.85757412646959,0,60,3.0,3,0.12606056768163731
4.29,0.06536491004445595,84.94822898129785,0,60,3.0,3,0.17525244661877282
4.295,0.07711726085088699,87.56338750820743,0,60,3.0,3,0.23678558842841005
4.3,0.09026570629555215,90.7141492895029,0,60,3.0,3,0.3109211597530094
4.305,0.10482339848670268,94.3630917299998,0,60,3.0,3,0.39677862894117166
4.31,0.12076968927580028,98.41408530862822,0,60,3.0,3,0.4920961249088992
4.315,0.13804539501007884,102.70847428298099,0,60,3.0,3,0.5931405713642585
4.32,0.15654895051787066,107.03007195676986,0,60,3.0,3,0.694825222512232
4.325,0.17613378141900526,111.12012910549245,0,60,3.0,3,0.7910618613057048
4.33,0.19660720058055794,114.70155663171694,0,60,3.0,3,0.8753307442756927
4.335,0.21773108748496234,117.50960206611181,0,60,3.0,3,0.941402401555572
4.34,0.23922453870058807,119.32441468611549,0,60,3.0,3,0.9841038749674232
4.345,0.2607685857914563,120.0,0,60,3.0,3,1.0
4.35,0.2820129681603682,119.48430356356428,0,60,3.0,3,0.9878659662015126
4.355,0.30258482867153996,117.826618813132,0,60,3.0,3,0.9488616191325177
4.36,0.3220990771751686,115.17088635739287,0,60,3.0,3,0.8863737966445382
4.365,0.3401700499968971,111.73617728815637,0,60,3.0,3,0.8055571126625028
4.37,0.3564239911198326,107.78805988304259,0,60,3.0,3,0.7126602325421787
4.375,0.3705118017738417,103.60606181643028,0,60,3.0,3,0.6142602780336537
4.38,0.3821214567925213,99.45274455247792,0,60,3.0,3,0.5165351659406571
4.385,0.39098947374066967,95.54902758884025,0,60,3.0,3,0.42468300209035875
4.39,0.3969108472035567,92.05866703799698,0,60,3.0,3,0.342556871482282
4.395,0.3997469255491936,89.08271495386987,0,60,3.0,3,0.2725344695028204
4.4,0.3994308076379137,86.66288698908318,0,60,3.0,3,0.21559734091960414
4.405,0.3959699661768434,84.7914392365105,0,60,3.0,3,0.1715632761531882
4.41,0.38944595408114946,83.42457875378753,0,60,3.0,3,0.1394018530302948
4.415,0.38001120995358023,82.49656511278434,0,60,3.0,3,0.11756623794786679
4.42,0.3678831374098315,81.93230111406058,0,60,3.0,3,0.10428943797789597
4.425,0.35333577933796634,81.65708944599176,0,60,3.0,3,0.09781386931745313
4.43,0.33668953221163944,81.60309706988252,0,60,3.0,3,0.09654346046782407
4.435,0.3182994390982644,81.71274607711119,0,60,3.0,3,0.09912343710849862
4.44,0.29854265738230645,81.93966161579142,0,60,3.0,3,0.10446262625391582
4.445,0.2778057157821067,82.2479621143257,0,60,3.0,3,0.11171675563119299
4.45,0.2564721553719815,82.6106363930207,0,60,3.0,3,0.12025026807107525
4.455,0.23491109433464996,83.00759804884157,0,60,3.0,3,0.12959054232568407
4.46,0.21346717185309805,83.42381432070776,0,60,3.0,3,0.1393838663695944
4.465,0.19245222055656455,83.84772730242526,0,60,3.0,3,0.14935828946882954
4.47,0.17213889801761392,84.2700476135659,0,60,3.0,3,0.1592952379662563
4.475,0.15275638501270183,84.68291151017121,0,60,3.0,3,0.16900968259226373
4.48,0.13448814019607322,85.07934584035235,0,60,3.0,3,0.17833754918476108
4.485,0.11747159495449566,85.45296939810551,0,60,3.0,3,0.18712869172012964
4.49,0.10179958433370105,85.79786185623578,0,60,3.0,3,0.19524380838201844
4.495,0.08752324394101413,86.10854277553481,0,60,3.0,3,0.2025539476596427
4.5,0.07465606047174059,86.38001673381514,0,60,3.0,3,0.20894157020741505
4.505,0.0631787448609295,86.60785292524119,0,60,3.0,3,0.21430242177038095
4.51,0.05304460019959574,86.78827731415377,0,60,3.0,3,0.21854770150950056
4.515,0.044185078305849994,86.91826250749796,0,60,3.0,3,0.22160617664701074
4.52,0.03651525513023255,86.99560542459125,0,60,3.0,3,0.22342600999038228
4.525,0.0299390014708757,87.0189862207937,0,60,3.0,3,0.22397614637161664
4.53,0.024353677220580638,86.98800431460441,0,60,3.0,3,0.22324716034363318
4.535,0.01965423034339045,86.90318917628503,0,60,3.0,3,0.22125151003023588
4.54,0.015736632374757337,86.76598501082319,0,60,3.0,3,0.21802317672525146
4.545,0.012500627640593535,86.57870974203561,0,60,3.0,3,0.21361669981260267
4.55,0.009851811652115898,86.34448983173559,0,60,3.0,3,0.20810564309966087
4.555,0.007703084175428559,86.06717345510422,0,60,3.0,3,0.20158055188480528
4.56,0.005975544002062424,85.75122538441936,0,60,3.0,3,0.19414647963339662
4.565,0.004598905818663047,85.40160758432508,0,60,3.0,3,0.1859201784547077
4.57,0.0035115256454839104,85.02364997133708,0,60,3.0,3,0.17702705814910774
4.575,0.002660121266303676,84.62291602458168,0,60,3.0,3,0.16759802410780433
4.58,0.0019992692560877024,84.20506795077087,0,60,3.0,3,0.15776630472402042
4.585,0.0014907520044639367,83.77573591248671,0,60,3.0,3,0.147664374411452
4.59,0.0011028178277539807,83.34039544429893,0,60,3.0,3,0.137421069277622
4.595,0.0008094059938923333,82.90425663486596,0,60,3.0,3,0.1271589796439049
4.6,0.0005893771793717645,82.47216798110777,0,60,3.0,3,0.11699218779077114
4.605,0.0004257792353490551,82.04853706370281,0,60,3.0,3,0.10702440149888964
4.61,0.0003051686392901525,81.63726939449548,0,60,3.0,3,0.09734751516459944
4.615,0.00021699992642659966,81.2417259881692,0,60,3.0,3,0.08804061148633396
4.62,0.00015308884054097838,80.8646994518398,0,60,3.0,3,0.07916939886681876
4.625,0.00010714989329311098,80.50840770089148,0,60,3.0,3,0.0707860635503878
4.63,7.440535854020571e-05,80.17450382440545,0,60,3.0,3,0.06292950175071643
4.635,5.1260276743925106e-05,79.86410015805667,0,60,3.0,3,0.055625886071921704
4.64,3.503659887882241e-05,79.57780428725738,0,60,3.0,3,0.0488895126413501
4.645,2.375894748103639e-05,79.31576450138492,0,60,3.0,3,0.04272387062082163
4.65,1.5984413869232557e-05,79.07772214650204,0,60,3.0,3,0.037122874035342125
4.655,1.0669166579899869e-05,78.86306836805602,0,60,3.0,3,0.03207219689543576
4.66,7.06526633560511e-06,78.6709028806394,0,60,3.0,3,0.027550656015044778
4.665,4.641847214699205e-06,78.5000926295495,0,60,3.0,3,0.023531591283517627
4.67,3.025641074479182e-06,78.34932849723454,0,60,3.0,3,0.0199841999349303
4.675,1.9566278676921314e-06,78.21717853497664,0,60,3.0,3,0.01687478905827387
4.68,1.2553456560008793e-06,78.10213654545474,0,60,3.0,3,0.014167918716582134
4.685,7.990660428214668e-07,78.00266518625371,0,60,3.0,3,0.011827416147146068
4.69,5.046221251618276e-07,77.91723309183077,0,60,3.0,3,0.009817249219547448
4.695,3.1616527078858815e-07,77.84434580911395,0,60,3.0,3,0.008102254332092851
4.7,1.9652884407760343e-07,77.78257060052039,0,60,3.0,3,0.006648720012244399
4.705,1.2120002189836396e-07,77.73055538198753,0,60,3.0,3,0.005424832517353613
4.71,7.415549848886236e-08,77.68704223011872,0,60,3.0,3,0.0044009936498522455
4.715,4.501406988770349e-08,77.65087601213253,0,60,3.0,3,0.003550023814883014
4.72,0.0,77.62100876770332,0,60,3.0,3,0.00284726512243096
4.725,0.0,77.59650050750213,0,60,3.0,3,0.002270600176520662
4.73,0.0,77.57651709501268,0,60,3.0,3,0.001800402235592374
4.735,0.0,77.56032585238711,0,60,3.0,3,0.001419431820873155
4.74,0.0,77.547289484281,0,60,3.0,3,0.0011126937477881176
4.745,0.0,77.5368588520975,0,60,3.0,3,0.0008672671081763597
4.75,0.0,77.52856506068116,0,60,3.0,3,0.0006721190748508246
4.755,0.0,77.52201124528382,0,60,3.0,3,0.0005179116537369603
4.76,0.0,77.51686437276233,0,60,3.0,3,0.00039680877087829795
4.765,0.0,77.51284730072327,0,60,3.0,3,0.00030228942878272175
4.77,0.0,77.50973127407018,0,60,3.0,3,0.00022897115459239318
4.775,0.0,77.50732898167006,0,60,3.0,3,0.000172446627530743
4.78,0.0,77.50548824744804,0,60,3.0,3,0.00012913523407158156
4.785,0.0,77.50408639034983,0,60,3.0,3,9.615036117238293e-05
4.79,0.0,77.50302525601475,0,60,3.0,3,7.118249446474532e-05
4.795,0.0,77.50222689906738,0,60,3.0,3,5.2397625114843e-05
4.8,0.0,77.50162987782451,0,60,3.0,3,3.835006645912846e-05
4.805,0.0,77.50118611196181,0,60,3.0,3,2.7908516748579237e-05
4.81,0.0,77.50085824728407,0,60,3.0,3,2.019405374285805e-05
4.815,0.0,77.50061746921084,0,60,3.0,3,1.4528687313820816e-05
4.82,0.0,77.5004417070119,0,60,3.0,4,1.0393106162395911e-05
4.825,0.0,77.50031417338934,0,60,3.0,4,7.392315043328862e-06
4.83,0.0,77.50022218800947,0,60,3.0,4,5.227953164087333e-06
4.835,0.0,77.50015623846248,0,60,3.0,4,3.6761991171876133e-06
4.84,0.0,77.50010923741436,0,60,3.0,4,2.570292102679078e-06
4.845,0.0,77.50007594006851,0,60,3.0,4,1.7868251414738017e-06
4.85,0.0,77.50005249122094,0,60,3.0,4,1.2350875515628158e-06
4.855,0.0,77.50003607600858,0,60,3.0,4,8.488472608004325e-07
4.86,0.001684486749771458,77.50002465280872,0,60,3.0,4,5.80066087503142e-07
4.865,0.003097557930867117,77.50001675060308,0,60,3.0,4,3.9413183719047726e-07
4.87,0.005475106668887023,77.50001131646036,0,60,3.0,4,2.6626965550616765e-07
4.875,0.00930222931468658,77.50000760163272,0,60,3.0,4,1.7886194628398002e-07
4.88,0.01519157517868857,77.5000050771416,0,60,3.0,4,1.194621551589722e-07
4.885,0.023847336626128316,77.50000337169115,0,60,3.0,4,7.93339094183038e-08
4.89,0.0359830743700859,77.50000222634475,0,60,3.0,4,5.238458229809219e-08
4.895,0.05218887796857759,77.50000146168287,0,60,3.0,4,3.439253813506666e-08
4.9,0.0727577001223134,77.50000095417937,0,60,3.0,4,2.2451279298419488e-08
4.905,0.0974992498694751,77.50000061933126,0,60,3.0,4,1.4572500236574663e-08
4.91,0.12558706050443358,77.50000039969811,0,60,3.0,4,9.404661394749863e-09
4.915,0.15549263588878245,77.50000025648225,0,60,3.0,4,6.034876525304486e-09
4.92,0.1850529723539114,77.50000016364345,0,60,3.0,4,3.850434094441452e-09
4.925,0.21169159439317053,77.50000010381405,0,60,3.0,4,2.442683420239893e-09
4.93,0.23277292922115492,77.50000006548316,0,60,3.0,4,1.5407803242423516e-09
4.935,0.24602692519491282,77.5000000410695,0,60,3.0,4,9.663411299912053e-10
4.94,0.24995056064839283,77.50000002561092,0,60,3.0,4,6.026097895194065e-10
4.945,0.24408826520424054,77.50000001587988,0,60,3.0,4,3.736441639750196e-10
4.95,0.22911894216865275,77.50000000979006,0,60,3.0,4,2.3035427682985114e-10
4.955,0.20672661788705934,77.50000000600122,0,60,3.0,4,1.412050711651853e-10
4.96,0.17928878030241233,77.50000000365772,0,60,3.0,4,8.606394551273243e-11
4.965,0.14946211903866036,77.50000000221664,0,60,3.0,4,5.215617741615621e-11
4.97,0.1197651512573837,77.50000000133566,0,60,3.0,4,3.142738879593226e-11
4.975,0.09224675744988023,77.50000000080023,0,60,3.0,4,1.8828880938064472e-11
4.98,0.06829565320281596,77.5000000004767,0,60,3.0,4,1.121654403344591e-11
4.985,0.04860224607515734,77.50000000028236,0,60,3.0,4,6.643658172619967e-12
4.99,0.03324612389699793,77.5000000001663,0,60,3.0,4,3.9128334559363255e-12
4.995,0.021859876340472782,77.50000000009737,0,60,3.0,4,2.2911241531426853e-12
5.0,0.01381595518554205,77.5000000000567,0,60,3.0,4,1.3341484779683763e-12
5.005,0.008394095110402422,77.50000000003283,0,60,3.0,4,7.724017504027442e-13
5.01,0.0049052535271608,77.50000000001889,0,60,3.0,4,4.443817862706697e-13
5.015,0.0027671663551903634,77.50000000001081,0,60,3.0,4,2.5445789266514647e-13
5.02,0.0015425553464444616,77.50000000000615,0,60,3.0,4,1.4478353156899923e-13
5.025,0.0009638206637011801,77.50000000000348,0,60,3.0,4,8.192139776998802e-14
5.03,0.0009804935156568228,77.50000000000196,0,60,3.0,4,4.614348119289121e-14
5.035,0.0018793744894085216,77.5000000000011,0,60,3.0,4,2.5746725013424807e-14
5.04,0.004535525206900863,77.50000000000061,0,60,3.0,4,1.4378041241263203e-14
5.045,0.010832767979632273,77.50000000000034,0,60,3.0,4,8.024953250937602e-15
5.05,0.024208003392322392,77.50000000000018,0,60,3.0,4,4.3468496775912015e-15
5.055,0.0500971897335304,77.5000000000001,0,60,3.0,4,2.3406113648568006e-15
5.06,0.09582894921774403,77.50000000000006,0,60,3.0,4,1.3374922084896003e-15
5.065,0.16937896721820658,77.50000000000003,0,60,3.0,4,6.687461042448002e-16
5.07,0.27661303008991756,77.50000000000001,0,60,3.0,4,3.343730521224001e-16
5.075,0.4173782800009149,77.50000000000001,0,60,3.0,4,3.343730521224001e-16
5.08,0.5818720934538056,77.5,0,60,3.0,4,0.0
5.085,0.7494718801585675,77.5,0,60,3.0,4,0.0
5.09,0.891813020752378,77.5,0,60,3.0,4,0.0
5.095,0.9800361632936612,77.5,0,60,3.0,4,0.0
5.1,0.993574479225126,77.50000249379623,1,60,3.0,4,5.8677558372972485e-08
5.105,0.9263438449375362,77.5000037873591,0,60,3.0,4,8.911433189282167e-08
5.11,0.7873015962290536,77.50000586643203,0,60,3.0,4,1.3803369490554305e-07
5.115,0.5959516244629897,77.50000936112565,0,60,3.0,4,2.202617799733108e-07
5.12,0.376910120078773,77.50001553885947,0,60,3.0,4,3.656202228713108e-07
5.125,0.15739335672107918,77.5000269987902,0,60,3.0,4,6.352656518682873e-07
5.13,-0.033361226269301235,77.50004909538588,0,60,3.0,4,1.1551855500195362e-06
5.135,-0.1680180840843834,77.5000927881157,0,60,3.0,4,2.1832497810357704e-06
5.14,-0.23069703190837854,77.50018019691618,0,60,3.0,4,4.239927439437665e-06
5.145,-0.22587267821131068,77.50035512985896,0,60,3.0,4,8.355996681409712e-06
5.15,-0.17718181630665902,77.50070244716376,0,60,3.0,4,1.652816855907451e-05
5.155,-0.11494332516451301,77.50138258743117,0,60,3.0,4,3.253146896862049e-05
5.16,-0.061810214049552864,77.50269116678194,0,60,3.0,4,6.332157133984391e-05
5.165,-0.026546104631500547,77.50515844333034,0,60,3.0,4,0.00012137513718458007
5.17,-0.00719600351942686,77.50970954477438,0,60,3.0,4,0.00022845987704426187
5.175,0.0022072757983807078,77.5179131238936,0,60,3.0,4,0.00042148526808486006
5.18,0.006917199873730717,77.5323521823347,0,60,3.0,4,0.0007612278196401188
5.185,0.01004859748264829,77.55715374596484,0,60,3.0,4,0.0013447940227021102
5.19,0.013037082251128167,77.59871019466716,0,60,3.0,4,0.0023225928156979507
5.195,0.01645163937690478,77.66660957566988,0,60,3.0,4,0.00392022530987955
5.2,0.020526639934696615,77.77476004056273,0,60,3.0,4,0.006464942130887654
5.205,0.02539629541761738,77.94264063456316,0,60,3.0,4,0.01041507375442734
5.21,0.031171612185577933,78.1965363540429,0,60,3.0,4,0.016389090683362476
5.215,0.03795853426638131,78.57052498893353,0,60,3.0,4,0.025188823269024184
5.22,0.0458588961882057,79.10689048440082,0,60,3.0,4,0.03780918786825463
5.225,0.054966995891435555,79.85556550877875,0,60,3.0,4,0.05542507079479418
5.23,0.06536491004445595,80.87218550073672,0,60,3.0,4,0.07934554119380517
5.235,0.07711726085088699,82.21440106636989,0,60,3.0,4,0.1109270839145856
5.24,0.09026570629555215,83.93627195484723,0,60,3.0,4,0.1514416930552289
5.245,0.10482339848670268,86.08086244957394,0,60,3.0,4,0.20190264587232806
5.25,0.12076968927580028,88.67155390032357,0,60,3.0,4,0.2628600917723194
5.255,0.13804539501007884,91.70302829420208,0,60,3.0,4,0.33418890104004906
5.26,0.15654895051787066,95.13326660856461,0,60,3.0,4,0.41490039078975555
5.265,0.17613378141900526,98.87813714204108,0,60,3.0,4,0.5030149915774372
5.27,0.19660720058055794,102.81011793964564,0,60,3.0,4,0.5955321868151915
5.275,0.21773108748496234,106.76233734752944,0,60,3.0,4,0.6885255846477515
5.28,0.23922453870058807,110.53842825599659,0,60,3.0,4,0.7773747824940375
5.285,0.2607685857914563,113.92775900036906,0,60,3.0,4,0.8571237411851544
5.29,0.2820129681603682,116.72459033287774,0,60,3.0,4,0.9229315372441821
5.295,0.30258482867153996,118.74882595036786,0,60,3.0,4,0.9705606105968908
5.3,0.3220990771751686,119.8654865137496,0,60,3.0,4,0.9968349767941083
5.305,0.3401700499968971,120.0,0,60,3.0,4,1.0
5.31,0.3564239911198326,119.1469163744074,0,60,3.0,4,0.9799274441037035
5.315,0.3705118017738417,117.37064685570721,0,60,3.0,4,0.9381328671931107
5.32,0.3821214567925213,114.79810695801649,0,60,3.0,4,0.8776025166592115
5.325,0.39098947374066967,111.60444632346429,0,60,3.0,4,0.8024575605521009
5.33,0.3969108472035567,107.99410915756765,0,60,3.0,4,0.7175084507662977
5.335,0.3997469255491936,104.18007944020901,0,60,3.0,4,0.6277665750637414
5.34,0.3994308076379137,100.36422724801442,0,60,3.0,4,0.5379818176003391
5.345,0.3959699661768434,96.7212161790668,0,60,3.0,4,0.45226391009568945
5.35,0.38944595408114946,93.38759728931282,0,60,3.0,4,0.3738258185720664
5.355,0.38001120995358023,90.45670883537264,0,60,3.0,4,0.3048637373028856
5.36,0.3678831374098315,87.9790401462504,0,60,3.0,4,0.24656565050000936
5.365,0.35333577933796634,85.96697701419116,0,60,3.0,4,0.19922298856920373
5.37,0.33668953221163944,84.4024246438112,0,60,3.0,4,0.1624099916190871
5.375,0.3182994390982644,83.24571739115189,0,60,3.0,4,0.13519335038004435
5.38,0.29854265738230645,82.44441592118244,0,60,3.0,4,0.11633919814546917
5.385,0.2778057157821067,81.94096223704659,0,60,3.0,4,0.10449322910697861
5.39,0.2564721553719815,81.67860013199362,0,60,3.0,4,0.09832000310573222
5.395,0.23491109433464996,81.6053774632043,0,60,3.0,4,0.09659711678127779
5.4,0.21346717185309805,81.67636369433883,0,60,3.0,4,0.09826738104326664
5.405,0.19245222055656455,81.85441421730658,0,60,3.0,4,0.10245680511309609
5.41,0.17213889801761392,82.10989597948169,0,60,3.0,4,0.10846814069368688
5.415,0.15275638501270183,82.4197812649522,0,60,3.0,4,0.11575955917534603
5.42,0.13448814019607322,82.76645106571821,0,60,3.0,4,0.123916495663958
5.425,0.11747159495449566,83.13645818712642,0,60,3.0,4,0.13262254557944522
5.43,0.10179958433370105,83.51940780368162,0,60,3.0,4,0.1416331247925086
5.435,0.08752324394101413,83.90703501007195,0,60,3.0,4,0.15075376494286943
5.44,0.07465606047174059,84.29250168132002,0,60,3.0,4,0.15982356897223574
5.445,0.0631787448609295,84.66989887994485,0,60,3.0,4,0.16870350305752596
5.45,0.05304460019959574,85.03392255252196,0,60,3.0,4,0.1772687659416931
5.455,0.044185078305849994,85.37968430795249,0,60,3.0,4,0.1854043366577056
5.46,0.03651525513023255,85.70262077560254,0,60,3.0,4,0.1930028417788833
5.465,0.0299390014708757,85.99847050884269,0,60,3.0,4,0.19996401197276908
5.47,0.024353677220580638,86.26329398177421,0,60,3.0,4,0.2061951525123344
5.475,0.01965423034339045,86.49351840681324,0,60,3.0,4,0.21161219780737028
5.48,0.015736632374757337,86.68599420541278,0,60,3.0,4,0.2161410401273596
5.485,0.012500627640593535,86.83805385632725,0,60,3.0,4,0.2197189142665235
5.49,0.009851811652115898,86.94756666863884,0,60,3.0,4,0.22229568632091393
5.495,0.007703084175428559,87.01298502755421,0,60,3.0,4,0.2238349418248049
5.5,0.005975544002062424,87.03337908862481,0,60,3.0,4,0.2243148020852897
5.505,0.004598905818663047,87.0084579536151,0,60,3.0,4,0.2237284224380025
5.51,0.0035115256454839104,86.938576193165,0,60,3.0,4,0.22208414572152954
5.515,0.002660121266303676,86.82472527864306,0,60,3.0,4,0.2194053006739543
5.52,0.0019992692560877024,86.66851009780702,0,60,3.0,4,0.21572964936016506
5.525,0.0014907520044639367,86.47211127728372,0,60,3.0,4,0.2111085006419698
5.53,0.0011028178277539807,86.23823452311164,0,60,3.0,4,0.2056055181908622
5.535,0.0008094059938923333,85.97004861293706,0,60,3.0,4,0.19929526148087207
5.54,0.0005893771793717645,85.67111402048207,0,60,3.0,4,0.19226150636428388
5.545,0.0004257792353490551,85.34530441514248,0,60,3.0,4,0.18459539800335245
5.55,0.0003051686392901525,84.99672344980459,0,60,3.0,4,0.1763934929365786
5.555,0.00021699992642659966,84.62961932448681,0,60,3.0,4,0.16775574881145436
5.56,0.00015308884054097838,84.248299592624,0,60,3.0,4,0.15878351982644692
5.565,0.00010714989329311098,83.85704856531288,0,60,3.0,4,0.14957761330147953
5.57,7.440535854020571e-05,83.4600494751478,0,60,3.0,4,0.14023645823877173
5.575,5.1260276743925106e-05,83.06131329728954,0,60,3.0,4,0.13085443052445986
5.58,3.503659887882241e-05,82.66461580565927,0,60,3.0,4,0.1215203718978651
5.585,2.375894748103639e-05,82.2734440829479,0,60,3.0,4,0.1123163313634801
5.59,1.5984413869232557e-05,81.89095332165515,0,60,3.0,4,0.10331654874482699
5.595,1.0669166579899869e-05,81.51993436674516,0,60,3.0,4,0.0945866909822391
5.6,7.06526633560511e-06,81.16279207494762,0,60,3.0,4,0.08618334293994394
5.605,4.641847214699205e-06,80.82153421580314,0,60,3.0,4,0.07815374625419154
5.61,3.025641074479182e-06,80.49777032755243,0,60,3.0,4,0.07053577241299837
5.615,1.9566278676921314e-06,80.19271967649756,0,60,3.0,4,0.06335811003523671
5.62,1.2553456560008793e-06,79.9072272581673,0,60,3.0,4,0.05664064136864226
5.625,7.990660428214668e-07,79.64178662610968,0,60,3.0,4,0.05039497943787477
5.63,5.046221251618276e-07,79.39656824009577,0,60,3.0,4,0.04462513506107705
5.635,3.1616527078858815e-07,79.17145198793789,0,60,3.0,4,0.03932828206912672
5.64,1.9652884407760343e-07,78.96606254967222,0,60,3.0,4,0.034495589404052146
5.645,1.2120002189836396e-07,78.77980633332653,0,60,3.0,4,0.03011309019591843
5.65,7.415549848886236e-08,78.61190881032023,0,60,3.0,4,0.026162560242828946
5.655,4.501406988770349e-08,78.46145120731774,0,60,3.0,4,0.022622381348652625
5.66,0.0,78.32740566133431,0,60,3.0,4,0.019468368501983777
5.665,0.0,78.20866810746416,0,60,3.0,4,0.016674543705039135
5.67,0.0,78.10408833568827,0,60,3.0,4,0.014213843192665282
5.675,0.0,78.01249681760311,0,60,3.0,4,0.012058748649484882
5.68,0.0,77.93272805946427,0,60,3.0,4,0.010181836693276877
5.685,0.0,77.86364037977026,0,60,3.0,4,0.008556244229888467
5.69,0.0,77.80413213413297,0,60,3.0,4,0.007156050214893426
5.695,0.0,77.75315451508283,0,60,3.0,4,0.005956576825478271
5.7,0.0,77.70972113863759,0,60,3.0,4,0.004934615026766832
5.705,0.0,77.67291469288736,0,60,3.0,4,0.004068581009114362
5.71,0.0,77.6418909673889,0,60,3.0,4,0.0033386109973859595
5.715,0.0,77.61588060740796,0,60,3.0,4,0.0027266025272461
5.72,0.0,77.59418894611207,0,60,3.0,4,0.002216210496754577
5.725,0.0,77.57619426314615,0,60,3.0,4,0.0017928061916741038
5.73,0.0,77.56134480222934,0,60,3.0,4,0.001443407111278649
5.735,0.0,77.54915485611353,0,60,3.0,4,0.001156584849730159
5.74,0.0,77.53920019694617,0,60,3.0,4,0.0009223575752039725
5.745,0.0,77.53111309607614,0,60,3.0,4,0.0007320728488503605
5.75,0.0,77.52457714164618,0,60,3.0,4,0.0005782856857923862
5.755,0.0,77.51932202662293,0,60,3.0,4,0.00045463592053953804
5.76,0.0,77.51511844558637,0,60,3.0,4,0.00035572813144393184
5.765,0.0,77.51177320666078,0,60,3.0,4,0.0002770166273124045
5.77,0.0,77.50912463613587,0,60,3.0,4,0.00021469732084389816
5.775,0.0,77.50703832803256,0,60,3.0,4,0.00016560771841327818
5.78,0.0,77.50540326930944,0,60,3.0,4,0.00012713574845740956
5.785,0.0,77.50412835357564,0,60,3.0,4,9.713773119147738e-05
5.79,0.0,77.50313928191733,0,60,3.0,4,7.3865456878299e-05
5.795,0.0,77.50237583848272,0,60,3.0,4,5.590208194636194e-05
5.8,0.0,77.50178952045918,0,60,3.0,4,4.2106363745500964e-05
5.805,0.0,77.50134149662578,0,60,3.0,4,3.156462648903738e-05
5.81,0.0,77.5010008653694,0,60,3.0,4,2.3549773397783557e-05
5.815,0.0,77.50074318152002,0,60,3.0,4,1.748662400051912e-05
5.82,0.0,77.50054922121242,0,60,3.0,4,1.2922852057031645e-05
5.825,0.0,77.50040395488503,0,60,3.0,4,9.504820824237387e-06
5.83,0.0,77.50029570017914,0,60,3.0,4,6.957651273818128e-06
5.835,0.0,77.50021542865605,0,60,3.0,4,5.068909554077383e-06
5.84,0.0,77.50015620269332,0,60,3.0,4,3.675357489849857e-06
5.845,0.0,77.50011272149108,0,60,3.0,4,2.652270378308351e-06
5.85,0.0,77.50008095768732,0,60,3.0,4,1.904886760391545e-06
5.855,0.0,77.50005786855301,0,60,3.0,4,1.361613012102894e-06
5.86,0.0,77.50004116805168,0,60,3.0,4,9.686600395418602e-07
5.865,0.0,77.50002914816145,0,60,3.0,4,6.8583909283274e-07
5.87,0.0,77.50002053975126,0,60,3.0,4,4.832882649786958e-07
5.875,0.0,77.50001440496989,0,60,3.0,4,3.3894046797446634e-07
5.88,0.0,77.50001005455123,0,60,3.0,4,2.3657767589129968e-07
5.885,0.0,77.50000698467477,0,60,3.0,4,1.6434528868772116e-07
5.89,0.001684486749771458,77.50000482906273,0,60,3.0,4,1.1362500545681755e-07
5.895,0.003097557930867117,77.50000332286477,0,60,3.0,4,7.8185053432796e-08
5.9,0.005475106668887023,77.50000227559855,0,60,3.0,4,5.354349522188867e-08
5.905,0.00930222931468658,77.50000155099998,0,60,3.0,4,3.6494117239271875e-08
5.91,0.01519157517868857,77.50000105210987,0,60,3.0,4,2.475552625636577e-08
5.915,0.023847336626128316,77.50000071030286,0,60,3.0,4,1.6713008389000177e-08
5.92,0.0359830743700859,77.50000047726456,0,60,3.0,4,1.1229754443989162e-08
5.925,0.05218887796857759,77.50000031915964,0,60,3.0,4,7.509638568508843e-09
5.93,0.0727577001223134,77.50000021241732,0,60,3.0,4,4.99805457152166e-09
5.935,0.0974992498694751,77.50000014070355,0,60,3.0,4,3.3106717263067632e-09
5.94,0.12558706050443358,77.50000009275841,0,60,3.0,4,2.1825508825071773e-09
5.945,0.15549263588878245,77.50000006086039,0,60,3.0,4,1.432009104759987e-09
5.95,0.1850529723539114,77.50000003974196,0,60,3.0,4,9.351050025810872e-10
5.955,0.21169159439317053,77.50000002582837,0,60,3.0,4,6.077263659629834e-10
5.96,0.23277292922115492,77.50000001670621,0,60,3.0,4,3.9308728820983294e-10
5.965,0.24602692519491282,77.50000001075455,0,60,3.0,4,2.5304817587739844e-10
5.97,0.24995056064839283,77.50000000689032,0,60,3.0,4,1.6212512117122327e-10
5.975,0.24408826520424054,77.5000000043936,0,60,3.0,4,1.0337878527078668e-10
5.98,0.22911894216865275,77.50000000278825,0,60,3.0,4,6.560599906472764e-11
5.985,0.20672661788705934,77.50000000176108,0,60,3.0,4,4.143718048426843e-11
5.99,0.17928878030241233,77.50000000110703,0,60,3.0,4,2.6047660760334968e-11
5.995,0.14946211903866036,77.50000000069258,0,60,3.0,4,1.629600506823729e-11
6.0,0.1197651512573837,77.50000000043124,0,60,3.0,4,1.0146884639706353e-11
6.005,0.09224675744988023,77.50000000026724,0,60,3.0,4,6.287885245161734e-12
6.01,0.06829565320281596,77.50000000016482,0,60,3.0,4,3.878058658515596e-12
6.015,0.04860224607515734,77.50000000010117,0,60,3.0,4,2.380401758059366e-12
6.02,0.03324612389699793,77.5000000000618,0,60,3.0,4,1.454188403680318e-12
6.025,0.021859876340472782,77.50000000003757,0,60,3.0,5,8.840823498116258e-13
6.03,0.01381595518554205,77.50000000002274,0,60,3.0,5,5.349968833958402e-13
6.035,0.008394095110402422,77.5000000000137,0,60,3.0,5,3.223356222459937e-13
6.04,0.0049052535271608,77.50000000000821,0,60,3.0,5,1.9326762412674725e-13
6.045,0.0027671663551903634,77.5000000000049,0,60,3.0,5,1.1535870298222802e-13
6.05,0.0015425553464444616,77.50000000000291,0,60,3.0,5,6.854647568509201e-14
6.055,0.0009638206637011801,77.50000000000172,0,60,3.0,5,4.045913930681041e-14
6.06,0.0009804935156568228,77.50000000000101,0,60,3.0,5,2.3740486700690407e-14
6.065,0.0018793744894085216,77.5000000000006,0,60,3.0,5,1.4043668189140804e-14
6.07,0.004535525206900863,77.50000000000034,0,60,3.0,5,8.024953250937602e-15
6.075,0.010832767979632273,77.5000000000002,0,60,3.0,5,4.681222729713601e-15
6.08,0.024208003392322392,77.50000000000011,0,60,3.0,5,2.6749844169792007e-15
6.085,0.0500971897335304,77.50000000000007,0,60,3.0,5,1.6718652606120004e-15
6.09,0.09582894921774403,77.50000000000004,0,60,3.0,5,1.0031191563672002e-15
6.095,0.16937896721820658,77.50000000000001,0,60,3.0,5,3.343730521224001e-16
6.1,0.27661303008991756,77.50000000000001,0,60,3.0,5,3.343730521224001e-16
6.105,0.4173782800009149,77.5,0,60,3.0,5,0.0
6.11,0.5818720934538056,77.5,0,60,3.0,5,0.0
6.115,0.7494718801585675,77.5,0,60,3.0,5,0.0
6.12,0.891813020752378,77.5,0,60,3.0,5,0.0
6.125,0.9800361632936612,77.5,0,60,3.0,5,0.0
6.13,0.993574479225126,77.50000249050753,1,60,3.0,5,5.860017709250421e-08
6.135,0.9263438449375362,77.50000395106206,0,60,3.0,5,9.296616600723236e-08
6.14,0.7873015962290536,77.50000642787194,0,60,3.0,5,1.5124404559601852e-07
6.145,0.5959516244629897,77.50001086957876,0,60,3.0,5,2.5575479432571977e-07
6.15,0.376910120078773,77.50001933821008,0,60,3.0,5,4.5501670777358574e-07
6.155,0.15739335672107918,77.50003639731811,0,60,3.0,5,8.564074849961317e-07
6.16,-0.033361226269301235,77.50007214536325,0,60,3.0,5,1.6975379587754158e-06
6.165,-0.1680180840843834,77.50014864662121,0,60,3.0,5,3.497567557949022e-06
6.17,-0.23069703190837854,77.5003131184379,0,60,3.0,5,7.36749265650574e-06
6.175,-0.22587267821131068,77.500664030793,0,60,3.0,5,1.5624253953038694e-05
6.18,-0.17718181630665902,77.5014008725421,0,60,3.0,5,3.296170687309207e-05
6.185,-0.11494332516451301,77.50291542048535,0,60,3.0,5,6.859812906708719e-05
6.19,-0.061810214049552864,77.50595243758998,0,60,3.0,5,0.0001400573550584153
6.195,-0.026546104631500547,77.5118807386687,0,60,3.0,5,0.00027954679220456186
6.2,-0.00719600351942686,77.52313007196037,0,60,3.0,5,0.0005442369873027447
6.205,0.0022072757983807078,77.54386157357962,0,60,3.0,5,0.0010320370254028014
6.21,0.006917199873730717,77.5809427790935,0,60,3.0,5,0.001904535978670698
6.215,0.01004859748264829,77.64528190999502,0,60,3.0,5,0.003418397882235775
6.22,0.013037082251128167,77.75352741193507,0,60,3.0,5,0.005965350869060411
6.225,0.01645163937690478,77.93004507355718,0,60,3.0,5,0.010118707613110152
6.23,0.020526639934696615,78.20894036195537,0,60,3.0,5,0.016680949693067545
6.235,0.02539629541761738,78.63570592691048,0,60,3.0,5,0.026722492397893535
6.24,0.031171612185577933,79.26787381502005,0,60,3.0,5,0.04159703094164831
6.245,0.03795853426638131,80.17389566837979,0,60,3.0,5,0.06291519219717141
6.25,0.0458588961882057,81.42944155332607,0,60,3.0,5,0.09245744831355462
6.255,0.054966995891435555,83.11048484112004,0,60,3.0,5,0.1320114080263539
6.26,0.06536491004445595,85.28298955260263,0,60,3.0,5,0.18312916594359127
6.265,0.07711726085088699,87.98974091129064,0,60,3.0,5,0.24681743320683855
6.27,0.09026570629555215,91.23577088555736,0,60,3.0,5,0.3231946090719378
6.275,0.10482339848670268,94.97473679171395,0,60,3.0,5,0.41117027745209295
6.28,0.12076968927580028,99.09924303115474,0,60,3.0,5,0.5082174830859939
6.285,0.13804539501007884,103.43817155566782,0,60,3.0,5,0.6103099189568899
6.29,0.15654895051787066,107.76340569231442,0,60,3.0,5,0.7120801339368099
6.295,0.17613378141900526,111.80687226714731,0,60,3.0,5,0.8072205239328779
6.3,0.19660720058055794,115.28680180953708,0,60,3.0,5,0.8891012190479314
6.305,0.21773108748496234,117.939950994308,0,60,3.0,5,0.9515282586896001
6.31,0.23922453870058807,119.55480470673967,0,60,3.0,5,0.9895248166291688
6.315,0.2607685857914563,120.0,0,60,3.0,5,1.0
6.32,0.2820129681603682,119.2427031271878,0,60,3.0,5,0.9821812500514775
6.325,0.30258482867153996,117.35340246649798,0,60,3.0,5,0.9377271168587761
6.33,0.3220990771751686,114.49617856710162,0,60,3.0,5,0.8704983192259206
6.335,0.3401700499968971,110.90634455456376,0,60,3.0,5,0.7860316365779708
6.34,0.3564239911198326,106.85971216406287,0,60,3.0,5,0.6908167568014792
6.345,0.3705118017738417,102.63906838027276,0,60,3.0,5,0.5915074913005356
6.35,0.3821214567925213,98.50348592407586,0,60,3.0,5,0.49419966880178495
6.355,0.39098947374066967,94.6649394119341,0,60,3.0,5,0.4038809273396259
6.36,0.3969108472035567,91.27476045846622,0,60,3.0,5,0.32411201078744045
6.365,0.3997469255491936,88.42029491575614,0,60,3.0,5,0.2569481156648505
6.37,0.3994308076379137,86.1302561255255,0,60,3.0,5,0.20306485001236485
6.375,0.3959699661768434,84.38606505349605,0,60,3.0,5,0.1620250600822601
6.38,0.38944595408114946,83.13606111329378,0,60,3.0,5,0.13261320266573595
6.385,0.38001120995358023,82.3097636967015,0,60,3.0,5,0.1131709105106234
6.39,0.3678831374098315,81.83012410121097,0,60,3.0,5,0.10188527296966989
6.395,0.35333577933796634,81.62264316265689,0,60,3.0,5,0.09700336853310318
6.4,0.33668953221163944,81.62109337541757,0,60,3.0,5,0.09696690295100172
6.405,0.3182994390982644,81.77021876896845,0,60,3.0,5,0.10047573574043407
6.41,0.29854265738230645,82.02613689034814,0,60,3.0,5,0.10649733859642685
6.415,0.2778057157821067,82.35526274278222,0,60,3.0,5,0.11424147630075802
6.42,0.2564721553719815,82.732489112525,0,60,3.0,5,0.12311739088294123
6.425,0.23491109433464996,83.1391776893984,0,60,3.0,5,0.1326865338681975
6.43,0.21346717185309805,83.56131364110216,0,60,3.0,5,0.1426191444965214
6.435,0.19245222055656455,83.98800050530251,0,60,3.0,5,0.15265883541888256
6.44,0.17213889801761392,84.41034429853448,0,60,3.0,5,0.16259633643610547
6.445,0.15275638501270183,84.82069785711761,0,60,3.0,5,0.17225171428512018
6.45,0.13448814019607322,85.21219955540259,0,60,3.0,5,0.18146351895064922
6.455,0.11747159495449566,85.57853160195718,0,60,3.0,5,0.19008309651663954
6.46,0.10179958433370105,85.91382981547181,0,60,3.0,5,0.19797246624639564
6.465,0.08752324394101413,86.21268994914546,0,60,3.0,5,0.2050044693916578
6.47,0.07465606047174059,86.47022959575179,0,60,3.0,5,0.21106422578239503
6.475,0.0631787448609295,86.68217668609483,0,60,3.0,5,0.21605121614340786
6.48,0.05304460019959574,86.84496474003129,0,60,3.0,5,0.2198815232948538
6.485,0.044185078305849994,86.95582153533789,0,60,3.0,5,0.22248991847853858
6.49,0.03651525513023255,87.01284233156939,0,60,3.0,5,0.22383158427222088
6.495,0.0299390014708757,87.015041873607,0,60,3.0,5,0.22388333820251774
6.5,0.024353677220580638,86.96238162945944,0,60,3.0,5,0.22264427363433983
6.505,0.01965423034339045,86.85577044944225,0,60,3.0,5,0.22013577528099404
6.51,0.015736632374757337,86.69703828162079,0,60,3.0,5,0.21640090074401863
6.515,0.012500627640593535,86.48888384506544,0,60,3.0,5,0.21150314929565753
6.52,0.009851811652115898,86.2347982820105,0,60,3.0,5,0.20552466545907064
6.525,0.007703084175428559,85.93896777761937,0,60,3.0,5,0.198563947708691
6.53,0.005975544002062424,85.60615892982422,0,60,3.0,5,0.1907331512899816
6.535,0.004598905818663047,85.24159124658097,0,60,3.0,5,0.18215508815484627
6.54,0.0035115256454839104,84.85080152406493,0,60,3.0,5,0.17296003586035139
6.545,0.002660121266303676,84.43950500685918,0,60,3.0,5,0.16328247074962773
6.55,0.0019992692560877024,84.01345815191472,0,60,3.0,5,0.15325783886858163
6.555,0.0014907520044639367,83.57832752591341,0,60,3.0,5,0.14301947119796254
6.56,0.0011028178277539807,83.13956888561076,0,60,3.0,5,0.132695738484959
6.565,0.0008094059938923333,82.70231985687685,0,60,3.0,5,0.12240752604416129
6.57,0.0005893771793717645,82.27130888121326,0,60,3.0,5,0.1122660913226649
6.575,0.0004257792353490551,81.85078228299193,0,60,3.0,5,0.10237134783510421
6.58,0.0003051686392901525,81.444450471864,0,60,3.0,5,0.09281059933797652
6.585,0.00021699992642659966,81.0554534760675,0,60,3.0,5,0.08365772884864701
6.59,0.00015308884054097838,80.68634524262295,0,60,3.0,5,0.07497282923818703
6.595,0.00010714989329311098,80.3390954720994,0,60,3.0,5,0.06680224640233887
6.6,7.440535854020571e-05,80.01510720336908,0,60,3.0,5,0.05917899302044903
6.605,5.1260276743925106e-05,79.71524794354049,0,60,3.0,5,0.05212348102448212
6.61,3.503659887882241e-05,79.43989185731093,0,60,3.0,5,0.045644514289668835
6.615,2.375894748103639e-05,79.18897038725449,0,60,3.0,5,0.039740479700105545
6.62,1.5984413869232557e-05,78.96202866364585,0,60,3.0,5,0.03440067443872595
6.625,1.0669166579899869e-05,78.75828516485582,0,60,3.0,5,0.02960670976131342
6.63,7.06526633560511e-06,78.5766922881991,0,60,3.0,5,0.025333936192919952
6.635,4.641847214699205e-06,78.4159957646006,0,60,3.0,5,0.021552841520014
6.64,3.025641074479182e-06,78.27479117561786,0,60,3.0,5,0.018230380602773266
6.645,1.9566278676921314e-06,78.15157618557559,0,60,3.0,5,0.015331204366484531
6.65,1.2553456560008793e-06,78.04479746378966,0,60,3.0,5,0.012818763853874437
6.655,7.990660428214668e-07,77.95289162363875,0,60,3.0,5,0.010656273497382325
6.66,5.046221251618276e-07,77.87431983143102,0,60,3.0,5,0.008807525445435846
6.665,3.1616527078858815e-07,77.80759602713341,0,60,3.0,5,0.007237553579609739
6.67,1.9652884407760343e-07,77.75130894337182,0,60,3.0,5,0.005913151608748822
6.675,1.2120002189836396e-07,77.70413830456492,0,60,3.0,5,0.0048032542250569694
6.68,7.415549848886236e-08,77.66486573376456,0,60,3.0,5,0.003879193735636644
6.685,4.501406988770349e-08,77.63238099262017,0,60,3.0,5,0.003114846885180481
6.69,0.0,77.60568423390187,0,60,3.0,5,0.0024866878565145563
6.695,0.0,77.58388496177875,0,60,3.0,5,0.0019737638065588296
6.7,0.0,77.5661983790632,0,60,3.0,5,0.0015576089191340007
6.705,0.0,77.55193975979994,0,60,3.0,5,0.0012221119952926073
6.71,0.0,77.54051742672102,0,60,3.0,5,0.0009533512169652755
6.715,0.0,77.5314248425821,0,60,3.0,5,0.0007394080607552415
6.72,0.0,77.52423224790535,0,60,3.0,5,0.0005701705389493086
6.725,0.0,77.51857819995757,0,60,3.0,5,0.00043713411664879565
6.73,0.0,77.51416129270432,0,60,3.0,5,0.0003332068871603657
6.735,0.0,77.51073226785044,0,60,3.0,5,0.0002525239494221911
6.74,0.0,77.5080866648387,0,60,3.0,5,0.00019027446679294424
6.745,0.0,77.50605810395308,0,60,3.0,5,0.00014254362242541795
6.75,0.0,77.50451225189414,0,60,3.0,5,0.00010617063280332171
6.755,0.0,77.50334148324333,0,60,3.0,5,7.862313513723006e-05
6.76,0.0,77.50246022357778,0,60,3.0,5,5.788761359493786e-05
6.765,0.0,77.50180093982529,0,60,3.0,5,4.2375054712639374e-05
6.77,0.0,77.50131072977383,0,60,3.0,5,3.084070056080932e-05
6.775,0.0,77.5009484544194,0,60,3.0,5,2.2316574574139902e-05
6.78,0.0,77.5006823529937,0,60,3.0,5,1.605536455780138e-05
6.785,0.0,77.50048808007092,0,60,3.0,5,1.1484236962895224e-05
6.79,0.0,77.50034710621185,0,60,3.0,5,8.167204984655494e-06
6.795,0.0,77.50024542739276,0,60,3.0,5,5.7747621824814014e-06
6.8,0.0,77.5001725333356,0,60,3.0,5,4.059607896485485e-06
6.805,0.0,77.50012059029027,0,60,3.0,5,2.837418594481278e-06
6.81,0.0,77.50008379941742,0,60,3.0,5,1.971750998229575e-06
6.815,0.0,77.50005789739122,0,60,3.0,5,1.3622915580125504e-06
6.82,0.0,77.50003977098328,0,60,3.0,5,9.357878418407328e-07
6.825,0.001684486749771458,77.5000271620784,0,60,3.0,5,6.391077269707988e-07
6.83,0.003097557930867117,77.50001844374059,0,60,3.0,5,4.339703667376264e-07
6.835,0.005475106668887023,77.50001245157674,0,60,3.0,5,2.929782761598557e-07
6.84,0.00930222931468658,77.50000835774334,0,60,3.0,5,1.9665278447224836e-07
6.845,0.01519157517868857,77.50000557754456,0,60,3.0,5,1.312363424938881e-07
6.85,0.023847336626128316,77.5000037007215,0,60,3.0,5,8.707580016508633e-08
6.855,0.0359830743700859,77.50000244128844,0,60,3.0,5,5.744208104207407e-08
6.86,0.05218887796857759,77.50000160118357,0,60,3.0,5,3.767490752312262e-08
6.865,0.0727577001223134,77.50000104412499,0,60,3.0,5,2.4567646719600922e-08
6.87,0.0974992498694751,77.50000067694471,0,60,3.0,5,1.5928110783266567e-08
6.875,0.12558706050443358,77.50000043635829,0,60,3.0,5,1.0267253922874636e-08
6.88,0.15549263588878245,77.50000027965501,0,60,3.0,5,6.580117930271252e-09
6.885,0.1850529723539114,77.50000017819328,0,60,3.0,5,4.192782946976127e-09
6.89,0.21169159439317053,77.50000011288842,0,60,3.0,5,2.656198001418756e-09
6.895,0.23277292922115492,77.50000007110445,0,60,3.0,5,1.6730459318590446e-09
6.9,0.24602692519491282,77.50000004452804,0,60,3.0,5,1.0477185028053902e-09
6.905,0.24995056064839283,77.50000002772423,0,60,3.0,5,6.523347404735806e-10
6.91,0.24408826520424054,77.50000001716228,0,60,3.0,5,4.038183225715971e-10
6.915,0.22911894216865275,77.50000001056281,0,60,3.0,5,2.48536814658163e-10
6.92,0.20672661788705934,77.5000000064636,0,60,3.0,5,1.5208456716209184e-10
6.925,0.17928878030241233,77.5000000039324,0,60,3.0,5,9.252704223720631e-11
6.93,0.14946211903866036,77.50000000237864,0,60,3.0,5,5.596803021035157e-11
6.935,0.1197651512573837,77.50000000143051,0,60,3.0,5,3.365899454579716e-11
6.94,0.09224675744988023,77.50000000085535,0,60,3.0,5,2.012591400724726e-11
6.945,0.06829565320281596,77.50000000050849,0,60,3.0,5,1.196453655104372e-11
6.95,0.04860224607515734,77.50000000030055,0,60,3.0,5,7.0716556793366395e-12
6.955,0.03324612389699793,77.50000000017661,0,60,3.0,5,4.1555882917771885e-12
6.96,0.021859876340472782,77.50000000010319,0,60,3.0,5,2.427882731460747e-12
6.965,0.01381595518554205,77.50000000005994,0,60,3.0,5,1.4103855338522836e-12
6.97,0.008394095110402422,77.50000000003462,0,60,3.0,5,8.145327549701666e-13
6.975,0.0049052535271608,77.50000000001988,0,60,3.0,5,4.677878999192377e-13
6.98,0.0027671663551903634,77.50000000001135,0,60,3.0,5,2.671640686457977e-13
6.985,0.0015425553464444616,77.50000000000644,0,60,3.0,5,1.5147099261144723e-13
6.99,0.0009638206637011801,77.50000000000364,0,60,3.0,5,8.559950134333442e-14
6.995,0.0009804935156568228,77.50000000000203,0,60,3.0,5,4.781534645350321e-14
7.0,0.0018793744894085216,77.50000000000114,0,60,3.0,5,2.6749844169792007e-14
7.005,0.004535525206900863,77.50000000000063,0,60,3.0,5,1.4712414293385605e-14
7.01,0.010832767979632273,77.50000000000034,0,60,3.0,5,8.024953250937602e-15
7.015,0.024208003392322392,77.50000000000018,0,60,3.0,5,4.3468496775912015e-15
7.02,0.0500971897335304,77.5000000000001,0,60,3.0,5,2.3406113648568006e-15
7.025,0.09582894921774403,77.50000000000006,0,60,3.0,5,1.3374922084896003e-15
7.03,0.16937896721820658,77.50000000000003,0,60,3.0,5,6.687461042448002e-16
7.035,0.27661303008991756,77.50000000000001,0,60,3.0,5,3.343730521224001e-16
7.04,0.4173782800009149,77.50000000000001,0,60,3.0,5,3.343730521224001e-16
7.045,0.5818720934538056,77.5,0,60,3.0,5,0.0
7.05,0.7494718801585675,77.5,0,60,3.0,5,0.0
7.055,0.891813020752378,77.5,0,60,3.0,5,0.0
7.06,0.9800361632936612,77.5,0,60,3.0,5,0.0
7.065,0.993574479225126,77.50000249339395,1,60,3.0,5,5.8668092940613004e-08
7.07,0.9263438449375362,77.5000040987316,0,60,3.0,5,9.644074339121289e-08
7.075,0.7873015962290536,77.50000694447859,0,60,3.0,5,1.633994961192751e-07
7.08,0.5959516244629897,77.50001233239766,0,60,3.0,5,2.9017406257694614e-07
7.085,0.376910120078773,77.50002327584617,0,60,3.0,5,5.476669688211106e-07
7.09,0.15739335672107918,77.50004686200215,0,60,3.0,5,1.1026353447237745e-06
7.095,-0.033361226269301235,77.50009967871118,0,60,3.0,5,2.3453814395345355e-06
7.1,-0.1680180840843834,77.50021983973197,0,60,3.0,5,5.172699575736902e-06
7.105,-0.23069703190837854,77.50049260118833,0,60,3.0,5,1.1590616195930766e-05
7.11,-0.22587267821131068,77.50110269292678,0,60,3.0,5,2.5945715924201388e-05
7.115,-0.17718181630665902,77.50243662449621,0,60,3.0,5,5.733234108735066e-05
7.12,-0.11494332516451301,77.50527367010552,0,60,3.0,5,0.00012408635542408988
7.125,-0.061810214049552864,77.51112548239516,0,60,3.0,5,0.0002617760563566662
7.13,-0.026546104631500547,77.5228095875142,0,60,3.0,5,0.0005366961768047798
7.135,-0.00719600351942686,77.54536534311313,0,60,3.0,5,0.001067419837956068
7.14,0.0022072757983807078,77.58742976982201,0,60,3.0,5,0.002057171054635506
7.145,0.006917199873730717,77.66316478577043,0,60,3.0,5,0.0038391714298925575
7.15,0.01004859748264829,77.79474066225971,0,60,3.0,5,0.006935074406110891
7.155,0.013037082251128167,78.01520791610183,0,60,3.0,5,0.012122539202395982
7.16,0.01645163937690478,78.37132086469389,0,60,3.0,5,0.020501667404562007
7.165,0.020526639934696615,78.92553340162006,0,60,3.0,5,0.033541962391060186
7.17,0.02539629541761738,79.75604499913555,0,60,3.0,5,0.053083411744365976
7.175,0.031171612185577933,80.95356386650566,0,60,3.0,5,0.08126032627072144
7.18,0.03795853426638131,82.61354587399477,0,60,3.0,5,0.12031872644693568
7.185,0.0458588961882057,84.82322334718495,0,60,3.0,5,0.17231113758082234
7.19,0.054966995891435555,87.64382951473756,0,60,3.0,5,0.23867834152323675
7.195,0.06536491004445595,91.08995210899931,0,60,3.0,5,0.31976357903527797
7.2,0.07711726085088699,95.10959133035276,0,60,3.0,5,0.41434332542006486
7.205,0.09026570629555215,99.5697374418894,0,60,3.0,5,0.5192879398091624
7.21,0.10482339848670268,104.25254197449594,0,60,3.0,5,0.6294715758704927
7.215,0.12076968927580028,108.86600227389124,0,60,3.0,5,0.738023582915088
7.22,0.13804539501007884,113.07045386519883,0,60,3.0,5,0.8369518556517371
7.225,0.15654895051787066,116.5185219115954,0,60,3.0,5,0.918082868508127
7.23,0.17613378141900526,118.90244524036586,0,60,3.0,6,0.9741751821262556
7.235,0.19660720058055794,120.0,0,60,3.0,6,1.0
7.24,0.21773108748496234,119.70959379157699,0,60,3.0,6,0.9931669127429881
7.245,0.23922453870058807,118.06689976352759,0,60,3.0,6,0.9545152885535902
7.25,0.2607685857914563,115.23930803555672,0,60,3.0,6,0.8879837184836875
7.255,0.2820129681603682,111.499438363975,0,60,3.0,6,0.799986785034706
7.26,0.30258482867153996,107.18356850303306,0,60,3.0,6,0.698436905953719
7.265,0.3220990771751686,102.6437957180931,0,60,3.0,6,0.5916187227786612
7.27,0.3401700499968971,98.20333342636674,0,60,3.0,6,0.4871372570909821
7.275,0.3564239911198326,94.12259506220872,0,60,3.0,6,0.3911198838166757
7.28,0.3705118017738417,90.58037154757966,0,60,3.0,6,0.3077734481783449
7.285,0.3821214567925213,87.67058080533273,0,60,3.0,6,0.23930778365488783
7.29,0.39098947374066967,85.41183652440917,0,60,3.0,6,0.18616085939786278
7.295,0.3969108472035567,83.76515925442658,0,60,3.0,6,0.14741551186886065
7.3,0.3997469255491936,82.65472982376895,0,60,3.0,6,0.12128776055926932
7.305,0.3994308076379137,81.98739599086147,0,60,3.0,6,0.10558578802026994
7.31,0.3959699661768434,81.6681541294446,0,60,3.0,6,0.09807421481046122
7.315,0.38944595408114946,81.6104679621062,0,60,3.0,6,0.09671689322602821
7.32,0.38001120995358023,81.74162570331478,0,60,3.0,6,0.09980295772505368
7.325,0.3678831374098315,82.00416475136478,0,60,3.0,6,0.10598034709093607
7.33,0.35333577933796634,82.35470336887968,0,60,3.0,6,0.11422831456187489
7.335,0.33668953221163944,82.76143852441533,0,60,3.0,6,0.12379855351565472
7.34,0.3182994390982644,83.20127268108313,0,60,3.0,6,0.13414759249607353
7.345,0.29854265738230645,83.65717563949197,0,60,3.0,6,0.14487472092922277
7.35,0.2778057157821067,84.11607407738511,0,60,3.0,6,0.15567233123259078
7.355,0.2564721553719815,84.567338090353,0,60,3.0,6,0.166290308008306
7.36,0.23491109433464996,85.00180479943744,0,60,3.0,6,0.1765130541044103
7.365,0.21346717185309805,85.41122429206318,0,60,3.0,6,0.18614645393089838
7.37,0.19245222055656455,85.78800604196543,0,60,3.0,6,0.19501190686977485
7.375,0.17213889801761392,86.12516089172625,0,60,3.0,6,0.20294496215826477
7.38,0.15275638501270183,86.41635834455651,0,60,3.0,6,0.2097966669307415
7.385,0.13448814019607322,86.65604228250027,0,60,3.0,6,0.21543628900000625
7.39,0.11747159495449566,86.8395667108704,0,60,3.0,6,0.21975451084400943
7.395,0.10179958433370105,86.96332631638641,0,60,3.0,6,0.22266650156203327
7.4,0.08752324394101413,87.02486553161624,0,60,3.0,6,0.22411448309685278
7.405,0.07465606047174059,87.02295575982387,0,60,3.0,6,0.22406954728997347
7.41,0.0631787448609295,86.95763457393922,0,60,3.0,6,0.2225325782103345
7.415,0.05304460019959574,86.83020384723707,0,60,3.0,6,0.21953420817028407
7.42,0.044185078305849994,86.64318635678268,0,60,3.0,6,0.21513379663018067
7.425,0.03651525513023255,86.40024263706073,0,60,3.0,6,0.20941747381319362
7.43,0.0299390014708757,86.10605181309879,0,60,3.0,6,0.202495336778795
7.435,0.024353677220580638,85.7661617931843,0,60,3.0,6,0.19449792454551285
7.44,0.01965423034339045,85.3868155033916,0,60,3.0,6,0.18557212949156712
7.445,0.015736632374757337,84.97476075090998,0,60,3.0,6,0.17587672355082304
7.45,0.012500627640593535,84.53705177767517,0,60,3.0,6,0.16557768888647467
7.455,0.009851811652115898,84.08085060120334,0,60,3.0,6,0.1548435435577256
7.46,0.007703084175428559,83.61323585367356,0,60,3.0,6,0.14384084361584842
7.465,0.005975544002062424,83.14102606664218,0,60,3.0,6,0.13273002509746315
7.47,0.004598905818663047,82.67062327247073,0,60,3.0,6,0.12166172405813494
7.475,0.0035115256454839104,82.20788148592825,0,60,3.0,6,0.11077368202184128
7.48,0.002660121266303676,81.75800318130088,0,60,3.0,6,0.10018831014825597
7.485,0.0019992692560877024,81.32546538504239,0,60,3.0,6,0.09001095023629158
7.49,0.0014907520044639367,80.91397555068218,0,60,3.0,6,0.08032883648663956
7.495,0.0011028178277539807,80.52645605047158,0,60,3.0,6,0.0712107305993313
7.5,0.0008094059938923333,80.1650549715209,0,60,3.0,6,0.06270717580049182
7.505,0.0005893771793717645,79.83117998959436,0,60,3.0,6,0.05485129387280849
7.51,0.0004257792353490551,79.52555143867104,0,60,3.0,6,0.0476600338510834
7.515,0.0003051686392901525,79.24827030708987,0,60,3.0,6,0.0411357719315263
7.52,0.00021699992642659966,78.99889676222078,0,60,3.0,6,0.035268159111077196
7.525,0.00015308884054097838,78.77653491086632,0,60,3.0,6,0.0300361155497957
7.53,0.00010714989329311098,78.57991980626565,0,60,3.0,6,0.025409877794485884
7.535,7.440535854020571e-05,78.40750317134635,0,60,3.0,6,0.02135301579638468
7.54,5.1260276743925106e-05,78.25753487481349,0,60,3.0,6,0.01782434999561146
7.545,3.503659887882241e-05,78.12813782488085,0,60,3.0,6,0.014779713526608288
7.55,2.375894748103639e-05,78.01737459121979,0,60,3.0,6,0.01217351979340686
7.555,1.5984413869232557e-05,77.92330469093845,0,60,3.0,6,0.009960110375022382
7.56,1.0669166579899869e-05,77.84403204831902,0,60,3.0,6,0.00809487172515346
7.565,7.06526633560511e-06,77.77774263800482,0,60,3.0,6,0.006535120894231154
7.57,4.641847214699205e-06,77.72273273302106,0,60,3.0,6,0.005240770188730855
7.575,3.025641074479182e-06,77.67742849592248,0,60,3.0,6,0.0041747881393525725
7.58,1.9566278676921314e-06,77.64039787383368,0,60,3.0,6,0.003303479384321824
7.585,1.2553456560008793e-06,77.61035589209997,0,60,3.0,6,0.002596609225881754
7.59,7.990660428214668e-07,77.58616449674714,0,60,3.0,6,0.0020273999234622325
7.595,5.046221251618276e-07,77.56682808567956,0,60,3.0,6,0.0015724255454014223
7.6,3.1616527078858815e-07,77.55148580656227,0,60,3.0,6,0.001211430742641623
7.605,1.9652884407760343e-07,77.53940159980019,0,60,3.0,6,0.0009270964658867342
7.61,1.2120002189836396e-07,77.52995284130267,0,60,3.0,6,0.0007047727365334942
7.615,7.415549848886236e-08,77.52261830366363,0,60,3.0,6,0.0005321953803208063
7.62,4.501406988770349e-08,77.51696601592593,0,60,3.0,6,0.0003992003747277843
7.625,0.0,77.51264146903615,0,60,3.0,6,0.0002974463302624532
7.63,0.0,77.50935649209815,0,60,3.0,6,0.00022015275525057084
7.635,0.0,77.50687901727464,0,60,3.0,6,0.0001618592299915717
7.64,0.0,77.50502386059631,0,60,3.0,6,0.00011820848461906388
7.645,0.0,77.50364457250802,0,60,3.0,6,8.575464724759406e-05
7.65,0.0,77.50262635509776,0,60,3.0,6,6.179659053553704e-05
7.655,0.0,77.50188000121368,0,60,3.0,6,4.423532267477479e-05
7.66,0.0,77.50133678218606,0,60,3.0,6,3.14536984954911e-05
7.665,0.0,77.50094419349578,0,60,3.0,6,2.2216317547845927e-05
7.67,0.0,77.50066245928922,0,60,3.0,6,1.5587277393331746e-05
7.675,0.0,77.50046169505086,0,60,3.0,6,1.0863412961391399e-05
7.68,0.0,77.50031963113652,0,60,3.0,6,7.520732624002716e-06
7.685,0.0,77.50021980662294,0,60,3.0,6,5.171920539690772e-06
7.69,0.0,77.50015015171735,0,60,3.0,6,3.532981584692821e-06
7.695,0.001684486749771458,77.50010188674047,0,60,3.0,6,2.3973350698056223e-06
7.7,0.003097557930867117,77.50006867566421,0,60,3.0,6,1.615897981403524e-06
7.705,0.005475106668887023,77.50004598179314,0,60,3.0,6,1.0819245443706356e-06
7.71,0.00930222931468658,77.50003058206262,0,60,3.0,6,7.195779440227103e-07
7.715,0.01519157517868857,77.50002020437768,0,60,3.0,6,4.753971218045027e-07
7.72,0.023847336626128316,77.50001325934339,0,60,3.0,6,3.119845503613974e-07
7.725,0.0359830743700859,77.50000864363447,0,60,3.0,6,2.0337963466023638e-07
7.73,0.05218887796857759,77.50000559717135,0,60,3.0,6,1.31698149463024e-07
7.735,0.0727577001223134,77.50000360029965,0,60,3.0,6,8.471293292988026e-08
7.74,0.0974992498694751,77.50000230041678,0,60,3.0,6,5.412745368256069e-08
7.745,0.12558706050443358,77.50000146006518,0,60,3.0,6,3.4354474778678305e-08
7.75,0.15549263588878245,77.50000092052544,0,60,3.0,6,2.1659422051979002e-08
7.755,0.1850529723539114,77.50000057649717,0,60,3.0,6,1.3564639335955315e-08
7.76,0.21169159439317053,77.50000035863808,0,60,3.0,6,8.438542957211372e-09
7.765,0.23277292922115492,77.5000002216223,0,60,3.0,6,5.21464237542258e-09
7.77,0.24602692519491282,77.50000013604054,0,60,3.0,6,3.2009538967138403e-09
7.775,0.24995056064839283,77.50000008295089,0,60,3.0,6,1.951785661196268e-09
7.78,0.24408826520424054,77.50000005024255,0,60,3.0,6,1.1821775976440062e-09
7.785,0.22911894216865275,77.50000003022873,0,60,3.0,6,7.112643128065803e-10
7.79,0.20672661788705934,77.50000001806617,0,60,3.0,6,4.250864549248945e-10
7.795,0.17928878030241233,77.50000001072532,0,60,3.0,6,2.5236037050918265e-10
7.8,0.14946211903866036,77.50000000632488,0,60,3.0,6,1.488207518003251e-10
7.805,0.1197651512573837,77.50000000370503,0,60,3.0,6,8.717707340324791e-11
7.81,0.09224675744988023,77.5000000021559,0,60,3.0,6,5.072706699138507e-11
7.815,0.06829565320281596,77.50000000124614,0,60,3.0,6,2.9320838567561144e-11
7.82,0.04860224607515734,77.50000000071547,0,60,3.0,6,1.683468005520648e-11
7.825,0.03324612389699793,77.50000000040806,0,60,3.0,6,9.601522191694718e-12
7.83,0.021859876340472782,77.50000000023118,0,60,3.0,6,5.439580811927204e-12
7.835,0.01381595518554205,77.5000000001301,0,60,3.0,6,3.0611852921805727e-12
7.84,0.008394095110402422,77.50000000007273,0,60,3.0,6,1.7113212807624436e-12
7.845,0.0049052535271608,77.50000000004039,0,60,3.0,6,9.502882141318611e-13
7.85,0.0027671663551903634,77.50000000002228,0,60,3.0,6,5.242969457279233e-13
7.855,0.0015425553464444616,77.50000000001221,0,60,3.0,6,2.8722645177314166e-13
7.86,0.0009638206637011801,77.50000000000664,0,60,3.0,6,1.5615221534116084e-13
7.865,0.0009804935156568228,77.5000000000036,0,60,3.0,6,8.459638218696722e-14
7.87,0.0018793744894085216,77.50000000000193,0,60,3.0,6,4.5474735088646414e-14
7.875,0.004535525206900863,77.50000000000102,0,60,3.0,6,2.4074859752812806e-14
7.88,0.010832767979632273,77.50000000000054,0,60,3.0,6,1.2706175980651204e-14
7.885,0.024208003392322392,77.50000000000028,0,60,3.0,6,6.687461042448002e-15
7.89,0.0500971897335304,77.50000000000016,0,60,3.0,6,3.678103573346401e-15
7.895,0.09582894921774403,77.50000000000007,0,60,3.0,6,1.6718652606120004e-15
7.9,0.16937896721820658,77.50000000000004,0,60,3.0,6,1.0031191563672002e-15
7.905,0.27661303008991756,77.50000000000001,0,60,3.0,6,3.343730521224001e-16
7.91,0.4173782800009149,77.50000000000001,0,60,3.0,6,3.343730521224001e-16
7.915,0.5818720934538056,77.5,0,60,3.0,6,0.0
7.92,0.7494718801585675,77.5,0,60,3.0,6,0.0
7.925,0.891813020752378,77.5,0,60,3.0,6,0.0
7.93,0.9800361632936612,77.5,0,60,3.0,6,0.0
7.935,0.993574479225126,77.50000249206059,1,60,3.0,6,5.8636719720251515e-08
7.94,0.9263438449375362,77.50000388649308,0,60,3.0,6,9.144689590143303e-08
7.945,0.7873015962290536,77.50000620174501,0,60,3.0,6,1.4592341197866892e-07
7.95,0.5959516244629897,77.50001024868433,0,60,3.0,6,2.411455137221577e-07
7.955,0.376910120078773,77.50001773713392,0,60,3.0,6,4.1734432744199103e-07
7.96,0.15739335672107918,77.50003234050088,0,60,3.0,6,7.609529618816047e-07
7.965,-0.033361226269301235,77.50006196542242,0,60,3.0,6,1.4580099392493568e-06
7.97,-0.1680180840843834,77.50012345839556,0,60,3.0,6,2.9049034250259437e-06
7.975,-0.23069703190837854,77.50025207253846,0,60,3.0,6,5.93111855196452e-06
7.98,-0.22587267821131068,77.50051989833095,0,60,3.0,6,1.2232901904700852e-05
7.985,-0.17718181630665902,77.50107053879677,0,60,3.0,6,2.5189148159236486e-05
7.99,-0.11494332516451301,77.50218205581817,0,60,3.0,6,5.134248983923124e-05
7.995,-0.061810214049552864,77.50437705138005,0,60,3.0,6,0.00010298944423639382
8.0,-0.026546104631500547,77.50860779491533,0,60,3.0,6,0.00020253635094905697
8.005,-0.00719600351942686,77.5165549676137,0,60,3.0,6,0.00038952864973412836
8.01,0.0022072757983807078,77.53108897869964,0,60,3.0,6,0.0007315053811680627
8.015,0.006917199873730717,77.55694911283238,0,60,3.0,6,0.0013399791254678748
8.02,0.01004859748264829,77.60169183598806,0,60,3.0,6,0.0023927490820720805
8.025,0.013037082251128167,77.67693707547176,0,60,3.0,6,0.0041632253052177794
8.03,0.01645163937690478,77.7998909378598,0,60,3.0,6,0.0070562573614070595
8.035,0.020526639934696615,77.99503777956711,0,60,3.0,6,0.011647947754520306
8.04,0.02539629541761738,78.29577278054447,0,60,3.0,6,0.01872406542457571
8.045,0.031171612185577933,78.74559890656192,0,60,3.0,6,0.029308209566162906
8.05,0.03795853426638131,79.39836652237483,0,60,3.0,6,0.04466744758529009
8.055,0.0458588961882057,80.3169349302758,0,60,3.0,6,0.0662808218888425
8.06,0.054966995891435555,81.56964085920548,0,60,3.0,6,0.09575625551071713
8.065,0.06536491004445595,83.22412774219025,0,60,3.0,6,0.13468535863977055
8.07,0.07711726085088699,85.33845947360807,0,60,3.0,6,0.18443434055548397
8.075,0.09026570629555215,87.95000681664004,0,60,3.0,6,0.24588251333270686
8.08,0.10482339848670268,91.06328339863445,0,60,3.0,6,0.3191360799678695
8.085,0.12076968927580028,94.63858211835603,0,60,3.0,6,0.40326075572602416
8.09,0.13804539501007884,98.5837320054619,0,60,3.0,6,0.4960878118932211
8.095,0.15654895051787066,102.75136341377669,0,60,3.0,6,0.5941497273829809
8.1,0.17613378141900526,106.94359409913197,0,60,3.0,6,0.6927904493913405
8.105,0.19660720058055794,110.92500582405262,0,60,3.0,6,0.7864707252718264
8.11,0.21773108748496234,114.44330342499879,0,60,3.0,6,0.8692541982352656
8.115,0.23922453870058807,117.25542188596262,0,60,3.0,6,0.9354216914344146
8.12,0.2607685857914563,119.15545481965574,0,60,3.0,6,0.9801283486977822
8.125,0.2820129681603682,120.0,0,60,3.0,6,1.0
8.13,0.30258482867153996,119.72661680769721,0,60,3.0,6,0.9935674542987579
8.135,0.3220990771751686,118.36212003966133,0,60,3.0,6,0.9614616479920314
8.14,0.3401700499968971,116.0192046826335,0,60,3.0,6,0.9063342278266706
8.145,0.3564239911198326,112.88201428084409,0,60,3.0,6,0.8325179830786844
8.15,0.3705118017738417,109.18324133098602,0,60,3.0,6,0.7454880313173181
8.155,0.3821214567925213,105.17673159742563,0,60,3.0,6,0.6512172140570737
8.16,0.39098947374066967,101.1100694710858,0,60,3.0,6,0.5555310463784893
8.165,0.3969108472035567,97.20119773854125,0,60,3.0,6,0.46355759384802947
8.17,0.3997469255491936,93.62195394509827,0,60,3.0,6,0.37934009282584163
8.175,0.3994308076379137,90.48983035382798,0,60,3.0,6,0.3056430671488937
8.18,0.3959699661768434,87.86768093596174,0,60,3.0,6,0.24394543378733516
8.185,0.38944595408114946,85.76984429058865,0,60,3.0,6,0.19458457154326236
8.19,0.38001120995358023,84.17242779702583,0,60,3.0,6,0.15699830110649018
8.195,0.3678831374098315,83.02534578800257,0,60,3.0,6,0.1300081361882957
8.2,0.35333577933796634,82.26402464586049,0,60,3.0,6,0.11209469754965853
8.205,0.33668953221163944,81.8192991437891,0,60,3.0,6,0.10163056808915519
8.21,0.3182994390982644,81.62472762003841,0,60,3.0,6,0.09705241458913914
8.215,0.29854265738230645,81.62118407871675,0,60,3.0,6,0.09696903714627651
8.22,0.2778057157821067,81.75904264873614,0,60,3.0,6,0.10021276820555626
8.225,0.2564721553719815,81.9985219925281,0,60,3.0,6,0.10584757629477876
8.23,0.23491109433464996,82.30882611113378,0,60,3.0,6,0.11314884967373606
8.235,0.21346717185309805,82.66665602002601,0,60,3.0,6,0.12156837694178849
8.24,0.19245222055656455,83.05453424588724,0,60,3.0,6,0.13069492343264094
8.245,0.17213889801761392,83.45923266320771,0,60,3.0,6,0.14021723913429918
8.25,0.15275638501270183,83.87045877227034,0,60,3.0,6,0.1498931475828315
8.255,0.13448814019607322,84.2798534333411,0,60,3.0,6,0.15952596313743772
8.26,0.11747159495449566,84.68028767641711,0,60,3.0,6,0.16894794532746138
8.265,0.10179958433370105,85.06541226325399,0,60,3.0,6,0.1780097003118586
8.27,0.08752324394101413,85.42940233018484,0,60,3.0,6,0.18657417247493746
8.275,0.07465606047174059,85.76684174356433,0,60,3.0,6,0.19451392337798418
8.28,0.0631787448609295,86.07270061918209,0,60,3.0,6,0.20171060280428438
8.285,0.05304460019959574,86.34237003707361,0,60,3.0,6,0.20805576557820252
8.29,0.044185078305849994,86.57172770912837,0,60,3.0,6,0.21345241668537335
8.295,0.03651525513023255,86.75721616923929,0,60,3.0,6,0.21781685104092435
8.3,0.0299390014708757,86.89592083331073,0,60,3.0,6,0.2210804901955465
8.305,0.024353677220580638,86.98563934776703,0,60,3.0,6,0.22319151406510668
8.31,0.01965423034339045,87.02493647066403,0,60,3.0,6,0.22411615225091838
8.315,0.015736632374757337,87.01318073228062,0,60,3.0,6,0.22383954664189687
8.32,0.012500627640593535,86.95056062220486,0,60,3.0,6,0.2223661322871732
8.325,0.009851811652115898,86.83807925732597,0,60,3.0,6,0.2197195119370817
8.33,0.007703084175428559,86.67752751899921,0,60,3.0,6,0.21594182397645206
8.335,0.005975544002062424,86.47143656288762,0,60,3.0,6,0.21109262500912043
8.34,0.004598905818663047,86.22301141626089,0,60,3.0,6,0.20524732744143268
8.345,0.0035115256454839104,85.9360480776319,0,60,3.0,6,0.19849524888545636
8.35,0.002660121266303676,85.61483710619105,0,60,3.0,6,0.19093734367508344
8.355,0.0019992692560877024,85.26405711630112,0,60,3.0,6,0.18268369685414393
8.36,0.0014907520044639367,84.88866186212869,0,60,3.0,6,0.17385086734420438
8.365,0.0011028178277539807,84.49376470286529,0,60,3.0,6,0.16455916947918334
8.37,0.0008094059938923333,84.08452418143106,0,60,3.0,6,0.15492998073955444
8.375,0.0005893771793717645,83.66603423862483,0,60,3.0,6,0.1450831585558784
8.38,0.0004257792353490551,83.24322223736209,0,60,3.0,6,0.135134640879108
8.385,0.0003051686392901525,82.82075751109831,0,60,3.0,6,0.1251942943787837
8.39,0.00021699992642659966,82.40297260454615,0,60,3.0,6,0.11536406128343883
8.395,0.00015308884054097838,81.9937987739174,0,60,3.0,6,0.10573644173923305
8.4,0.00010714989329311098,81.5967166896027,0,60,3.0,6,0.09639333387300472
8.405,7.440535854020571e-05,81.21472266694637,0,60,3.0,6,0.08740523922226758
8.41,5.1260276743925106e-05,80.85031016848625,0,60,3.0,6,0.07883082749379401
8.415,3.503659887882241e-05,80.50546579764779,0,60,3.0,6,0.07071684229759499
8.42,2.375894748103639e-05,80.18167855835483,0,60,3.0,6,0.0630983190201137
8.425,1.5984413869232557e-05,79.87996080067171,0,60,3.0,6,0.055999077662863786
8.43,1.0669166579899869e-05,79.60087901688703,0,60,3.0,6,0.049432447456165526
8.435,7.06526633560511e-06,79.34459249714048,0,60,3.0,7,0.04340217640330546
8.44,4.641847214699205e-06,79.1108977952886,0,60,3.0,7,0.037903477536202206
8.445,3.025641074479182e-06,78.8992769862145,0,60,3.0,7,0.032924164381517705
8.45,1.9566278676921314e-06,78.70894780365752,0,60,3.0,7,0.028445830674294657
8.455,1.2553456560008793e-06,78.53891391879662,0,60,3.0,7,0.024445033383449968
8.46,7.990660428214668e-07,78.38801383874541,0,60,3.0,7,0.02089444326459784
8.465,5.046221251618276e-07,78.25496715486534,0,60,3.0,7,0.017763933055655077
8.47,3.1616527078858815e-07,78.13841713794321,0,60,3.0,7,0.015021579716310766
8.475,1.9652884407760343e-07,78.03696894665431,0,60,3.0,7,0.012634563450689699
8.48,1.2120002189836396e-07,77.94922297505981,0,60,3.0,7,0.010569952354348502
8.485,7.415549848886236e-08,77.8738031041554,0,60,3.0,7,0.008795367156597636
8.49,4.501406988770349e-08,77.8093798341656,0,60,3.0,7,0.007279525509778751
8.495,0.0,77.75468845334072,0,60,3.0,7,0.005992669490369869
8.5,0.0,77.7085425428285,0,60,3.0,7,0.004906883360670503
8.505,0.0,77.6698432252712,0,60,3.0,7,0.003996311182851621
8.51,0.0,77.63758463845281,0,60,3.0,7,0.0032372856106542927
8.515,0.0,77.6108561573609,0,60,3.0,7,0.002608380173197635
8.52,0.0,77.5888419022451,0,60,3.0,7,0.002090397699884547
8.525,0.0,77.5708180611178,0,60,3.0,7,0.0016663073204189432
8.53,0.0,77.55614852741415,0,60,3.0,7,0.0013211418215094534
8.535,0.0,77.54427931196614,0,60,3.0,7,0.001041866163909082
8.54,0.0,77.53473213754465,0,60,3.0,7,0.000817226765756499
8.545,0.0,77.52709756803894,0,60,3.0,7,0.0006375898362103485
8.55,0.0,77.52102796635984,0,60,3.0,7,0.0004947756790550236
8.555,0.0,77.5162305182252,0,60,3.0,7,0.0003818945464752901
8.56,0.0,77.51246050531307,0,60,3.0,7,0.0002931883603075809
8.565,0.0,77.50951496242737,0,60,3.0,7,0.00022388146887939966
8.57,0.0,77.50722681031257,0,60,3.0,7,0.0001700425955899685
8.575,0.0,77.50545951908494,0,60,3.0,7,0.00012845927258675093
8.58,0.0,77.50410232700878,0,60,3.0,7,9.652534138307173e-05
8.585,0.0,77.50306601530963,0,60,3.0,7,7.214153669712473e-05
8.59,0.0,77.50227922141525,0,60,3.0,7,5.362873918235945e-05
8.595,0.0,77.50168525983179,0,60,3.0,7,3.965317251266456e-05
8.6,0.0,77.50123941108798,0,60,3.0,7,2.916261383481523e-05
8.605,0.0,77.50090663407934,0,60,3.0,7,2.1332566572763266e-05
8.61,0.0,77.5006596549978,0,60,3.0,7,1.5521294065980756e-05
8.615,0.0,77.50047738616604,0,60,3.0,7,1.1232615671521189e-05
8.62,0.0,77.50034362990894,0,60,3.0,7,8.085409622120043e-06
8.625,0.0,77.50024602556587,0,60,3.0,7,5.788836844043116e-06
8.63,0.0,77.50017520144215,0,60,3.0,7,4.122386874047044e-06
8.635,0.0,77.50012409756755,0,60,3.0,7,2.919942765883581e-06
8.64,0.0,77.500087429303,0,60,3.0,7,2.057160070441622e-06
8.645,0.0,77.50006126591418,0,60,3.0,7,1.4415509219682409e-06
8.65,0.0,77.50004270207464,0,60,3.0,7,1.004754697345668e-06
8.655,0.0,77.50002960378131,0,60,3.0,7,6.96559560337311e-07
8.66,0.0,77.5000204133158,0,60,3.0,7,4.803133128247924e-07
8.665,0.001684486749771458,77.50001400064605,0,60,3.0,7,3.294269658106393e-07
8.67,0.003097557930867117,77.50000955104196,0,60,3.0,7,2.247303989540395e-07
8.675,0.005475106668887023,77.50000648069503,0,60,3.0,7,1.5248694199619744e-07
8.68,0.00930222931468658,77.50000437381664,0,60,3.0,7,1.0291333263226346e-07
8.685,0.01519157517868857,77.50000293607884,0,60,3.0,7,6.908420807442727e-08
8.69,0.023847336626128316,77.5000019603924,0,60,3.0,7,4.6126879905226385e-08
8.695,0.0359830743700859,77.50000130192649,0,60,3.0,7,3.063356443282614e-08
8.7,0.05218887796857759,77.50000085999925,0,60,3.0,7,2.0235276398285778e-08
8.705,0.0727577001223134,77.50000056503822,0,60,3.0,7,1.3295016956630313e-08
8.71,0.0974992498694751,77.50000036925445,0,60,3.0,7,8.688340023902984e-09
8.715,0.12558706050443358,77.5000002400169,0,60,3.0,7,5.6474565259550755e-09
8.72,0.15549263588878245,77.50000015517654,0,60,3.0,7,3.6512126237486133e-09
8.725,0.1850529723539114,77.50000009978802,0,60,3.0,7,2.347953528335304e-09
8.73,0.21169159439317053,77.50000006382619,0,60,3.0,7,1.5017927607379319e-09
8.735,0.23277292922115492,77.50000004060576,0,60,3.0,7,9.55429534181295e-10
8.74,0.24602692519491282,77.50000002569476,0,60,3.0,7,6.045825905269286e-10
8.745,0.24995056064839283,77.50000001617221,0,60,3.0,7,3.805225520302295e-10
8.75,0.24408826520424054,77.50000001012424,0,60,3.0,7,2.382173935235615e-10
8.755,0.22911894216865275,77.5000000063041,0,60,3.0,7,1.4833189839812215e-10
8.76,0.20672661788705934,77.50000000390439,0,60,3.0,7,9.186799295147306e-11
8.765,0.17928878030241233,77.5000000024052,0,60,3.0,7,5.659297344476834e-11
8.77,0.14946211903866036,77.50000000147372,0,60,3.0,7,3.467582299730138e-11
8.775,0.1197651512573837,77.50000000089815,0,60,3.0,7,2.113304564023993e-11
8.78,0.09224675744988023,77.50000000054445,0,60,3.0,7,1.2810500372913393e-11
