Time,ECG,Pressure,R_Peaks,mean_hr,hrv_scale,Phase_Bin,Normalized_Pressure
0.0,0.001684486749771458,77.5,0,60,3.0,0,0.0
0.005,0.003097557930867117,77.5,0,60,3.0,0,0.0
0.01,0.005475106668887023,77.5,0,60,3.0,0,0.0
0.015,0.00930222931468658,77.5,0,60,3.0,0,0.0
0.02,0.01519157517868857,77.5,0,60,3.0,0,0.0
0.025,0.023847336626128316,77.5,0,60,3.0,0,0.0
0.03,0.0359830743700859,77.5,0,60,3.0,0,0.0
0.035,0.05218887796857759,77.5,0,60,3.0,0,0.0
0.04,0.0727577001223134,77.5,0,60,3.0,0,0.0
0.045,0.0974992498694751,77.5,0,60,3.0,0,0.0
0.05,0.12558706050443358,77.5,0,60,3.0,0,0.0
0.055,0.15549263588878245,77.5,0,60,3.0,0,0.0
0.06,0.1850529723539114,77.5,0,60,3.0,0,0.0
0.065,0.21169159439317053,77.5,0,60,3.0,0,0.0
0.07,0.23277292922115492,77.5,0,60,3.0,0,0.0
0.075,0.24602692519491282,77.5,0,60,3.0,0,0.0
0.08,0.24995056064839283,77.5,0,60,3.0,0,0.0
0.085,0.24408826520424054,77.5,0,60,3.0,0,0.0
0.09,0.22911894216865275,77.5,0,60,3.0,0,0.0
0.095,0.20672661788705934,77.5,0,60,3.0,0,0.0
0.1,0.17928878030241233,77.5,0,60,3.0,0,0.0
0.105,0.14946211903866036,77.5,0,60,3.0,0,0.0
0.11,0.1197651512573837,77.5,0,60,3.0,0,0.0
0.115,0.09224675744988023,77.5,0,60,3.0,0,0.0
0.12,0.06829565320281596,77.5,0,60,3.0,0,0.0
0.125,0.04860224607515734,77.5,0,60,3.0,0,0.0
0.13,0.03324612389699793,77.5,0,60,3.0,0,0.0
0.135,0.021859876340472782,77.5,0,60,3.0,0,0.0
0.14,0.01381595518554205,77.5,0,60,3.0,0,0.0
0.145,0.008394095110402422,77.5,0,60,3.0,0,0.0
0.15,0.0049052535271608,77.5,0,60,3.0,0,0.0
0.155,0.0027671663551903634,77.5,0,60,3.0,0,0.0
0.16,0.0015425553464444616,77.5,0,60,3.0,0,0.0
0.165,0.0009638206637011801,77.5,0,60,3.0,0,0.0
0.17,0.0009804935156568228,77.5,0,60,3.0,0,0.0
0.175,0.0018793744894085216,77.5,0,60,3.0,0,0.0
0.18,0.004535525206900863,77.5,0,60,3.0,0,0.0
0.185,0.010832767979632273,77.5,0,60,3.0,0,0.0
0.19,0.024208003392322392,77.5,0,60,3.0,0,0.0
0.195,0.0500971897335304,77.5,0,60,3.0,0,0.0
0.2,0.09582894921774403,77.5,0,60,3.0,0,0.0
0.205,0.16937896721820658,77.5,0,60,3.0,0,0.0
0.21,0.27661303008991756,77.5,0,60,3.0,0,0.0
0.215,0.4173782800009149,77.5,0,60,3.0,0,0.0
0.22,0.5818720934538056,77.5,0,60,3.0,0,0.0
0.225,0.7494718801585675,77.5,0,60,3.0,0,0.0
0.23,0.891813020752378,77.5,0,60,3.0,0,0.0
0.235,0.9800361632936612,77.5,0,60,3.0,0,0.0
0.24,0.993574479225126,77.5,0,60,3.0,0,0.0
0.245,0.9263438449375362,77.5,0,60,3.0,0,0.0
0.25,0.7873015962290536,77.5,0,60,3.0,0,0.0
0.255,0.5959516244629897,77.5,0,60,3.0,0,0.0
0.26,0.376910120078773,77.5,0,60,3.0,0,0.0
0.265,0.15739335672107918,77.5,0,60,3.0,0,0.0
0.27,-0.033361226269301235,77.5,0,60,3.0,0,0.0
0.275,-0.1680180840843834,77.5,0,60,3.0,0,0.0
0.28,-0.23069703190837854,77.5,0,60,3.0,0,0.0
0.285,-0.22587267821131068,77.5,0,60,3.0,0,0.0
0.29,-0.17718181630665902,77.5,0,60,3.0,0,0.0
0.295,-0.11494332516451301,77.5,0,60,3.0,0,0.0
0.3,-0.061810214049552864,77.5,0,60,3.0,0,0.0
0.305,-0.026546104631500547,77.5,0,60,3.0,0,0.0
0.31,-0.00719600351942686,77.5,0,60,3.0,0,0.0
0.315,0.0022072757983807078,77.5,0,60,3.0,0,0.0
0.32,0.006917199873730717,77.5,0,60,3.0,0,0.0
0.325,0.01004859748264829,77.5,0,60,3.0,0,0.0
0.33,0.013037082251128167,77.5,0,60,3.0,0,0.0
0.335,0.01645163937690478,77.5,0,60,3.0,0,0.0
0.34,0.020526639934696615,77.5,0,60,3.0,0,0.0
0.345,0.02539629541761738,77.5,0,60,3.0,0,0.0
0.35,0.031171612185577933,77.5,0,60,3.0,0,0.0
0.355,0.03795853426638131,77.5,0,60,3.0,0,0.0
0.36,0.0458588961882057,77.5,0,60,3.0,0,0.0
0.365,0.054966995891435555,77.5,0,60,3.0,0,0.0
0.37,0.06536491004445595,77.5,0,60,3.0,0,0.0
0.375,0.07711726085088699,77.5,0,60,3.0,0,0.0
0.38,0.09026570629555215,77.5,0,60,3.0,0,0.0
0.385,0.10482339848670268,77.5,0,60,3.0,0,0.0
0.39,0.12076968927580028,77.5,0,60,3.0,0,0.0
0.395,0.13804539501007884,77.5,0,60,3.0,0,0.0
0.4,0.15654895051787066,77.5,0,60,3.0,0,0.0
0.405,0.17613378141900526,77.5,0,60,3.0,0,0.0
0.41,0.19660720058055794,77.5,0,60,3.0,0,0.0
0.415,0.21773108748496234,77.5,0,60,3.0,0,0.0
0.42,0.23922453870058807,77.5,0,60,3.0,0,0.0
0.425,0.2607685857914563,77.5,0,60,3.0,0,0.0
0.43,0.2820129681603682,77.5,0,60,3.0,0,0.0
0.435,0.30258482867153996,77.5,0,60,3.0,0,0.0
0.44,0.3220990771751686,77.5,0,60,3.0,0,0.0
0.445,0.3401700499968971,77.5,0,60,3.0,0,0.0
0.45,0.3564239911198326,77.5,0,60,3.0,0,0.0
0.455,0.3705118017738417,77.5,0,60,3.0,0,0.0
0.46,0.3821214567925213,77.5,0,60,3.0,0,0.0
0.465,0.39098947374066967,77.5,0,60,3.0,0,0.0
0.47,0.3969108472035567,77.5,0,60,3.0,0,0.0
0.475,0.3997469255491936,77.5,0,60,3.0,0,0.0
0.48,0.3994308076379137,77.5,0,60,3.0,0,0.0
0.485,0.3959699661768434,77.5,0,60,3.0,0,0.0
0.49,0.38944595408114946,77.5,0,60,3.0,0,0.0
0.495,0.38001120995358023,77.5,0,60,3.0,0,0.0
0.5,0.3678831374098315,77.5,0,60,3.0,0,0.0
0.505,0.35333577933796634,77.5,0,60,3.0,0,0.0
0.51,0.33668953221163944,77.5,0,60,3.0,0,0.0
0.515,0.3182994390982644,77.5,0,60,3.0,0,0.0
0.52,0.29854265738230645,77.5,0,60,3.0,0,0.0
0.525,0.2778057157821067,77.5,0,60,3.0,0,0.0
0.53,0.2564721553719815,77.5,0,60,3.0,0,0.0
0.535,0.23491109433464996,77.5,0,60,3.0,0,0.0
0.54,0.21346717185309805,77.5,0,60,3.0,0,0.0
0.545,0.19245222055656455,77.5,0,60,3.0,0,0.0
0.55,0.17213889801761392,77.5,0,60,3.0,0,0.0
0.555,0.15275638501270183,77.5,0,60,3.0,0,0.0
0.56,0.13448814019607322,77.5,0,60,3.0,0,0.0
0.565,0.11747159495449566,77.5,0,60,3.0,0,0.0
0.57,0.10179958433370105,77.5,0,60,3.0,0,0.0
0.575,0.08752324394101413,77.5,0,60,3.0,0,0.0
0.58,0.07465606047174059,77.5,0,60,3.0,0,0.0
0.585,0.0631787448609295,77.5,0,60,3.0,0,0.0
0.59,0.05304460019959574,77.5,0,60,3.0,0,0.0
0.595,0.044185078305849994,77.5,0,60,3.0,0,0.0
0.6,0.03651525513023255,77.5,0,60,3.0,0,0.0
0.605,0.0299390014708757,77.5,0,60,3.0,0,0.0
0.61,0.024353677220580638,77.5,0,60,3.0,0,0.0
0.615,0.01965423034339045,77.5,0,60,3.0,0,0.0
0.62,0.015736632374757337,77.5,0,60,3.0,0,0.0
0.625,0.012500627640593535,77.5,0,60,3.0,0,0.0
0.63,0.009851811652115898,77.5,0,60,3.0,0,0.0
0.635,0.007703084175428559,77.5,0,60,3.0,0,0.0
0.64,0.005975544002062424,77.5,0,60,3.0,0,0.0
0.645,0.004598905818663047,77.5,0,60,3.0,0,0.0
0.65,0.0035115256454839104,77.5,0,60,3.0,0,0.0
0.655,0.002660121266303676,77.5,0,60,3.0,0,0.0
0.66,0.0019992692560877024,77.5,0,60,3.0,0,0.0
0.665,0.0014907520044639367,77.5,0,60,3.0,0,0.0
0.67,0.0011028178277539807,77.5,0,60,3.0,0,0.0
0.675,0.0008094059938923333,77.5,0,60,3.0,0,0.0
0.68,0.0005893771793717645,77.5,0,60,3.0,0,0.0
0.685,0.0004257792353490551,77.5,0,60,3.0,0,0.0
0.69,0.0003051686392901525,77.5,0,60,3.0,0,0.0
0.695,0.00021699992642659966,77.5,0,60,3.0,0,0.0
0.7,0.00015308884054097838,77.5,0,60,3.0,0,0.0
0.705,0.00010714989329311098,77.5,0,60,3.0,0,0.0
0.71,7.440535854020571e-05,77.5,0,60,3.0,0,0.0
0.715,5.1260276743925106e-05,77.5,0,60,3.0,0,0.0
0.72,3.503659887882241e-05,77.5,0,60,3.0,0,0.0
0.725,2.375894748103639e-05,77.5,0,60,3.0,0,0.0
0.73,1.5984413869232557e-05,77.5,0,60,3.0,0,0.0
0.735,1.0669166579899869e-05,77.5,0,60,3.0,0,0.0
0.74,7.06526633560511e-06,77.5,0,60,3.0,0,0.0
0.745,4.641847214699205e-06,77.5,0,60,3.0,0,0.0
0.75,3.025641074479182e-06,77.5,0,60,3.0,0,0.0
0.755,1.9566278676921314e-06,77.5,0,60,3.0,0,0.0
0.76,1.2553456560008793e-06,77.5,0,60,3.0,0,0.0
0.765,7.990660428214668e-07,77.5,0,60,3.0,0,0.0
0.77,5.046221251618276e-07,77.5,0,60,3.0,0,0.0
0.775,3.1616527078858815e-07,77.5,0,60,3.0,0,0.0
0.78,1.9652884407760343e-07,77.5,0,60,3.0,0,0.0
0.785,1.2120002189836396e-07,77.5,0,60,3.0,0,0.0
0.79,7.415549848886236e-08,77.5,0,60,3.0,0,0.0
0.795,4.501406988770349e-08,77.5,0,60,3.0,0,0.0
0.8,0.0,77.5,0,60,3.0,0,0.0
0.805,0.0,77.5,0,60,3.0,0,0.0
0.81,0.0,77.5,0,60,3.0,0,0.0
0.815,0.0,77.5,0,60,3.0,0,0.0
0.82,0.0,77.5,0,60,3.0,0,0.0
0.825,0.0,77.5,0,60,3.0,0,0.0
0.83,0.0,77.5,0,60,3.0,0,0.0
0.835,0.0,77.5,0,60,3.0,0,0.0
0.84,0.0,77.5,0,60,3.0,0,0.0
0.845,0.0,77.5,0,60,3.0,0,0.0
0.85,0.0,77.5,0,60,3.0,0,0.0
0.855,0.0,77.5,0,60,3.0,0,0.0
0.86,0.0,77.5,0,60,3.0,0,0.0
0.865,0.0,77.5,0,60,3.0,0,0.0
0.87,0.0,77.5,0,60,3.0,0,0.0
0.875,0.0,77.5,0,60,3.0,0,0.0
0.88,0.0,77.5,0,60,3.0,0,0.0
0.885,0.0,77.5,0,60,3.0,0,0.0
0.89,0.0,77.5,0,60,3.0,0,0.0
0.895,0.0,77.5,0,60,3.0,0,0.0
0.9,0.0,77.5,0,60,3.0,0,0.0
0.905,0.0,77.5,0,60,3.0,0,0.0
0.91,0.0,77.5,0,60,3.0,0,0.0
0.915,0.0,77.5,0,60,3.0,0,0.0
0.92,0.0,77.5,0,60,3.0,0,0.0
0.925,0.0,77.5,0,60,3.0,0,0.0
0.93,0.0,77.5,0,60,3.0,0,0.0
0.935,0.0,77.5,0,60,3.0,0,0.0
0.94,0.0,77.5,0,60,3.0,0,0.0
0.945,0.0,77.5,0,60,3.0,0,0.0
0.95,0.0,77.5,0,60,3.0,0,0.0
0.955,0.0,77.5,0,60,3.0,0,0.0
0.96,0.0,77.5,0,60,3.0,0,0.0
0.965,0.0,77.5,0,60,3.0,0,0.0
0.97,0.001684486749771458,77.5,0,60,3.0,0,0.0
0.975,0.003097557930867117,77.5,0,60,3.0,0,0.0
0.98,0.005475106668887023,77.5,0,60,3.0,0,0.0
0.985,0.00930222931468658,77.5,0,60,3.0,0,0.0
0.99,0.01519157517868857,77.5,0,60,3.0,0,0.0
0.995,0.023847336626128316,77.5,0,60,3.0,0,0.0
1.0,0.0359830743700859,77.5,0,60,3.0,0,0.0
1.005,0.05218887796857759,77.5,0,60,3.0,0,0.0
1.01,0.0727577001223134,77.5,0,60,3.0,0,0.0
1.015,0.0974992498694751,77.5,0,60,3.0,0,0.0
1.02,0.12558706050443358,77.5,0,60,3.0,0,0.0
1.025,0.15549263588878245,77.5,0,60,3.0,0,0.0
1.03,0.1850529723539114,77.5,0,60,3.0,0,0.0
1.035,0.21169159439317053,77.5,0,60,3.0,0,0.0
1.04,0.23277292922115492,77.5,0,60,3.0,0,0.0
1.045,0.24602692519491282,77.5,0,60,3.0,0,0.0
1.05,0.24995056064839283,77.5,0,60,3.0,0,0.0
1.055,0.24408826520424054,77.5,0,60,3.0,0,0.0
1.06,0.22911894216865275,77.5,0,60,3.0,0,0.0
1.065,0.20672661788705934,77.5,0,60,3.0,0,0.0
1.07,0.17928878030241233,77.5,0,60,3.0,0,0.0
1.075,0.14946211903866036,77.5,0,60,3.0,0,0.0
1.08,0.1197651512573837,77.5,0,60,3.0,0,0.0
1.085,0.09224675744988023,77.5,0,60,3.0,0,0.0
1.09,0.06829565320281596,77.5,0,60,3.0,0,0.0
1.095,0.04860224607515734,77.5,0,60,3.0,0,0.0
1.1,0.03324612389699793,77.5,0,60,3.0,0,0.0
1.105,0.021859876340472782,77.5,0,60,3.0,0,0.0
1.11,0.01381595518554205,77.5,0,60,3.0,0,0.0
1.115,0.008394095110402422,77.5,0,60,3.0,0,0.0
1.12,0.0049052535271608,77.5,0,60,3.0,0,0.0
1.125,0.0027671663551903634,77.5,0,60,3.0,0,0.0
1.13,0.0015425553464444616,77.5,0,60,3.0,0,0.0
1.135,0.0009638206637011801,77.5,0,60,3.0,0,0.0
1.14,0.0009804935156568228,77.5,0,60,3.0,0,0.0
1.145,0.0018793744894085216,77.5,0,60,3.0,0,0.0
1.15,0.004535525206900863,77.5,0,60,3.0,0,0.0
1.155,0.010832767979632273,77.5,0,60,3.0,0,0.0
1.16,0.024208003392322392,77.5,0,60,3.0,0,0.0
1.165,0.0500971897335304,77.5,0,60,3.0,0,0.0
1.17,0.09582894921774403,77.5,0,60,3.0,0,0.0
1.175,0.16937896721820658,77.5,0,60,3.0,0,0.0
1.18,0.27661303008991756,77.5,0,60,3.0,0,0.0
1.185,0.4173782800009149,77.5,0,60,3.0,0,0.0
1.19,0.5818720934538056,77.5,0,60,3.0,0,0.0
1.195,0.7494718801585675,77.5,0,60,3.0,0,0.0
1.2,0.891813020752378,77.5,0,60,3.0,0,0.0
1.205,0.9800361632936612,77.5,0,60,3.0,1,0.0
1.21,0.993574479225126,77.50000249121213,1,60,3.0,1,5.861675597717455e-08
1.215,0.9263438449375362,77.50000372341158,0,60,3.0,1,8.76096842549647e-08
1.22,0.7873015962290536,77.50000566573632,0,60,3.0,1,1.3331144293046877e-07
1.225,0.5959516244629897,77.50000885571517,0,60,3.0,1,2.0836976860289938e-07
1.23,0.376910120078773,77.5000143442108,0,60,3.0,1,3.375108422808219e-07
1.235,0.15739335672107918,77.50002422617413,0,60,3.0,1,5.700276266693169e-07
1.24,-0.033361226269301235,77.5000427028138,0,60,3.0,1,1.004772089425601e-06
1.245,-0.1680180840843834,77.50007816180982,0,60,3.0,1,1.8391014076341355e-06
1.25,-0.23069703190837854,77.50014715410653,0,60,3.0,1,3.462449565377563e-06
1.255,-0.22587267821131068,77.50028180178532,0,60,3.0,1,6.630630242826181e-06
1.26,-0.17718181630665902,77.50054322550362,0,60,3.0,1,1.278177655575853e-05
1.265,-0.11494332516451301,77.50104519934338,0,60,3.0,1,2.4592925726598396e-05
1.27,-0.061810214049552864,77.5019946069251,0,60,3.0,1,4.6931927649291755e-05
1.275,-0.026546104631500547,77.5037585332353,0,60,3.0,1,8.84360761246813e-05
1.28,-0.00719600351942686,77.50697200898993,0,60,3.0,1,0.0001640472703513751
1.285,0.0022072757983807078,77.51270529927623,0,60,3.0,1,0.0002989482182643395
1.29,0.006917199873730717,77.52271452958749,0,60,3.0,1,0.0005344595197056258
1.295,0.01004859748264829,77.53980306848347,0,60,3.0,1,0.0009365427878462389
1.3,0.013037082251128167,77.56832134239289,0,60,3.0,1,0.0016075609974798093
1.305,0.01645163937690478,77.61482673961324,0,60,3.0,1,0.0027018056379584806
1.31,0.020526639934696615,77.68890950334405,0,60,3.0,1,0.00444492949044823
1.315,0.02539629541761738,77.80416164410791,0,60,3.0,1,0.007156744567244874
1.32,0.031171612185577933,77.97922176091217,0,60,3.0,1,0.01127580613910983
1.325,0.03795853426638131,78.23876984767003,0,60,3.0,1,0.01738281994517713
1.33,0.0458588961882057,78.61427774417872,0,60,3.0,1,0.026218299863028746
1.335,0.054966995891435555,79.14425377773641,0,60,3.0,1,0.03868832418203316
1.34,0.06536491004445595,79.87367141614877,0,60,3.0,1,0.055851092144676866
1.345,0.07711726085088699,80.85226321841371,0,60,3.0,1,0.07887678160973437
1.35,0.09026570629555215,82.13141577006257,0,60,3.0,1,0.10897448870735468
1.355,0.10482339848670268,83.75953624114675,0,60,3.0,1,0.14728320567404113
1.36,0.12076968927580028,85.77598170873861,0,60,3.0,1,0.194728981382085
1.365,0.13804539501007884,88.20393375867974,0,60,3.0,1,0.2518572649101115
1.37,0.15654895051787066,91.04292460747617,0,60,3.0,1,0.3186570495876745
1.375,0.17613378141900526,94.26201607275954,0,60,3.0,1,0.39440037818257734
1.38,0.19660720058055794,97.79482424498563,0,60,3.0,1,0.47752527635260317
1.385,0.21773108748496234,101.53759738630791,0,60,3.0,1,0.5655905267366567
1.39,0.23922453870058807,105.3513407407053,0,60,3.0,1,0.6553256644871834
1.395,0.2607685857914563,109.06852903363313,0,60,3.0,1,0.7427889184384265
1.4,0.2820129681603682,112.50429888557557,0,60,3.0,1,0.8236305620135427
1.405,0.30258482867153996,115.47126720378189,0,60,3.0,1,0.8934415812654563
1.41,0.3220990771751686,117.7964161312735,0,60,3.0,1,0.9481509677946707
1.415,0.3401700499968971,119.33797080523625,0,60,3.0,1,0.9844228424761471
1.42,0.3564239911198326,120.0,0,60,3.0,1,1.0
1.425,0.3705118017738417,119.7426611812198,0,60,3.0,1,0.9939449689698777
1.43,0.3821214567925213,118.58658020872706,0,60,3.0,1,0.9667430637347543
1.435,0.39098947374066967,116.61070850950588,0,60,3.0,1,0.9202519649295502
1.44,0.3969108472035567,113.9439788386618,0,60,3.0,1,0.8575053844391013
1.445,0.3997469255491936,110.75199740591255,0,60,3.0,1,0.7823999389626481
1.45,0.3994308076379137,107.2206921691615,0,60,3.0,1,0.6993104039802704
1.455,0.3959699661768434,103.53916545558414,0,60,3.0,1,0.6126862460137444
1.46,0.38944595408114946,99.8839337575341,0,60,3.0,1,0.5266807942949199
1.465,0.38001120995358023,96.40632192670691,0,60,3.0,1,0.44485463356957433
1.47,0.3678831374098315,93.22412349368534,0,60,3.0,1,0.369979376322008
1.475,0.35333577933796634,90.41788995743916,0,60,3.0,1,0.3039503519397449
1.48,0.33668953221163944,88.03151588330014,0,60,3.0,1,0.24780037372470928
1.485,0.3182994390982644,86.07625796361283,0,60,3.0,1,0.20179430502618428
1.49,0.29854265738230645,84.5370279224049,0,60,3.0,1,0.1655771275859977
1.495,0.2778057157821067,83.37973857390041,0,60,3.0,1,0.13834678997412733
1.5,0.2564721553719815,82.55862010723355,0,60,3.0,1,0.11902635546431885
1.505,0.23491109433464996,82.02269163308073,0,60,3.0,1,0.10641627371954648
1.51,0.21346717185309805,81.7208947594175,0,60,3.0,1,0.09931517080982363
1.515,0.19245222055656455,81.60570426339612,0,60,3.0,1,0.09660480619755576
1.52,0.17213889801761392,81.63527895285004,0,60,3.0,1,0.09730068124353045
1.525,0.15275638501270183,81.77438082247657,0,60,3.0,1,0.10057366641121349
1.53,0.13448814019607322,81.99437146551553,0,60,3.0,1,0.10574991683565947
1.535,0.11747159495449566,82.27260550161496,0,60,3.0,1,0.1122966000379991
1.54,0.10179958433370105,82.59150327402068,0,60,3.0,1,0.11980007703578073
1.545,0.08752324394101413,82.93752194051363,0,60,3.0,1,0.12794169271796785
1.55,0.07465606047174059,83.30017433941072,0,60,3.0,1,0.1364746903390757
1.555,0.0631787448609295,83.67118175636352,0,60,3.0,1,0.1452042766203182
1.56,0.05304460019959574,84.04379693864932,0,60,3.0,1,0.1539716926741017
1.565,0.044185078305849994,84.41229937549842,0,60,3.0,1,0.16264233824702168
1.57,0.03651525513023255,84.77164460601541,0,60,3.0,1,0.17109752014153914
1.575,0.0299390014708757,85.11724003927537,0,60,3.0,1,0.17922917739471467
1.58,0.024353677220580638,85.44481795636241,0,60,3.0,1,0.18693689309088032
1.585,0.01965423034339045,85.75037887725323,0,60,3.0,1,0.19412656181772298
1.59,0.015736632374757337,86.03018294186066,0,60,3.0,1,0.20071018686730963
1.595,0.012500627640593535,86.28077181906679,0,60,3.0,1,0.2066063957427479
1.6,0.009851811652115898,86.49900806230578,0,60,3.0,1,0.21174136617190062
1.605,0.007703084175428559,86.6821224211215,0,60,3.0,1,0.216049939320506
1.61,0.005975544002062424,86.82776235320729,0,60,3.0,1,0.21947676125193624
1.615,0.004598905818663047,86.93403697818069,0,60,3.0,1,0.22197734066307495
1.62,0.0035115256454839104,86.9995551458528,0,60,3.0,1,0.22351894460830107
1.625,0.002660121266303676,87.02345432694817,0,60,3.0,1,0.2240812782811334
1.63,0.0019992692560877024,87.00541881040031,0,60,3.0,1,0.22365691318588976
1.635,0.0014907520044639367,86.94568630692714,0,60,3.0,1,0.2222514425159328
1.64,0.0011028178277539807,86.84504257667551,0,60,3.0,1,0.21988335474530613
1.645,0.0008094059938923333,86.70480415477111,0,60,3.0,1,0.21658362717108495
1.65,0.0005893771793717645,86.52678965868259,0,60,3.0,1,0.2123950507925315
1.655,0.0004257792353490551,86.31328052916109,0,60,3.0,1,0.20737130656849626
1.66,0.0003051686392901525,86.06697237901106,0,60,3.0,1,0.20157582068261323
1.665,0.00021699992642659966,85.79091839488574,0,60,3.0,1,0.19508043282084084
1.67,0.00015308884054097838,85.48846645000259,0,60,3.0,1,0.1879639164706492
1.675,0.00010714989329311098,85.16319173460023,0,60,3.0,1,0.1803103937552996
1.68,7.440535854020571e-05,84.81882679268512,0,60,3.0,1,0.17220768923964977
1.685,5.1260276743925106e-05,84.45919086732634,0,60,3.0,1,0.16374566746650215
1.69,3.503659887882241e-05,84.08812040440279,0,60,3.0,1,0.1550145977506538
1.695,2.375894748103639e-05,83.70940245092062,0,60,3.0,1,0.14610358708048518
1.7,1.5984413869232557e-05,83.3267125158391,0,60,3.0,1,0.13709911801974364
1.705,1.0669166579899869e-05,82.9435582478008,0,60,3.0,1,0.12808372347766575
1.71,7.06526633560511e-06,82.56323003577715,0,60,3.0,1,0.11913482437122712
1.715,4.641847214699205e-06,82.18875936685065,0,60,3.0,1,0.11032374980825052
1.72,3.025641074479182e-06,81.82288549193832,0,60,3.0,1,0.10171495275148994
1.725,1.9566278676921314e-06,81.46803066676559,0,60,3.0,1,0.09336542745330789
1.73,1.2553456560008793e-06,81.1262839626152,0,60,3.0,1,0.08532432853212246
1.735,7.990660428214668e-07,80.79939338889601,0,60,3.0,1,0.07763278562108253
1.74,5.046221251618276e-07,80.48876584542448,0,60,3.0,1,0.07032390224528191
1.745,3.1616527078858815e-07,80.19547423270582,0,60,3.0,1,0.06342292312248989
1.75,1.9652884407760343e-07,79.9202708976926,0,60,3.0,1,0.056947550533943604
1.755,1.2120002189836396e-07,79.6636064827602,0,60,3.0,1,0.0509083878296518
1.76,7.415549848886236e-08,79.42565317731419,0,60,3.0,1,0.04530948652503974
1.765,4.501406988770349e-08,79.20633134313105,0,60,3.0,1,0.04014897277955423
1.77,0.0,79.0053384932931,0,60,3.0,1,0.03541972925395519
1.775,0.0,78.8221796462389,0,60,3.0,1,0.031110109323268086
1.78,0.0,78.65619814591867,0,60,3.0,1,0.027204662256909776
1.785,0.0,78.50660613063378,0,60,3.0,1,0.02368485013255963
1.79,0.0,78.37251394090141,0,60,3.0,1,0.02052973978591561
1.795,0.0,78.25295787470216,0,60,3.0,1,0.017716655875344982
1.8,0.0,78.1469258211184,0,60,3.0,1,0.015221784026315324
1.805,0.0,78.05338042554777,0,60,3.0,1,0.013020715895241692
1.81,0.0,77.97127955695117,0,60,3.0,1,0.011088930751792332
1.815,0.0,77.89959395632401,0,60,3.0,1,0.009402210737035562
1.82,0.0,77.83732204296959,0,60,3.0,1,0.007936989246343274
1.825,0.0,77.78350193925876,0,60,3.0,1,0.006670633864911893
1.83,0.0,77.73722084425567,0,60,3.0,1,0.005581666923662919
1.835,0.0,77.69762194149929,0,60,3.0,1,0.004649928035277472
1.84,0.0,77.66390906663102,0,60,3.0,1,0.003856683920729906
1.845,0.0,77.63534938726814,0,60,3.0,1,0.0031846914651326
1.85,0.0,77.61127436177995,0,60,3.0,1,0.0026182202771752494
1.855,0.0,77.5910792469617,0,60,3.0,1,0.0021430411049811267
1.86,0.0,77.57422141874044,0,60,3.0,1,0.0017463863233043706
1.865,0.0,77.56021775677608,0,60,3.0,1,0.0014168883947313722
1.87,0.0,77.54864132491808,0,60,3.0,1,0.0011445017627783514
1.875,0.0,77.53911755662756,0,60,3.0,1,0.0009204130971190406
1.88,0.0,77.5313201292124,0,60,3.0,1,0.0007369442167624343
1.885,0.0,77.52496668439925,0,60,3.0,1,0.0005874513976293121
1.89,0.0,77.51981452651602,0,60,3.0,1,0.00046622415331800017
1.895,0.0,77.51565640430015,0,60,3.0,1,0.0003683859835328295
1.9,0.0,77.5123164587779,0,60,3.0,1,0.00028979903006830574
1.905,0.0,77.50964639827288,0,60,3.0,1,0.00022697407700889016
1.91,0.0,77.50752194270535,0,60,3.0,1,0.00017698688718476607
1.915,0.0,77.50583956308617,0,60,3.0,1,0.00013740148438046162
1.92,0.0,77.50451352850199,0,60,3.0,1,0.00010620067063501559
1.925,0.0,77.50347326184257,0,60,3.0,1,8.172380806052067e-05
1.93,0.0,77.50266099686111,0,60,3.0,1,6.261169084964155e-05
1.935,0.0,77.50202972266136,0,60,3.0,1,4.775818026734455e-05
1.94,0.0,77.50154139710868,0,60,3.0,1,3.626816726309431e-05
1.945,0.0,77.50116540769321,0,60,3.0,1,2.7421357487235263e-05
1.95,0.0,77.50087725675803,0,60,3.0,1,2.06413354830789e-05
1.955,0.0,77.50065744748079,0,60,3.0,1,1.5469352489189452e-05
1.96,0.0,77.50049054732276,0,60,3.0,1,1.154228994718163e-05
1.965,0.0,77.5003644066177,0,60,3.0,1,8.574273357787794e-06
1.97,0.0,77.50026951137633,0,60,3.0,1,6.34144414896261e-06
1.975,0.0,77.50019845107221,0,60,3.0,1,4.669436993133465e-06
1.98,0.0,77.50014548402194,0,60,3.0,1,3.4231534574674323e-06
1.985,0.0,77.50010618487227,0,60,3.0,1,2.498467582721359e-06
1.99,0.0,77.50007716058299,0,60,3.0,1,1.8155431291688728e-06
1.995,0.0,77.50005582308748,0,60,3.0,1,1.3134844112648673e-06
2.0,0.0,77.50004020848472,0,60,3.0,1,9.460819934006662e-07
2.005,0.0,77.5000288341439,0,60,3.0,1,6.784504448125303e-07
2.01,0.0,77.50002058647162,0,60,3.0,1,4.843875675466253e-07
2.015,0.0,77.50001463329997,0,60,3.0,1,3.443129404492057e-07
2.02,0.0,77.50001035590681,0,60,3.0,1,2.4366839551583005e-07
2.025,0.0,77.50000729658244,0,60,3.0,1,1.7168429267525532e-07
2.03,0.0,77.50000511842512,0,60,3.0,1,1.2043353228150142e-07
2.035,0.0,77.50000357469273,0,60,3.0,1,8.41104170991885e-08
2.04,0.001684486749771458,77.50000248557333,0,60,3.0,1,5.848407842195764e-08
2.045,0.003097557930867117,77.50000172067934,0,60,3.0,1,4.048657260949874e-08
2.05,0.005475106668887023,77.50000118592934,0,60,3.0,1,2.7904219651271192e-08
2.055,0.00930222931468658,77.50000081377281,0,60,3.0,1,1.914759563452903e-08
2.06,0.01519157517868857,77.50000055594656,0,60,3.0,1,1.3081095443447019e-08
2.065,0.023847336626128316,77.50000037813633,0,60,3.0,1,8.897325522090849e-09
2.07,0.0359830743700859,77.50000025606445,0,60,3.0,1,6.025045957572087e-09
2.075,0.05218887796857759,77.50000017263771,0,60,3.0,1,4.062063814725501e-09
2.08,0.0727577001223134,77.50000011587974,0,60,3.0,1,2.7265821913983124e-09
2.085,0.0974992498694751,77.50000007743992,0,60,3.0,1,1.822115791583201e-09
2.09,0.12558706050443358,77.50000005152378,0,60,3.0,1,1.2123243376503096e-09
2.095,0.15549263588878245,77.50000003412998,0,60,3.0,1,8.030584093135344e-10
2.1,0.1850529723539114,77.50000002250869,0,60,3.0,1,5.296161522410865e-10
2.105,0.21169159439317053,77.50000001477915,0,60,3.0,1,3.477446304767749e-10
2.11,0.23277292922115492,77.50000000966128,0,60,3.0,1,2.2732418823151794e-10
2.115,0.24602692519491282,77.50000000628789,0,60,3.0,1,1.479503787456505e-10
2.12,0.24995056064839283,77.50000000407437,0,60,3.0,1,9.586742902790908e-11
2.125,0.24408826520424054,77.50000000262847,0,60,3.0,1,6.184630846666336e-11
2.13,0.22911894216865275,77.50000000168822,0,60,3.0,1,3.972284984603688e-11
2.135,0.20672661788705934,77.50000000107954,0,60,3.0,1,2.5400983277530246e-11
2.14,0.17928878030241233,77.5000000006873,0,60,3.0,1,1.6171618292847758e-11
2.145,0.14946211903866036,77.50000000043563,0,60,3.0,1,1.0250205912812174e-11
2.15,0.1197651512573837,77.50000000027491,0,60,3.0,1,6.46844669330783e-12
2.155,0.09224675744988023,77.50000000017272,0,60,3.0,1,4.063970075495651e-12
2.16,0.06829565320281596,77.50000000010805,0,60,3.0,1,2.542238315286608e-12
2.165,0.04860224607515734,77.50000000006729,0,60,3.0,1,1.5832564017995643e-12
2.17,0.03324612389699793,77.50000000004172,0,60,3.0,1,9.817192810313666e-13
2.175,0.021859876340472782,77.50000000002575,0,60,3.0,1,6.058839704457889e-13
2.18,0.01381595518554205,77.50000000001583,0,60,3.0,1,3.724915800643537e-13
2.185,0.008394095110402422,77.50000000000968,0,60,3.0,1,2.2770804849535446e-13
2.19,0.0049052535271608,77.5000000000059,0,60,3.0,1,1.3876481663079605e-13
2.195,0.0027671663551903634,77.50000000000358,0,60,3.0,1,8.426200913484483e-14
2.2,0.0015425553464444616,77.50000000000216,0,60,3.0,1,5.0824703922604816e-14
2.205,0.0009638206637011801,77.5000000000013,0,60,3.0,1,3.042794774313841e-14
2.21,0.0009804935156568228,77.50000000000078,0,60,3.0,1,1.8390517866732006e-14
2.215,0.0018793744894085216,77.50000000000047,0,60,3.0,1,1.1034310720039203e-14
2.22,0.004535525206900863,77.50000000000027,0,60,3.0,1,6.353087990325602e-15
2.225,0.010832767979632273,77.50000000000016,0,60,3.0,1,3.678103573346401e-15
2.23,0.024208003392322392,77.5000000000001,0,60,3.0,1,2.3406113648568006e-15
2.235,0.0500971897335304,77.50000000000006,0,60,3.0,1,1.3374922084896003e-15
2.24,0.09582894921774403,77.50000000000003,0,60,3.0,1,6.687461042448002e-16
2.245,0.16937896721820658,77.50000000000001,0,60,3.0,1,3.343730521224001e-16
2.25,0.27661303008991756,77.50000000000001,0,60,3.0,1,3.343730521224001e-16
2.255,0.4173782800009149,77.5,0,60,3.0,1,0.0
2.26,0.5818720934538056,77.5,0,60,3.0,1,0.0
2.265,0.7494718801585675,77.5,0,60,3.0,1,0.0
2.27,0.891813020752378,77.5,0,60,3.0,1,0.0
2.275,0.9800361632936612,77.5,0,60,3.0,1,0.0
2.28,0.993574479225126,77.50000249553136,1,60,3.0,1,5.871838498826358e-08
2.285,0.9263438449375362,77.5000037979206,0,60,3.0,1,8.936283761078598e-08
2.29,0.7873015962290536,77.50000589651982,0,60,3.0,1,1.387416429064187e-07
2.295,0.5959516244629897,77.5000094348155,0,60,3.0,1,2.2199565872891553e-07
2.3,0.376910120078773,77.50001571195249,0,60,3.0,1,3.6969299966425324e-07
2.305,0.15739335672107918,77.50002740197677,0,60,3.0,1,6.447523944911261e-07
2.31,-0.033361226269301235,77.5000500328844,0,60,3.0,1,1.177244338885644e-06
2.315,-0.1680180840843834,77.50009495573708,0,60,3.0,1,2.234252637248681e-06
2.32,-0.23069703190837854,77.50018514752661,0,60,3.0,1,4.356412390774601e-06
2.325,-0.22587267821131068,77.50036623180388,0,60,3.0,1,8.617218914838198e-06
2.33,-0.17718181630665902,77.50072678709442,0,60,3.0,1,1.710087280992625e-05
2.335,-0.11494332516451301,77.50143461155861,0,60,3.0,1,3.3755566084892054e-05
2.34,-0.061810214049552864,77.5027993939534,0,60,3.0,1,6.58680930210748e-05
2.345,-0.026546104631500547,77.50537738125638,0,60,3.0,1,0.0001265266177971866
2.35,-0.00719600351942686,77.5101400375162,0,60,3.0,1,0.0002385891180281038
2.355,0.0022072757983807078,77.51873573170647,0,60,3.0,1,0.00044084074603460975
2.36,0.006917199873730717,77.53387969714991,0,60,3.0,1,0.0007971693447038486
2.365,0.01004859748264829,77.55991023047092,0,60,3.0,1,0.0014096524816686858
2.37,0.013037082251128167,77.60354438392822,0,60,3.0,1,0.00243633844536997
2.375,0.01645163937690478,77.67484918417814,0,60,3.0,1,0.004114098451250423
2.38,0.020526639934696615,77.7884093308522,0,60,3.0,1,0.0067861019024047994
2.385,0.02539629541761738,77.96461536956245,0,60,3.0,1,0.01093212634264593
2.39,0.031171612185577933,78.23091721059663,0,60,3.0,1,0.017198052014038345
2.395,0.03795853426638131,78.6227928599652,0,60,3.0,1,0.02641865552859298
2.4,0.0458588961882057,79.18408665755831,0,60,3.0,1,0.03962556841313672
2.405,0.054966995891435555,79.96630039667855,0,60,3.0,1,0.058030597568907015
2.41,0.06536491004445595,81.02640747170874,0,60,3.0,2,0.08297429345197027
2.415,0.07711726085088699,82.42283947403011,0,60,3.0,2,0.11583151703600265
2.42,0.09026570629555215,84.20949296015137,0,60,3.0,2,0.15787042259179684
2.425,0.10482339848670268,86.42792724167438,0,60,3.0,2,0.21006887627469134
2.43,0.12076968927580028,89.09834551335945,0,60,3.0,2,0.2729022473731635
2.435,0.13804539501007884,92.21040668051529,0,60,3.0,2,0.3461272160121245
2.44,0.15654895051787066,95.71530488045332,0,60,3.0,2,0.4285954089518428
2.445,0.17613378141900526,99.52076142138833,0,60,3.0,2,0.518135562856196
2.45,0.19660720058055794,103.49049392863455,0,60,3.0,2,0.6115410336149306
2.455,0.21773108748496234,107.44929879905975,0,60,3.0,2,0.7046893835072882
2.46,0.23922453870058807,111.1941190293451,0,60,3.0,2,0.792802800690473
2.465,0.2607685857914563,114.51047262775617,0,60,3.0,2,0.8708346500648512
2.47,0.2820129681603682,117.1925695932531,0,60,3.0,2,0.9339428139588964
2.475,0.30258482867153996,119.06457506308963,0,60,3.0,2,0.977990001484462
2.48,0.3220990771751686,120.0,0,60,3.0,2,1.0
2.485,0.3401700499968971,119.93626626357627,0,60,3.0,2,0.9985003826723828
2.49,0.3564239911198326,118.88213103465766,0,60,3.0,2,0.9736972008154744
2.495,0.3705118017738417,116.91676286621725,0,60,3.0,2,0.9274532439109943
2.5,0.3821214567925213,114.18061934032266,0,60,3.0,2,0.8630733962428863
2.505,0.39098947374066967,110.85960266710498,0,60,3.0,2,0.7849318274612936
2.51,0.3969108472035567,107.16499075378253,0,60,3.0,2,0.6979997824419419
2.515,0.3997469255491936,103.31215997547778,0,60,3.0,2,0.6073449405994773
2.52,0.3994308076379137,99.50105733238124,0,60,3.0,2,0.5176719372324997
2.525,0.3959699661768434,95.90080270694628,0,60,3.0,2,0.43296006369285367
2.53,0.38944595408114946,92.63987384862794,0,60,3.0,2,0.35623232585006925
2.535,0.38001120995358023,89.80227211535595,0,60,3.0,2,0.2894652262436693
2.54,0.3678831374098315,87.429107562273,0,60,3.0,2,0.23362606028877655
2.545,0.35333577933796634,85.52434499291017,0,60,3.0,2,0.18880811748023937
2.55,0.33668953221163944,84.06310121889615,0,60,3.0,2,0.1544259110328506
2.555,0.3182994390982644,83.00087339718817,0,60,3.0,2,0.129432315227957
2.56,0.29854265738230645,82.28233533973716,0,60,3.0,2,0.11252553740558022
2.565,0.2778057157821067,81.84875222780497,0,60,3.0,2,0.10232358183070507
2.57,0.2564721553719815,81.64351943719842,0,60,3.0,2,0.09749457499290402
2.575,0.23491109433464996,81.61573561778272,0,60,3.0,2,0.09684083806547572
2.58,0.21346717185309805,81.7220173312601,0,60,3.0,2,0.09934158426494365
2.585,0.19245222055656455,81.92693369355118,0,60,3.0,2,0.10416314573061594
2.59,0.17213889801761392,82.20249593298601,0,60,3.0,2,0.1106469631290826
2.595,0.15275638501270183,82.52710789170109,0,60,3.0,2,0.11828489156943747
2.6,0.13448814019607322,82.88430441935833,0,60,3.0,2,0.12668951574960777
2.605,0.11747159495449566,83.26150706007847,0,60,3.0,2,0.1355648720018464
2.61,0.10179958433370105,83.64893355810317,0,60,3.0,2,0.14468078960242745
2.615,0.08752324394101413,84.03872273042094,0,60,3.0,2,0.1538522995393163
2.62,0.07465606047174059,84.42428381662813,0,60,3.0,2,0.16292432509713253
2.625,0.0631787448609295,84.79984820751459,0,60,3.0,2,0.17176113429446085
2.63,0.05304460019959574,85.16018700493531,0,60,3.0,2,0.18023969423377198
2.635,0.044185078305849994,85.50045479613394,0,60,3.0,2,0.18824599520315147
2.64,0.03651525513023255,85.81612348054294,0,60,3.0,2,0.1956734936598339
2.645,0.0299390014708757,86.10297630590426,0,60,3.0,2,0.20242297190362973
2.65,0.024353677220580638,86.35713909920837,0,60,3.0,2,0.20840327292254984
2.655,0.01965423034339045,86.5751317625649,0,60,3.0,2,0.21353251206035045
2.66,0.015736632374757337,86.75392796721998,0,60,3.0,2,0.21773948158164658
2.665,0.012500627640593535,86.89101460585793,0,60,3.0,2,0.22096504954959842
2.67,0.009851811652115898,86.98444515996042,0,60,3.0,2,0.22316341552848037
2.675,0.007703084175428559,87.0328829744056,0,60,3.0,2,0.22430312880954342
2.68,0.005975544002062424,87.03563175280645,0,60,3.0,2,0.22436780594838712
2.685,0.004598905818663047,86.99265158497569,0,60,3.0,2,0.22335650788178094
2.69,0.0035115256454839104,86.90455962174919,0,60,3.0,2,0.2212837558058632
2.695,0.002660121266303676,86.7726151996039,0,60,3.0,2,0.2181791811671507
2.7,0.0019992692560877024,86.5986898271919,0,60,3.0,2,0.21408681946333893
2.705,0.0014907520044639367,86.38522299196607,0,60,3.0,2,0.20906407039920175
2.71,0.0011028178277539807,86.13516522658897,0,60,3.0,2,0.20318035827268158
2.715,0.0008094059938923333,85.85191028364954,0,60,3.0,2,0.19651553608587163
2.72,0.0005893771793717645,85.53921859307545,0,60,3.0,2,0.1891580845429517
2.725,0.0004257792353490551,85.20113441032936,0,60,3.0,2,0.18120316259598493
2.73,0.0003051686392901525,84.84189919885794,0,60,3.0,2,0.17275056938489283
2.735,0.00021699992642659966,84.4658638252098,0,60,3.0,2,0.16390267824023047
2.74,0.00015308884054097838,84.07740208207215,0,60,3.0,2,0.15476240193110952
2.745,0.00010714989329311098,83.68082789985633,0,60,3.0,2,0.14543124470250177
2.75,7.440535854020571e-05,83.28031837196917,0,60,3.0,2,0.136007491105157
2.755,5.1260276743925106e-05,82.87984441636587,0,60,3.0,2,0.12658457450272637
2.76,3.503659887882241e-05,82.48311054260569,0,60,3.0,2,0.11724965982601615
2.765,2.375894748103639e-05,82.09350480709807,0,60,3.0,2,0.10808246604936639
2.77,1.5984413869232557e-05,81.71405963766578,0,60,3.0,2,0.09915434441566551
2.775,1.0669166579899869e-05,81.34742380962653,0,60,3.0,2,0.09052761905003609
2.78,7.06526633560511e-06,80.99584547562104,0,60,3.0,2,0.0822551876616715
2.785,4.641847214699205e-06,80.66116580464649,0,60,3.0,2,0.07438037187403498
2.79,3.025641074479182e-06,80.34482248380725,0,60,3.0,2,0.0669369996189941
2.795,1.9566278676921314e-06,80.04786208778954,0,60,3.0,2,0.05994969618328328
2.8,1.2553456560008793e-06,79.77096013143739,0,60,3.0,2,0.05343435603382097
2.805,7.990660428214668e-07,79.51444749231865,0,60,3.0,2,0.04739876452514476
2.81,5.046221251618276e-07,79.278341822098,0,60,3.0,2,0.041843336990541165
2.815,3.1616527078858815e-07,79.06238255449453,0,60,3.0,2,0.0367619424586949
2.82,1.9652884407760343e-07,78.86606815798669,0,60,3.0,2,0.03214278018792209
2.825,1.2120002189836396e-07,78.68869436592169,0,60,3.0,2,0.027969279198157438
2.83,7.415549848886236e-08,78.52939223681737,0,60,3.0,2,0.02422099380746759
2.835,4.501406988770349e-08,78.38716504432811,0,60,3.0,2,0.020874471631249742
2.84,0.0,78.26092316041584,0,60,3.0,2,0.017904074362725703
2.845,0.0,78.14951626792161,0,60,3.0,2,0.01528273571580264
2.85,0.0,78.05176241193382,0,60,3.0,2,0.012982644986678171
2.855,0.0,77.96647356610181,0,60,3.0,2,0.010975848614160268
2.86,0.0,77.89247754460511,0,60,3.0,2,0.009234765755414454
2.865,0.0,77.8286362284681,0,60,3.0,2,0.00773261714042586
2.87,0.0,77.77386019328746,0,60,3.0,2,0.0064437692538226255
2.875,0.0,77.72711992251153,0,60,3.0,2,0.005343998176741974
2.88,0.0,77.68745386566955,0,60,3.0,2,0.004410679192224787
2.885,0.0,77.65397365492345,0,60,3.0,2,0.003622909527610532
2.89,0.0,77.62586682737643,0,60,3.0,2,0.00296157240885711
2.895,0.0,77.60239741673563,0,60,3.0,2,0.0024093509820147575
2.9,0.0,77.58290477863605,0,60,3.0,2,0.0019507006737893896
2.905,0.0,77.56680100188535,0,60,3.0,2,0.0015717882796553462
2.91,0.0,77.55356723584703,0,60,3.0,2,0.0012604055493418
2.915,0.0,77.54274923483845,0,60,3.0,2,0.001005864349140077
2.92,0.0,77.5339523862881,0,60,3.0,2,0.000798879677367214
2.925,0.0,77.52683645271036,0,60,3.0,2,0.0006314459461260172
2.93,0.0,77.52111022023206,0,60,3.0,2,0.0004967110642837725
2.935,0.0,77.51652621000613,0,60,3.0,2,0.0003888520001443313
2.94,0.0,77.51287557458264,0,60,3.0,2,0.0003029546960620417
2.945,0.0,77.50998327004963,0,60,3.0,2,0.00023490047175601724
2.95,0.0,77.50770356706387,0,60,3.0,2,0.0001812604015028415
2.955,0.0,77.50591594005692,0,60,3.0,2,0.0001391985895746556
2.96,0.0,77.5045213539901,0,60,3.0,2,0.00010638479976705639
2.965,0.0,77.50343895192604,0,60,3.0,2,8.091651590689253e-05
2.97,0.0,77.50260313413699,0,60,3.0,2,6.125021498800218e-05
2.975,0.0,77.50196101013708,0,60,3.0,2,4.614141499012155e-05
2.98,0.0,77.50147019851048,0,60,3.0,2,3.459290612882422e-05
2.985,0.0,77.50109694528726,0,60,3.0,2,2.581047734726299e-05
2.99,0.0,77.50081452947285,0,60,3.0,2,1.9165399361126593e-05
2.995,0.0,77.50060192376263,0,60,3.0,2,1.4162912061893247e-05
3.0,0.0,77.50044267910418,0,60,3.0,2,1.041597892193589e-05
3.005,0.0,77.50032400327848,0,60,3.0,2,7.623606552442652e-06
3.01,0.0,77.5002360057779,0,60,3.0,2,5.553077126893079e-06
3.015,0.0,77.50017108373179,0,60,3.0,2,4.025499571432246e-06
3.02,0.0,77.50012342628081,0,60,3.0,2,2.9041477837247786e-06
3.025,0.0,77.50008861748469,0,60,3.0,2,2.0851172868841626e-06
3.03,0.0,77.50006332045746,0,60,3.0,2,1.4898931166338597e-06
3.035,0.0,77.50004502788177,0,60,3.0,2,1.0594795710136062e-06
3.04,0.0,77.50003186631457,0,60,3.0,2,7.49795636987555e-07
3.045,0.0,77.50002244372865,0,60,3.0,2,5.28087733019835e-07
3.05,0.0,77.50001573153237,0,60,3.0,2,3.701537028679441e-07
3.055,0.0,77.50001097387214,0,60,3.0,2,2.5820875614900773e-07
3.06,0.0,77.50000761836212,0,60,3.0,2,1.7925557926901092e-07
3.065,0.001684486749771458,77.50000526351877,0,60,3.0,2,1.2384750053730815e-07
3.07,0.003097557930867117,77.50000361912504,0,60,3.0,2,8.51558832651148e-08
3.075,0.005475106668887023,77.50000247653146,0,60,3.0,2,5.827132855194898e-08
3.08,0.00930222931468658,77.50000168654122,0,60,3.0,2,3.9683322938799394e-08
3.085,0.01519157517868857,77.50000114304392,0,60,3.0,2,2.6895150995187578e-08
3.09,0.023847336626128316,77.50000077097754,0,60,3.0,2,1.814064790671503e-08
3.095,0.0359830743700859,77.50000051752744,0,60,3.0,2,1.2177116225168849e-08
3.1,0.05218887796857759,77.50000034573065,0,60,3.0,2,8.134838935802691e-09
3.105,0.0727577001223134,77.50000022985567,0,60,3.0,2,5.408368759376839e-09
3.11,0.0974992498694751,77.50000015208467,0,60,3.0,2,3.5784627444252904e-09
3.115,0.12558706050443358,77.50000010014482,0,60,3.0,2,2.3563486325549412e-09
3.12,0.15549263588878245,77.50000006562728,0,60,3.0,2,1.544171201363925e-09
3.125,0.1850529723539114,77.50000004280092,0,60,3.0,2,1.0070804739156944e-09
3.13,0.21169159439317053,77.50000002778016,0,60,3.0,2,6.536508328067344e-10
3.135,0.23277292922115492,77.50000001794442,0,60,3.0,2,4.222215466143098e-10
3.14,0.24602692519491282,77.5000000115355,0,60,3.0,2,2.714236469567849e-10
3.145,0.24995056064839283,77.50000000738001,0,60,3.0,2,1.7364728217430907e-10
3.15,0.24408826520424054,77.50000000469883,0,60,3.0,2,1.1056078405732371e-10
3.155,0.22911894216865275,77.50000000297739,0,60,3.0,2,7.005617001542466e-11
3.16,0.20672661788705934,77.50000000187757,0,60,3.0,2,4.417803639251575e-11
3.165,0.17928878030241233,77.50000000117832,0,60,3.0,2,2.7725210362833048e-11
3.17,0.14946211903866036,77.50000000073595,0,60,3.0,2,1.7316511623314855e-11
3.175,0.1197651512573837,77.50000000045745,0,60,3.0,2,1.0763468547820058e-11
3.18,0.09224675744988023,77.50000000028298,0,60,3.0,2,6.658370586913353e-12
3.185,0.06829565320281596,77.50000000017421,0,60,3.0,2,4.0990792459685025e-12
3.19,0.04860224607515734,77.50000000010674,0,60,3.0,2,2.511475994491347e-12
3.195,0.03324612389699793,77.50000000006509,0,60,3.0,2,1.5314285787205924e-12
3.2,0.021859876340472782,77.50000000003949,0,60,3.0,2,9.292227118481499e-13
3.205,0.01381595518554205,77.50000000002385,0,60,3.0,2,5.610779814613874e-13
3.21,0.008394095110402422,77.50000000001434,0,60,3.0,2,3.373824095915017e-13
3.215,0.0049052535271608,77.50000000000857,0,60,3.0,2,2.0162695042980724e-13
3.22,0.0027671663551903634,77.5000000000051,0,60,3.0,2,1.2003992571194163e-13
3.225,0.0015425553464444616,77.50000000000303,0,60,3.0,2,7.122146010207122e-14
3.23,0.0009638206637011801,77.50000000000178,0,60,3.0,2,4.1796631515300014e-14
3.235,0.0009804935156568228,77.50000000000105,0,60,3.0,2,2.4743605857057607e-14
3.24,0.0018793744894085216,77.50000000000061,0,60,3.0,2,1.4378041241263203e-14
3.245,0.004535525206900863,77.50000000000036,0,60,3.0,2,8.359326303060002e-15
3.25,0.010832767979632273,77.5000000000002,0,60,3.0,2,4.681222729713601e-15
3.255,0.024208003392322392,77.50000000000011,0,60,3.0,2,2.6749844169792007e-15
3.26,0.0500971897335304,77.50000000000007,0,60,3.0,2,1.6718652606120004e-15
3.265,0.09582894921774403,77.50000000000004,0,60,3.0,2,1.0031191563672002e-15
3.27,0.16937896721820658,77.50000000000001,0,60,3.0,2,3.343730521224001e-16
3.275,0.27661303008991756,77.50000000000001,0,60,3.0,2,3.343730521224001e-16
3.28,0.4173782800009149,77.5,0,60,3.0,2,0.0
3.285,0.5818720934538056,77.5,0,60,3.0,2,0.0
3.29,0.7494718801585675,77.5,0,60,3.0,2,0.0
3.295,0.891813020752378,77.5,0,60,3.0,2,0.0
3.3,0.9800361632936612,77.5,0,60,3.0,2,0.0
3.305,0.993574479225126,77.50000249055736,1,60,3.0,2,5.860134973879801e-08
3.31,0.9263438449375362,77.50000390266074,0,60,3.0,2,9.182731145408659e-08
3.315,0.7873015962290536,77.5000062610317,0,60,3.0,2,1.4731839294600993e-07
3.32,0.5959516244629897,77.5000104126822,0,60,3.0,2,2.4500428708051913e-07
3.325,0.376910120078773,77.50001815880528,0,60,3.0,2,4.2726600648112414e-07
3.33,0.15739335672107918,77.5000334012751,0,60,3.0,2,7.859123553878496e-07
3.335,-0.033361226269301235,77.50006460378755,0,60,3.0,2,1.5200891188188132e-06
3.34,-0.1680180840843834,77.50012992730984,0,60,3.0,2,3.057113172765051e-06
3.345,-0.23069703190837854,77.50026761566144,0,60,3.0,2,6.296839092770182e-06
3.35,-0.22587267821131068,77.50055630925912,0,60,3.0,2,1.3089629626459581e-05
3.355,-0.17718181630665902,77.50115340923121,0,60,3.0,2,2.713904073429523e-05
3.36,-0.11494332516451301,77.50236492593112,0,60,3.0,2,5.564531602631713e-05
3.365,-0.061810214049552864,77.50476787701339,0,60,3.0,2,0.00011218534149159441
3.37,-0.026546104631500547,77.50941633263068,0,60,3.0,2,0.00022156076778066884
3.375,-0.00719600351942686,77.5181738644655,0,60,3.0,2,0.00042762034036460296
3.38,0.0022072757983807078,77.5342261502554,0,60,3.0,2,0.0008053211824801565
3.385,0.006917199873730717,77.56283330869695,0,60,3.0,2,0.001478430792869457
3.39,0.01004859748264829,77.61237503104077,0,60,3.0,2,0.0026441183774298838
3.395,0.013037082251128167,77.6957132392228,0,60,3.0,2,0.00460501739347759
3.4,0.01645163937690478,77.83183666400365,0,60,3.0,2,0.007807921505968138
3.405,0.020526639934696615,78.04765202417518,0,60,3.0,2,0.012885929980592436
3.41,0.02539629541761738,78.37964807981832,0,60,3.0,2,0.02069760187807821
3.415,0.031171612185577933,78.87499658157523,0,60,3.0,2,0.03235286074294663
3.42,0.03795853426638131,79.591501931469,0,60,3.0,2,0.049211810152211696
3.425,0.0458588961882057,80.59572263286991,0,60,3.0,2,0.07284053253811548
3.43,0.054966995891435555,81.95862818810917,0,60,3.0,2,0.10490889854374526
3.435,0.06536491004445595,83.74838670535817,0,60,3.0,2,0.1470208636554864
3.44,0.07711726085088699,86.02033399330428,0,60,3.0,2,0.2004784469012771
3.445,0.09026570629555215,88.8048315443595,0,60,3.0,2,0.2659960363378706
3.45,0.10482339848670268,92.09448096566497,0,60,3.0,2,0.34339955213329343
3.455,0.12076968927580028,95.83285417186961,0,60,3.0,2,0.4313612746322262
3.46,0.13804539501007884,99.90730401880838,0,60,3.0,2,0.5272306827954912
3.465,0.15654895051787066,104.14833129667961,0,60,3.0,2,0.6270195599218733
3.47,0.17613378141900526,108.33727604108216,0,60,3.0,2,0.7255829656725215
3.475,0.19660720058055794,112.22279730887875,0,60,3.0,2,0.8170069955030295
3.48,0.21773108748496234,115.54490959056277,0,60,3.0,2,0.8951743433073592
3.485,0.23922453870058807,118.06361697299218,0,60,3.0,2,0.9544380464233454
3.49,0.2607685857914563,119.58786456364993,0,60,3.0,2,0.9903026956152925
3.495,0.2820129681603682,120.0,0,60,3.0,2,1.0
3.5,0.30258482867153996,119.27142299958258,0,60,3.0,2,0.9828570117548843
3.505,0.3220990771751686,117.46655828444447,0,60,3.0,2,0.9403896066928111
3.51,0.3401700499968971,114.73441248783143,0,60,3.0,2,0.8761038232430925
3.515,0.3564239911198326,111.28927580351457,0,60,3.0,2,0.7950417836121075
3.52,0.3705118017738417,107.38406102338513,0,60,3.0,2,0.7031543770208266
3.525,0.3821214567925213,103.28089833002707,0,60,3.0,2,0.6066093724712252
3.53,0.39098947374066967,99.22371126121679,0,60,3.0,2,0.5111461473227481
3.535,0.3969108472035567,95.41664685863836,0,60,3.0,2,0.4215681613797261
3.54,0.3997469255491936,92.0107136810468,0,60,3.0,2,0.34142855720110105
3.545,0.3994308076379137,89.09921702002791,0,60,3.0,2,0.27292275341242134
3.55,0.3959699661768434,86.72099306384327,0,60,3.0,2,0.2169645426786651
3.555,0.38944595408114946,84.86934322745678,0,60,3.0,2,0.1733963112342772
3.56,0.38001120995358023,83.50409389992826,0,60,3.0,2,0.14127279764537093
3.565,0.3678831374098315,82.5643187163182,0,60,3.0,2,0.1191604403839576
3.57,0.35333577933796634,81.97979641551007,0,60,3.0,2,0.10540697448258979
3.575,0.33668953221163944,81.68001798316348,0,60,3.0,2,0.09835336430972896
3.58,0.3182994390982644,81.60029568688363,0,60,3.0,2,0.09647754557373239
3.585,0.29854265738230645,81.68511720481757,0,60,3.0,2,0.09847334599570759
3.59,0.2778057157821067,81.8892611786442,0,60,3.0,2,0.10327673361515775
3.595,0.2564721553719815,82.17734651540148,0,60,3.0,2,0.11005521212709368
3.6,0.23491109433464996,82.52247317147288,0,60,3.0,2,0.1181758393287737
3.605,0.21346717185309805,82.90449269890502,0,60,3.0,2,0.12716453409188275
3.61,0.19245222055656455,83.30828526471531,0,60,3.0,2,0.13666553564036021
3.615,0.17213889801761392,83.72226285659941,0,60,3.0,3,0.1464061848611627
3.62,0.15275638501270183,84.13719258266862,0,60,3.0,3,0.1561692372392616
3.625,0.13448814019607322,84.54534839222734,0,60,3.0,3,0.16577290334652564
3.63,0.11747159495449566,84.93995127272836,0,60,3.0,3,0.17505767700537328
3.635,0.10179958433370105,85.31483813156787,0,60,3.0,3,0.1838785442721851
3.64,0.08752324394101413,85.66429795931882,0,60,3.0,3,0.19210112845456037
3.645,0.07465606047174059,85.98302177258904,0,60,3.0,3,0.19960051229621273
3.65,0.0631787448609295,86.2661241010189,0,60,3.0,3,0.20626174355338595
3.655,0.05304460019959574,86.509204811254,0,60,3.0,3,0.21198128967656457
3.66,0.044185078305849994,86.70842921313016,0,60,3.0,3,0.21666892266188612
3.665,0.03651525513023255,86.86061128456899,0,60,3.0,3,0.2202496772839762
3.67,0.0299390014708757,86.96328974342804,0,60,3.0,3,0.2226656410218361
3.675,0.024353677220580638,87.0147900798478,0,60,3.0,3,0.22387741364347763
3.68,0.01965423034339045,87.01426803196546,0,60,3.0,3,0.22386513016389312
3.685,0.015736632374757337,86.9617317279995,0,60,3.0,3,0.2226289818352825
3.69,0.012500627640593535,86.85804109034562,0,60,3.0,3,0.22018920212577936
3.695,0.009851811652115898,86.70488425603972,0,60,3.0,3,0.2165855119068169
3.7,0.007703084175428559,86.50473178744132,0,60,3.0,3,0.2118760420574427
3.705,0.005975544002062424,86.26077035135903,0,60,3.0,3,0.2061357729731536
3.71,0.004598905818663047,85.97681832982333,0,60,3.0,3,0.19945454893701955
3.715,0.0035115256454839104,85.6572264743845,0,60,3.0,3,0.19193474057375295
3.72,0.002660121266303676,85.30676720877216,0,60,3.0,3,0.1836886402064037
3.725,0.0019992692560877024,84.93051650632438,0,60,3.0,3,0.17483568250175013
3.73,0.0014907520044639367,84.53373241029662,0,60,3.0,3,0.1654995861246264
3.735,0.0011028178277539807,84.12173422728785,0,60,3.0,3,0.15580551123030226
3.74,0.0008094059938923333,83.69978621594157,0,60,3.0,3,0.145877322728037
3.745,0.0005893771793717645,83.27298923259978,0,60,3.0,3,0.13583504076705374
3.75,0.0004257792353490551,82.84618330765194,0,60,3.0,3,0.1257925484153398
3.755,0.0003051686392901525,82.42386354125402,0,60,3.0,3,0.11585561273538875
3.76,0.00021699992642659966,82.01011105855213,0,60,3.0,3,0.10612026020122652
3.765,0.00015308884054097838,81.60854008739086,0,60,3.0,3,0.09667153146802032
3.77,0.00010714989329311098,81.22226154968438,0,60,3.0,3,0.0875826246984559
3.775,7.440535854020571e-05,80.85386292236346,0,60,3.0,3,0.07891442170266968
3.78,5.1260276743925106e-05,80.50540355191389,0,60,3.0,3,0.07071537769209145
3.785,3.503659887882241e-05,80.17842411927857,0,60,3.0,3,0.06302174398302528
3.79,2.375894748103639e-05,79.8739685643194,0,60,3.0,3,0.055858083866338774
3.795,1.5984413869232557e-05,79.59261649957682,0,60,3.0,3,0.04923803528416048
3.8,1.0669166579899869e-05,79.33452397376828,0,60,3.0,3,0.04316526997101846
3.805,7.06526633560511e-06,79.09947038249331,0,60,3.0,3,0.037634597235136666
3.81,4.641847214699205e-06,78.88690935809102,0,60,3.0,3,0.03263316136684747
3.815,3.025641074479182e-06,78.6960215896651,0,60,3.0,3,0.028141684462708087
3.82,1.9566278676921314e-06,78.5257677122978,0,60,3.0,3,0.02413571087759545
3.825,1.2553456560008793e-06,78.37493964417503,0,60,3.0,3,0.020586815157059513
3.83,7.990660428214668e-07,78.2422090240731,0,60,3.0,3,0.017463741742896593
3.835,5.046221251618276e-07,78.12617169236393,0,60,3.0,3,0.014733451585033542
3.84,3.1616527078858815e-07,78.025387450806,0,60,3.0,3,0.012362057666023381
3.845,1.9652884407760343e-07,77.93841461647177,0,60,3.0,3,0.010315638034629995
3.85,1.2120002189836396e-07,77.8638391423511,0,60,3.0,3,0.008560920996496394
3.855,7.415549848886236e-08,77.80029830339164,0,60,3.0,3,0.007065842432744523
3.86,4.501406988770349e-08,77.74649913671861,0,60,3.0,3,0.005799979687496743
3.865,0.0,77.70123197589588,0,60,3.0,3,0.00473487002107952
3.87,0.0,77.66337953109218,0,60,3.0,3,0.003844224260992365
3.875,0.0,77.63192204162286,0,60,3.0,3,0.0031040480381848818
3.88,0.0,77.60593906782344,0,60,3.0,3,0.0024926839487868753
3.885,0.0,77.5846084999467,0,60,3.0,3,0.001990788234039923
3.89,0.0,77.56720334779462,0,60,3.0,3,0.0015812552422262878
3.895,0.0,77.55308684140455,0,60,3.0,3,0.0012491021506952941
3.9,0.0,77.54170632554015,0,60,3.0,3,0.0009813253068269954
3.905,0.0,77.53258637389288,0,60,3.0,3,0.0007667382092443083
3.91,0.0,77.5253214871494,0,60,3.0,3,0.000595799697632896
3.915,0.0,77.5195686761332,0,60,3.0,3,0.00046043943842833225
3.92,0.0,77.51504017008224,0,60,3.0,3,0.00035388635487633484
3.925,0.0,77.51149643304234,0,60,3.0,3,0.0002705043068785659
3.93,0.0,77.50873961991796,0,60,3.0,3,0.00020563811571672457
3.935,0.0,77.50660755888478,0,60,3.0,3,0.00015547197375955125
3.94,0.0,77.50496830905382,0,60,3.0,3,0.00011690138950170342
3.945,0.0,77.5037153114783,0,60,3.0,3,8.741909360711522e-05
3.95,0.0,77.50276312746773,0,60,3.0,3,6.501476394659863e-05
3.955,0.0,77.50204374014463,0,60,3.0,3,4.808800340302856e-05
3.96,0.0,77.50150338251946,0,60,3.0,3,3.537370634021767e-05
3.965,0.0,77.50109984727075,0,60,3.0,3,2.587875931179523e-05
3.97,0.0,77.50080022908391,0,60,3.0,3,1.8828919621348497e-05
3.975,0.0,77.50057904904067,0,60,3.0,3,1.3624683309805785e-05
3.98,0.0,77.50041671144271,0,60,3.0,3,9.804975122599845e-06
3.985,0.0,77.50029824596082,0,60,3.0,3,7.017552019306095e-06
3.99,0.0,77.50021229158524,0,60,3.0,3,4.995096123352863e-06
3.995,0.0,77.50015028306859,0,60,3.0,3,3.536072202169795e-06
4.0,0.0,77.50010580504913,0,60,3.0,3,2.4895305677867272e-06
4.005,0.0,77.50007408355204,0,60,3.0,3,1.7431424008490842e-06
4.01,0.0,77.50005158889975,0,60,3.0,3,1.213856464734336e-06
4.015,0.0,77.50003572808994,0,60,3.0,3,8.406609397832868e-07
4.02,0.0,77.50002460834446,0,60,3.0,3,5.790198696665946e-07
4.025,0.001684486749771458,77.50001685675832,0,60,3.0,3,3.9662960756793514e-07
4.03,0.003097557930867117,77.500011483778,0,60,3.0,3,2.7020654108448924e-07
4.035,0.005475106668887023,77.50000778062673,0,60,3.0,3,1.830735701493241e-07
4.04,0.00930222931468658,77.50000524280178,0,60,3.0,3,1.233600418051056e-07
4.045,0.01519157517868857,77.50000351343044,0,60,3.0,3,8.266895159014145e-08
4.05,0.023847336626128316,77.5000023416304,0,60,3.0,3,5.5097186024046524e-08
4.055,0.0359830743700859,77.5000015521168,0,60,3.0,3,3.652039528306512e-08
4.06,0.05218887796857759,77.50000102317405,0,60,3.0,3,2.4074683538214337e-08
4.065,0.0727577001223134,77.500000670801,0,60,3.0,3,1.5783552953507752e-08
4.07,0.0974992498694751,77.500000437378,0,60,3.0,3,1.029124719560273e-08
4.075,0.12558706050443358,77.50000028362157,0,60,3.0,3,6.6734488053257606e-09
4.08,0.15549263588878245,77.50000018291134,0,60,3.0,3,4.303796137772973e-09
4.085,0.1850529723539114,77.50000011731703,0,60,3.0,3,2.760400681889972e-09
4.09,0.21169159439317053,77.50000007483428,0,60,3.0,3,1.7608064862382462e-09
4.095,0.23277292922115492,77.50000004747436,0,60,3.0,3,1.1170437333288752e-09
4.1,0.24602692519491282,77.50000002995276,0,60,3.0,3,7.047707881343633e-10
4.105,0.24995056064839283,77.50000001879462,0,60,3.0,3,4.4222641757668874e-10
4.11,0.24408826520424054,77.50000001172869,0,60,3.0,3,2.759691142273368e-10
4.115,0.22911894216865275,77.50000000727921,0,60,3.0,3,1.7127557411560487e-10
4.12,0.20672661788705934,77.50000000449302,0,60,3.0,3,1.0571805914343499e-10
4.125,0.17928878030241233,77.5000000027581,0,60,3.0,3,6.48964594481239e-11
4.13,0.14946211903866036,77.50000000168384,0,60,3.0,3,3.9619862945983186e-11
4.135,0.1197651512573837,77.50000000102239,0,60,3.0,3,2.405613486189395e-11
4.14,0.09224675744988023,77.50000000061736,0,60,3.0,3,1.4526168503353428e-11
4.145,0.06829565320281596,77.50000000037076,0,60,3.0,3,8.723792929873418e-12
4.15,0.04860224607515734,77.50000000022145,0,60,3.0,3,5.210535271223361e-12
4.155,0.03324612389699793,77.50000000013154,0,60,3.0,3,3.094956970444935e-12
4.16,0.021859876340472782,77.5000000000777,0,60,3.0,3,1.8283518490052836e-12
4.165,0.01381595518554205,77.50000000004566,0,60,3.0,3,1.0743406164692714e-12
4.17,0.008394095110402422,77.50000000002667,0,60,3.0,3,6.27618218833745e-13
4.175,0.0049052535271608,77.5000000000155,0,60,3.0,3,3.648009998655385e-13
4.18,0.0027671663551903634,77.50000000000895,0,60,3.0,3,2.1065502283711206e-13
4.185,0.0015425553464444616,77.50000000000514,0,60,3.0,3,1.2104304486830883e-13
4.19,0.0009638206637011801,77.50000000000294,0,60,3.0,3,6.921522178933681e-14
4.195,0.0009804935156568228,77.50000000000168,0,60,3.0,3,3.945602015044321e-14
4.2,0.0018793744894085216,77.50000000000095,0,60,3.0,3,2.2402994492200805e-14
4.205,0.004535525206900863,77.50000000000053,0,60,3.0,3,1.2371802928528803e-14
4.21,0.010832767979632273,77.5000000000003,0,60,3.0,3,7.021834094570402e-15
4.215,0.024208003392322392,77.50000000000017,0,60,3.0,3,4.012476625468801e-15
4.22,0.0500971897335304,77.50000000000009,0,60,3.0,3,2.0062383127344005e-15
4.225,0.09582894921774403,77.50000000000004,0,60,3.0,3,1.0031191563672002e-15
4.23,0.16937896721820658,77.50000000000003,0,60,3.0,3,6.687461042448002e-16
4.235,0.27661303008991756,77.50000000000001,0,60,3.0,3,3.343730521224001e-16
4.24,0.4173782800009149,77.50000000000001,0,60,3.0,3,3.343730521224001e-16
4.245,0.5818720934538056,77.5,0,60,3.0,3,0.0
4.25,0.7494718801585675,77.5,0,60,3.0,3,0.0
4.255,0.891813020752378,77.5,0,60,3.0,3,0.0
4.26,0.9800361632936612,77.5,0,60,3.0,3,0.0
4.265,0.993574479225126,77.50000249070214,1,60,3.0,3,5.8604756331453034e-08
4.27,0.9263438449375362,77.5000037748439,0,60,3.0,3,8.881985656765156e-08
4.275,0.7873015962290536,77.500005833579,0,60,3.0,3,1.372606822555741e-07
4.28,0.5959516244629897,77.50000928366461,0,60,3.0,3,2.1843916730337214e-07
4.285,0.376910120078773,77.500015361103,0,60,3.0,3,3.6143771754883777e-07
4.29,0.15739335672107918,77.50002659138995,0,60,3.0,3,6.256797636230177e-07
4.295,-0.033361226269301235,77.50004815927716,0,60,3.0,3,1.133159462503553e-06
4.3,-0.1680180840843834,77.5000906430617,0,60,3.0,3,2.1327779222701793e-06
4.305,-0.23069703190837854,77.50017533177136,0,60,3.0,3,4.1254534437484836e-06
4.31,-0.22587267821131068,77.50034427932519,0,60,3.0,3,8.100690004486001e-06
4.315,-0.17718181630665902,77.50067876339347,0,60,3.0,3,1.5970903375679934e-05
4.32,-0.11494332516451301,77.50133214821588,0,60,3.0,3,3.1344663903061755e-05
4.325,-0.061810214049552864,77.5025865477528,0,60,3.0,3,6.085994712467415e-05
4.33,-0.026546104631500547,77.50494731977106,0,60,3.0,3,0.00011640752402500125
4.335,-0.00719600351942686,77.50929523851232,0,60,3.0,3,0.00021871149440759086
4.34,0.0022072757983807078,77.5171226889302,0,60,3.0,3,0.0004028867983576594
4.345,0.006917199873730717,77.53088616090623,0,60,3.0,3,0.0007267331977937588
4.35,0.01004859748264829,77.55451044219848,0,60,3.0,3,0.0012825986399641752
4.355,0.013037082251128167,77.59407677734065,0,60,3.0,3,0.00221357123154462
4.36,0.01645163937690478,77.65871339087008,0,60,3.0,3,0.003734432726354739
4.365,0.020526639934696615,77.76167727564739,0,60,3.0,3,0.006157112368173798
4.37,0.02539629541761738,77.92156705033047,0,60,3.0,3,0.009919224713658035
4.375,0.031171612185577933,78.16353698380597,0,60,3.0,3,0.01561263491308162
4.38,0.03795853426638131,78.5202964150463,0,60,3.0,3,0.02400697447167772
4.385,0.0458588961882057,79.03258899051217,0,60,3.0,3,0.036060917423815696
4.39,0.054966995891435555,79.74877354393652,0,60,3.0,3,0.05291231868085935
4.395,0.06536491004445595,80.7231018809971,0,60,3.0,3,0.07583769131757896
4.4,0.07711726085088699,82.01234009388017,0,60,3.0,3,0.1061727080912981
4.405,0.09026570629555215,83.67053603700003,0,60,3.0,3,0.1451890832235302
4.41,0.10482339848670268,85.74200698045453,0,60,3.0,3,0.1939295760106949
4.415,0.12076968927580028,88.25299216597037,0,60,3.0,3,0.25301158037577337
4.42,0.13804539501007884,91.20283520772053,0,60,3.0,3,0.3224196519463653
4.425,0.15654895051787066,94.55594843457419,0,60,3.0,3,0.40131643375468684
4.43,0.17613378141900526,98.2360618659798,0,60,3.0,3,0.48790733802305425
4.435,0.19660720058055794,102.12427180024235,0,60,3.0,3,0.5793946305939377
4.44,0.21773108748496234,106.06210749842371,0,60,3.0,3,0.672049588198205
4.445,0.23922453870058807,109.86021864616963,0,60,3.0,3,0.7614169093216383
4.45,0.2607685857914563,113.31241870434148,0,60,3.0,3,0.8426451459845055
4.455,0.2820129681603682,116.21384448755202,0,60,3.0,3,0.9109139879424005
4.46,0.30258482867153996,118.38110783857866,0,60,3.0,3,0.9619084197312625
4.465,0.3220990771751686,119.6717274950356,0,60,3.0,3,0.9922759410596611
4.47,0.3401700499968971,120.0,0,60,3.0,3,1.0
4.475,0.3564239911198326,119.34686742618811,0,60,3.0,3,0.9846321747338379
4.48,0.3705118017738417,117.76221775269957,0,60,3.0,3,0.9473463000635193
4.485,0.3821214567925213,115.35924796725743,0,60,3.0,3,0.8908058345237043
4.49,0.39098947374066967,112.30178985500262,0,60,3.0,3,0.8188656436471206
4.495,0.3969108472035567,108.78658469160068,0,60,3.0,3,0.736154933920016
4.5,0.3997469255491936,105.02318183622177,0,60,3.0,3,0.6476042784993357
4.505,0.3994308076379137,101.21431013746422,0,60,3.0,3,0.5579837679403347
4.51,0.3959699661768434,97.53923277955604,0,60,3.0,3,0.4715113595189658
4.515,0.38944595408114946,94.14185919721706,0,60,3.0,3,0.39157315758157785
4.52,0.38001120995358023,91.12443922669075,0,60,3.0,3,0.3205750406280177
4.525,0.3678831374098315,88.54671365581692,0,60,3.0,3,0.25992267425451565
4.53,0.35333577933796634,86.42962122580431,0,60,3.0,3,0.21010873472480732
4.535,0.33668953221163944,84.76217841349774,0,60,3.0,3,0.17087478619994673
4.54,0.3182994390982644,83.50998827510688,0,60,3.0,3,0.14141148882604418
4.545,0.29854265738230645,82.6239592616714,0,60,3.0,3,0.12056374733344476
4.55,0.2778057157821067,82.04813671665211,0,60,3.0,3,0.10701498156828493
4.555,0.2564721553719815,81.72596289047014,0,60,3.0,3,0.09943442095223866
4.56,0.23491109433464996,81.60468893918195,0,60,3.0,3,0.09658091621604599
4.565,0.21346717185309805,81.63799504646468,0,60,3.0,3,0.09736458932858073
4.57,0.19245222055656455,81.78709744087013,0,60,3.0,3,0.10087288096165005
4.575,0.17213889801761392,82.02073014370184,0,60,3.0,3,0.10637012102827859
4.58,0.15275638501270183,82.31440368405315,0,60,3.0,3,0.11328008668360345
4.585,0.13448814019607322,82.64929288117871,0,60,3.0,3,0.12115983249832257
4.59,0.11747159495449566,83.0110225176634,0,60,3.0,3,0.12967111806266837
4.595,0.10179958433370105,83.3885292368498,0,60,3.0,3,0.13855362910234836
4.6,0.08752324394101413,83.77309765368632,0,60,3.0,3,0.1476022977337958
4.605,0.07465606047174059,84.15760717412064,0,60,3.0,3,0.15664958056754452
4.61,0.0631787448609295,84.53598520779653,0,60,3.0,3,0.1655525931246242
4.615,0.05304460019959574,84.90283979370203,0,60,3.0,3,0.17418446573416538
4.62,0.044185078305849994,85.2532355842238,0,60,3.0,3,0.18242907256997182
4.625,0.03651525513023255,85.58257682747728,0,60,3.0,3,0.1901782782935831
4.63,0.0299390014708757,85.88656538177838,0,60,3.0,3,0.19733095015949134
4.635,0.024353677220580638,86.1612079739718,0,60,3.0,3,0.20379312879933642
4.64,0.01965423034339045,86.40285309350594,0,60,3.0,3,0.2094788963177868
4.645,0.015736632374757337,86.6082432150249,0,60,3.0,3,0.21431160505940938
4.65,0.012500627640593535,86.77457218739008,0,60,3.0,3,0.21822522793859006
4.655,0.009851811652115898,86.89954068208965,0,60,3.0,3,0.22116566310799177
4.66,0.007703084175428559,86.98140477366222,0,60,3.0,3,0.22309187702734634
4.665,0.005975544002062424,87.01901427304892,0,60,3.0,3,0.22397680642468057
4.67,0.004598905818663047,87.01183856381658,0,60,3.0,3,0.22380796620744897
4.675,0.0035115256454839104,86.95997855926363,0,60,3.0,3,0.22258773080620312
4.68,0.002660121266303676,86.86416411011633,0,60,3.0,3,0.22033327317920787
4.685,0.0019992692560877024,86.72573680860323,0,60,3.0,3,0.21707616020242895
4.69,0.0014907520044639367,86.54661868443019,0,60,3.0,3,0.21286161610423968
4.695,0.0011028178277539807,86.32926778050197,0,60,3.0,3,0.20774747718828154
4.7,0.0008094059938923333,86.0766220284689,0,60,3.0,3,0.20180287125809185
4.705,0.0005893771793717645,85.79203320823416,0,60,3.0,3,0.1951066637231567
4.71,0.0004257792353490551,85.47919306210486,0,60,3.0,3,0.18774571910834953
4.715,0.0003051686392901525,85.1420538353606,0,60,3.0,3,0.1798130314202494
4.72,0.00021699992642659966,84.78474562561813,0,60,3.0,3,0.1714057794263089
4.725,0.00015308884054097838,84.41149294219383,0,60,3.0,3,0.1626233633457372
4.73,0.00010714989329311098,84.02653280638995,0,60,3.0,3,0.15356547779741062
4.735,7.440535854020571e-05,83.63403657080012,0,60,3.0,3,0.14433027225412048
4.74,5.1260276743925106e-05,83.23803741033751,0,60,3.0,3,0.13501264494911794
4.745,3.503659887882241e-05,82.8423651525489,0,60,3.0,3,0.12570270947173867
4.75,2.375894748103639e-05,82.45058978476153,0,60,3.0,3,0.11648446552380078
4.755,1.5984413869232557e-05,82.06597461680163,0,60,3.0,3,0.1074346968659206
4.76,1.0669166579899869e-05,81.69143970684148,0,60,3.0,3,0.09862211074921126
4.765,7.06526633560511e-06,81.32953579030706,0,60,3.0,3,0.09010672447781323
4.77,4.641847214699205e-06,80.98242860237454,0,60,3.0,3,0.08193949652645977
4.775,3.025641074479182e-06,80.65189316618567,0,60,3.0,3,0.07416219214554524
4.78,1.9566278676921314e-06,80.33931734191135,0,60,3.0,3,0.06680746686850245
4.785,1.2553456560008793e-06,80.04571370388507,0,60,3.0,3,0.05989914597376636
4.79,7.990660428214668e-07,79.77173863904802,0,60,3.0,3,0.05345267385995351
4.795,5.046221251618276e-07,79.51771744188935,0,60,3.0,3,0.04747570451504343
4.8,3.1616527078858815e-07,79.28367411824715,0,60,3.0,3,0.04196880278228585
4.805,1.9652884407760343e-07,79.06936459968861,0,60,3.0,3,0.03692622587502616
4.81,1.2120002189836396e-07,78.87431210665059,0,60,3.0,3,0.03233675545060217
4.815,7.415549848886236e-08,78.69784347549275,0,60,3.0,3,0.028184552364535206
4.82,4.501406988770349e-08,78.53912537444172,0,60,3.0,4,0.024450008810393508
4.825,0.0,78.39719946787567,0,60,3.0,4,0.02111057571472155
4.83,0.0,78.27101573919998,0,60,3.0,4,0.018141546804705446
4.835,0.0,78.15946334170297,0,60,3.0,4,0.015516784510658212
4.84,0.0,78.06139850691407,0,60,3.0,4,0.013209376633272327
4.845,0.0,77.97566919470562,0,60,3.0,4,0.011192216346014514
4.85,0.0,77.9011363133772,0,60,3.0,4,0.009438501491228086
4.855,0.0,77.83669146714263,0,60,3.0,4,0.007922152168061851
4.86,0.0,77.78127129994012,0,60,3.0,4,0.006618148233885075
4.865,0.0,77.73386859662963,0,60,3.0,4,0.005502790508932562
4.87,0.0,77.69354037484015,0,60,3.0,4,0.004553891172709507
4.875,0.0,77.6594132533464,0,60,3.0,4,0.0037509000787388364
4.88,0.0,77.63068641703312,0,60,3.0,4,0.0030749745184263087
4.885,0.0,77.60663251599041,0,60,3.0,4,0.002509000376244999
4.89,0.0,77.58659683924148,0,60,3.0,4,0.002037572688034823
4.895,0.0,77.5699950944462,0,60,3.0,4,0.0016469433987340916
4.9,0.0,77.5563101061534,0,60,3.0,4,0.0013249436741977446
4.905,0.0,77.54508771925303,0,60,3.0,4,0.0010608875118360657
4.91,0.0,77.53593216351848,0,60,3.0,4,0.0008454626710230888
4.915,0.0,77.52850110161448,0,60,3.0,4,0.0006706141556348405
4.92,0.0,77.52250054847673,0,60,3.0,4,0.0005294246700406588
4.925,0.0,77.51767981603862,0,60,3.0,4,0.0004159956714970041
4.93,0.0,77.51382660505939,0,60,3.0,4,0.0003253318837504166
4.935,0.0,77.51076233615936,0,60,3.0,4,0.00025323143904375575
4.94,0.0,77.50833778567196,0,60,3.0,4,0.00019618319228129622
4.945,0.0,77.50642906890162,0,60,3.0,4,0.00015127220944999168
4.95,0.0,77.50493399394611,0,60,3.0,4,0.00011609397520260246
4.955,0.0,77.50376879333639,0,60,3.0,4,8.86774902680292e-05
4.96,0.0,77.502865228177,0,60,3.0,4,6.741713357648811e-05
4.965,0.0,77.50216804994355,0,60,3.0,4,5.101293984821228e-05
4.97,0.0,77.501632798266,0,60,3.0,4,3.841878272944942e-05
4.975,0.0,77.50122390851851,0,60,3.0,4,2.8797847494388407e-05
4.98,0.0,77.50091310046415,0,60,3.0,4,2.1484716803436587e-05
4.985,0.0,77.50067801819499,0,60,3.0,4,1.5953369293864692e-05
4.99,0.0,77.50050109181922,0,60,3.0,4,1.1790395746281908e-05
4.995,0.0,77.50036859246728,0,60,3.0,4,8.672763936053396e-06
5.0,0.0,77.5002698539488,0,60,3.0,4,6.349504677500055e-06
5.005,0.0,77.50019663656475,0,60,3.0,4,4.626742700044333e-06
5.01,0.0,77.50014261097807,0,60,3.0,4,3.3555524252653197e-06
5.015,0.0,77.5001029425252,0,60,3.0,4,2.422177063595775e-06
5.02,0.0,77.50007395879989,0,60,3.0,4,1.7402070561863238e-06
5.025,0.0,77.50005288567749,0,60,3.0,4,1.2443688821322747e-06
5.03,0.0,77.5000376391206,0,60,3.0,4,8.856263672013858e-07
5.035,0.0,77.50002666208097,0,60,3.0,4,6.273430816396714e-07
5.04,0.0,77.50001879757373,0,60,3.0,4,4.422958524815733e-07
5.045,0.0,77.50001319054469,0,60,3.0,4,3.1036575746036437e-07
5.05,0.0,77.50000921248602,0,60,3.0,4,2.167643769473002e-07
5.055,0.0,77.50000640389396,0,60,3.0,4,1.506798579451724e-07
5.06,0.001684486749771458,77.500004430621,0,60,3.0,4,1.0424990598360584e-07
5.065,0.003097557930867117,77.50000305097221,0,60,3.0,4,7.178758143227777e-08
5.07,0.005475106668887023,77.50000209105319,0,60,3.0,4,4.920125153309046e-08
5.075,0.00930222931468658,77.50000142641234,0,60,3.0,4,3.356264327896283e-08
5.08,0.01519157517868857,77.50000096845238,0,60,3.0,4,2.2787114898271874e-08
5.085,0.023847336626128316,77.50000065443217,0,60,3.0,4,1.5398404015928355e-08
5.09,0.0359830743700859,77.50000044015351,0,60,3.0,4,1.0356553262039704e-08
5.095,0.05218887796857759,77.50000029464353,0,60,3.0,4,6.9327888789249464e-09
5.1,0.0727577001223134,77.50000019631017,0,60,3.0,4,4.619062779324047e-09
5.105,0.0974992498694751,77.50000013017929,0,60,3.0,4,3.0630420657390083e-09
5.11,0.12558706050443358,77.50000008591998,0,60,3.0,4,2.021646557349253e-09
5.115,0.15549263588878245,77.50000005644164,0,60,3.0,4,1.3280384791869436e-09
5.12,0.1850529723539114,77.5000000369027,0,60,3.0,4,8.682989386322921e-10
5.125,0.21169159439317053,77.5000000240143,0,60,3.0,4,5.650423083673505e-10
5.13,0.23277292922115492,77.50000001555374,0,60,3.0,4,3.6597030242881054e-10
5.135,0.24602692519491282,77.50000001002658,0,60,3.0,4,2.3591958190937634e-10
5.14,0.24995056064839283,77.50000000643315,0,60,3.0,4,1.5136834008444567e-10
5.145,0.24408826520424054,77.50000000410817,0,60,3.0,4,9.666290251890827e-11
5.15,0.22911894216865275,77.50000000261112,0,60,3.0,4,6.143803897002191e-11
5.155,0.20672661788705934,77.5000000016518,0,60,3.0,4,3.8865851713447175e-11
5.16,0.17928878030241233,77.50000000104002,0,60,3.0,4,2.447109181957785e-11
5.165,0.14946211903866036,77.50000000065175,0,60,3.0,4,1.5335351289489637e-11
5.17,0.1197651512573837,77.5000000004065,0,60,3.0,4,9.564741155961254e-12
5.175,0.09224675744988023,77.50000000025236,0,60,3.0,4,5.9377966595895805e-12
5.18,0.06829565320281596,77.50000000015592,0,60,3.0,4,3.668741127886974e-12
5.185,0.04860224607515734,77.50000000009588,0,60,3.0,4,2.2560149826698334e-12
5.19,0.03324612389699793,77.50000000005869,0,60,3.0,4,1.3809607052655123e-12
5.195,0.021859876340472782,77.50000000003575,0,60,3.0,4,8.412825991399587e-13
5.2,0.01381595518554205,77.50000000002167,0,60,3.0,4,5.099189044866601e-13
5.205,0.008394095110402422,77.50000000001309,0,60,3.0,4,3.079575810047305e-13
5.21,0.0049052535271608,77.50000000000786,0,60,3.0,4,1.8490829782368725e-13
5.215,0.0027671663551903634,77.5000000000047,0,60,3.0,4,1.1067748025251443e-13
5.22,0.0015425553464444616,77.5000000000028,0,60,3.0,4,6.587149126811282e-14
5.225,0.0009638206637011801,77.50000000000165,0,60,3.0,4,3.878727404619841e-14
5.23,0.0009804935156568228,77.50000000000098,0,60,3.0,4,2.3071740596445606e-14
5.235,0.0018793744894085216,77.50000000000057,0,60,3.0,4,1.3374922084896003e-14
5.24,0.004535525206900863,77.50000000000033,0,60,3.0,4,7.690580198815202e-15
5.245,0.010832767979632273,77.5000000000002,0,60,3.0,4,4.681222729713601e-15
5.25,0.024208003392322392,77.50000000000011,0,60,3.0,4,2.6749844169792007e-15
5.255,0.0500971897335304,77.50000000000007,0,60,3.0,4,1.6718652606120004e-15
5.26,0.09582894921774403,77.50000000000004,0,60,3.0,4,1.0031191563672002e-15
5.265,0.16937896721820658,77.50000000000001,0,60,3.0,4,3.343730521224001e-16
5.27,0.27661303008991756,77.50000000000001,0,60,3.0,4,3.343730521224001e-16
5.275,0.4173782800009149,77.5,0,60,3.0,4,0.0
5.28,0.5818720934538056,77.5,0,60,3.0,4,0.0
5.285,0.7494718801585675,77.5,0,60,3.0,4,0.0
5.29,0.891813020752378,77.5,0,60,3.0,4,0.0
5.295,0.9800361632936612,77.5,0,60,3.0,4,0.0
5.3,0.993574479225126,77.5000024966485,1,60,3.0,4,5.874467072263702e-08
5.305,0.9263438449375362,77.50000388454893,0,60,3.0,4,9.140115132729132e-08
5.31,0.7873015962290536,77.50000618232913,0,60,3.0,4,1.454665677743726e-07
5.315,0.5959516244629897,77.5000101847726,0,60,3.0,4,2.396417083700191e-07
5.32,0.376910120078773,77.50001756083037,0,60,3.0,4,4.1319600875474007e-07
5.325,0.15739335672107918,77.50003188149957,0,60,3.0,4,7.501529309780274e-07
5.33,-0.033361226269301235,77.50006080365405,0,60,3.0,4,1.4306742129707239e-06
5.335,-0.1680180840843834,77.50012058486693,0,60,3.0,4,2.8372909866902773e-06
5.34,-0.23069703190837854,77.50024513995355,0,60,3.0,4,5.7679989070306076e-06
5.345,-0.22587267821131068,77.50050363241509,0,60,3.0,4,1.1850174472690068e-05
5.35,-0.17718181630665902,77.50103350758017,0,60,3.0,4,2.4317825415878626e-05
5.355,-0.11494332516451301,77.50210036935763,0,60,3.0,4,4.942045547375742e-05
5.36,-0.061810214049552864,77.50420258594323,0,60,3.0,4,9.888437513489087e-05
5.365,-0.026546104631500547,77.50824711533218,0,60,3.0,4,0.00019404977252192754
5.37,-0.00719600351942686,77.51583324529174,0,60,3.0,4,0.0003725469480410565
5.375,0.0022072757983807078,77.52969102922935,0,60,3.0,4,0.0006986124524554029
5.38,0.006917199873730717,77.55432766935884,0,60,3.0,4,0.0012782981025609656
5.385,0.01004859748264829,77.5969322368778,0,60,3.0,4,0.0022807585147718865
5.39,0.013037082251128167,77.66856909864642,0,60,3.0,4,0.003966331732856829
5.395,0.01645163937690478,77.78564441251984,0,60,3.0,4,0.006721045000466909
5.4,0.020526639934696615,77.97155076923681,0,60,3.0,4,0.011095312217336789
5.405,0.02539629541761738,78.2582808201053,0,60,3.0,4,0.017841901649536432
5.41,0.031171612185577933,78.68766052792253,0,60,3.0,4,0.027944953598177214
5.415,0.03795853426638131,79.31171075246023,0,60,3.0,4,0.04262848829318186
5.42,0.0458588961882057,80.19154347445966,0,60,3.0,4,0.06333043469316856
5.425,0.054966995891435555,81.39419054317591,0,60,3.0,4,0.09162801278060964
5.43,0.06536491004445595,82.9869047835598,0,60,3.0,4,0.1291036419661128
5.435,0.07711726085088699,85.02880519220997,0,60,3.0,4,0.17714835746376406
5.44,0.09026570629555215,87.56025991780172,0,60,3.0,4,0.23671199806592272
5.445,0.10482339848670268,90.59105402879193,0,60,3.0,4,0.3080248006774572
5.45,0.12076968927580028,94.08904924277502,0,60,3.0,4,0.3903305704182357
5.455,0.13804539501007884,97.97153364558193,0,60,3.0,4,0.48168314460192774
5.46,0.15654895051787066,102.10159121830677,0,60,3.0,4,0.5788609698425121
5.465,0.17613378141900526,106.29144711748273,0,60,3.0,4,0.6774458145290054
5.47,0.19660720058055794,110.31382182199403,0,60,3.0,4,0.7720899252233888
5.475,0.21773108748496234,113.92095766616347,0,60,3.0,4,0.8569637097920817
5.48,0.23922453870058807,116.86941633089845,0,60,3.0,4,0.9263392077858458
5.485,0.2607685857914563,118.94734075580467,0,60,3.0,4,0.9752315471954041
5.49,0.2820129681603682,120.0,0,60,3.0,4,1.0
5.495,0.30258482867153996,119.94936806517826,0,60,3.0,4,0.9988086603571356
5.5,0.3220990771751686,118.80431883209974,0,60,3.0,4,0.9718663254611704
5.505,0.3401700499968971,116.65961054384493,0,60,3.0,4,0.9214026010316455
5.51,0.3564239911198326,113.6838413525704,0,60,3.0,4,0.8513845024134211
5.515,0.3705118017738417,110.09852371838782,0,60,3.0,4,0.7670240874914782
5.52,0.3821214567925213,106.15190294941635,0,60,3.0,4,0.6741624223392083
5.525,0.39098947374066967,102.09182171295444,0,60,3.0,4,0.5786310991283398
5.53,0.3969108472035567,98.14171008969322,0,60,3.0,4,0.48568729622807577
5.535,0.3997469255491936,94.48278858522536,0,60,3.0,4,0.39959502553471443
5.54,0.3994308076379137,91.24411073570738,0,60,3.0,4,0.32339084084017367
5.545,0.3959699661768434,88.50051791606685,0,60,3.0,4,0.2588357156721613
5.55,0.38944595408114946,86.27727400892925,0,60,3.0,4,0.20652409432774715
5.555,0.38001120995358023,84.55931872476093,0,60,3.0,4,0.1661016170531983
5.56,0.3678831374098315,83.3028005744429,0,60,3.0,4,0.13653648410453878
5.565,0.35333577933796634,82.44675842842192,0,60,3.0,4,0.1163943159628686
5.57,0.33668953221163944,81.9233555217599,0,60,3.0,4,0.10407895345317417
5.575,0.3182994390982644,81.6657405782961,0,60,3.0,4,0.09801742537167282
5.58,0.29854265738230645,81.61324823680155,0,60,3.0,4,0.0967823114541542
5.585,0.2778057157821067,81.71414190823803,0,60,3.0,4,0.09915628019383609
5.59,0.2564721553719815,81.92639917335062,0,60,3.0,4,0.10415056878472041
5.595,0.23491109433464996,82.21715152529522,0,60,3.0,4,0.1109918005951817
5.6,0.21346717185309805,82.56136080468661,0,60,3.0,4,0.11909084246321447
5.605,0.19245222055656455,82.94020128362216,0,60,3.0,4,0.12800473608522728
5.61,0.17213889801761392,83.33947177339249,0,60,3.0,4,0.13739933584452915
5.615,0.15275638501270183,83.74822470521731,0,60,3.0,4,0.14701705188746614
5.62,0.13448814019607322,84.1576901961562,0,60,3.0,4,0.1566515340272046
5.625,0.11747159495449566,84.56049942906901,0,60,3.0,4,0.16612939833103557
5.63,0.10179958433370105,84.95017025612171,0,60,3.0,4,0.17529812367345196
5.635,0.08752324394101413,85.32080099438407,0,60,3.0,4,0.18401884692668405
5.64,0.07465606047174059,85.66691715781909,0,60,3.0,4,0.19216275665456672
5.645,0.0631787448609295,85.98342289070791,0,60,3.0,4,0.19960995036959797
5.65,0.05304460019959574,86.26561884786955,0,60,3.0,4,0.20624985524398934
5.655,0.044185078305849994,86.50925808244908,0,60,3.0,4,0.21198254311644893
5.66,0.03651525513023255,86.71061970560895,0,60,3.0,4,0.21672046366138703
5.665,0.0299390014708757,86.86658630913784,0,60,3.0,4,0.22039026609736104
5.67,0.024353677220580638,86.97471559675341,0,60,3.0,4,0.22293448462949206
5.675,0.01965423034339045,87.03329977142683,0,60,3.0,4,0.22431293579827827
5.68,0.015736632374757337,87.04140840180983,0,60,3.0,4,0.2245037271014078
5.685,0.012500627640593535,86.99891208474476,0,60,3.0,4,0.2235038137587002
5.69,0.009851811652115898,86.90648547061232,0,60,3.0,4,0.22132906989676057
5.695,0.007703084175428559,86.76558926724239,0,60,3.0,4,0.21801386511158566
5.7,0.005975544002062424,86.5784317591195,0,60,3.0,4,0.2136101590381058
5.705,0.004598905818663047,86.34791119812435,0,60,3.0,4,0.20818614583822
5.71,0.0035115256454839104,86.07754113966531,0,60,3.0,4,0.20182449740388975
5.715,0.002660121266303676,85.77136140052126,0,60,3.0,4,0.19462026824755901
5.72,0.0019992692560877024,85.43383778522907,0,60,3.0,4,0.18667853612303703
5.725,0.0014907520044639367,85.06975405182008,0,60,3.0,4,0.1781118600428255
5.73,0.0011028178277539807,84.68409975610096,0,60,3.0,4,0.16903764132002266
5.735,0.0008094059938923333,84.2819576246531,0,60,3.0,4,0.15957547352124948
5.74,0.0005893771793717645,83.86839396614698,0,60,3.0,4,0.14984456390934076
5.745,0.0004257792353490551,83.44835535165316,0,60,3.0,4,0.13996130239183913
5.75,0.0003051686392901525,83.02657439701731,0,60,3.0,4,0.13003704463570148
5.755,0.00021699992642659966,82.6074869887465,0,60,3.0,4,0.12017616444109415
5.76,0.00015308884054097838,82.19516273734413,0,60,3.0,4,0.11047441734927374
5.765,0.00010714989329311098,81.7932498483948,0,60,3.0,4,0.1010176434916422
5.77,7.440535854020571e-05,81.40493500158567,0,60,3.0,4,0.09188082356672166
5.775,5.1260276743925106e-05,81.03291824914021,0,60,3.0,4,0.08312748821506374
5.78,3.503659887882241e-05,80.6794024125245,0,60,3.0,4,0.07480946852998814
5.785,2.375894748103639e-05,80.34609599014749,0,60,3.0,4,0.06696696447405857
5.79,1.5984413869232557e-05,80.03422820440662,0,60,3.0,4,0.05962889892721451
5.795,1.0669166579899869e-05,79.74457452363798,0,60,3.0,4,0.05281351820324657
5.8,7.06526633560511e-06,79.4774907976045,0,60,3.0,4,0.04652919523775301
5.805,4.641847214699205e-06,79.23295404316598,0,60,3.0,4,0.04077538925096412
5.81,3.025641074479182e-06,79.01060790415472,0,60,3.0,4,0.035543715391875876
5.815,1.9566278676921314e-06,78.80981087682954,0,60,3.0,4,0.030819079454812815
5.82,1.2553456560008793e-06,78.62968552729907,0,60,3.0,4,0.0265808359364488
5.825,7.990660428214668e-07,78.4691671158064,0,60,3.0,4,0.022803932136621168
5.83,5.046221251618276e-07,78.32705026967079,0,60,3.0,4,0.01946000634519511
5.835,3.1616527078858815e-07,78.2020325969465,0,60,3.0,4,0.01651841404579988
5.84,1.9652884407760343e-07,78.0927543922857,0,60,3.0,4,0.013947162171428197
5.845,1.2120002189836396e-07,77.99783384238104,0,60,3.0,4,0.011713737467789209
5.85,7.415549848886236e-08,77.91589737998032,0,60,3.0,4,0.009785820705419343
5.855,4.501406988770349e-08,77.84560505434425,0,60,3.0,4,0.008131883631629347
5.86,0.0,77.78567097606587,0,60,3.0,4,0.006721670025079367
5.865,0.0,77.73487905164139,0,60,3.0,4,0.0055265659209737805
5.87,0.0,77.69209434649721,0,60,3.0,4,0.004519866976405036
5.875,0.0,77.65627050466959,0,60,3.0,4,0.0036769530510492344
5.88,0.0,77.62645371089663,0,60,3.0,4,0.0029753814328618024
5.885,0.0,77.60178370962433,0,60,3.0,4,0.0023949108146900794
5.89,0.0,77.58149239927823,0,60,3.0,4,0.0019174682183113552
5.895,0.0,77.5649005035173,0,60,3.0,4,0.001527070670995138
5.9,0.0,77.55141278863067,0,60,3.0,4,0.001209712673662847
5.905,0.0,77.5405122522104,0,60,3.0,4,0.0009532294637742379
5.91,0.0,77.53175365686594,0,60,3.0,4,0.0007471448674339974
5.915,0.0,77.5247567276939,0,60,3.0,4,0.0005825112398564242
5.92,0.0,77.51919927656837,0,60,3.0,4,0.0004517476839616981
5.925,0.0,77.51481046255032,0,60,3.0,4,0.0003484814717721212
5.93,0.0,77.51136434769356,0,60,3.0,4,0.0002673964163190088
5.935,0.0,77.50867386254117,0,60,3.0,4,0.00020409088332170916
5.94,0.0,77.50658525642717,0,60,3.0,4,0.0001549472100511112
5.945,0.0,77.50497307465665,0,60,3.0,4,0.00011701352133286491
5.95,0.0,77.50373567769842,0,60,3.0,4,8.78982987862454e-05
5.955,0.0,77.50279129638474,0,60,3.0,4,6.567756199394674e-05
5.96,0.0,77.50207460126839,0,60,3.0,4,4.88141474915317e-05
5.965,0.0,77.50153375311476,0,60,3.0,4,3.608830858250739e-05
5.97,0.0,77.50112789431837,0,60,3.0,4,2.653868984406044e-05
5.975,0.0,77.50082503712781,0,60,3.0,4,1.9412638301432976e-05
5.98,0.0,77.50060030327039,0,60,3.0,4,1.4124782832676133e-05
5.985,0.0,77.50043447026465,0,60,3.0,4,1.022282975648469e-05
5.99,0.0,77.50031278184728,0,60,3.0,4,7.35957287728899e-06
5.995,0.0,77.50022398305025,0,60,3.0,4,5.270189417588507e-06
6.0,0.0,77.50015954415629,0,60,3.0,4,3.753980147995903e-06
6.005,0.0,77.50011304172635,0,60,3.0,4,2.659805325907548e-06
6.01,0.0,77.50007966889501,0,60,3.0,4,1.8745622355709203e-06
6.015,0.0,77.50005585099808,0,60,3.0,4,1.3141411313079194e-06
6.02,0.0,77.50003894621133,0,60,3.0,4,9.163814431357263e-07
6.025,0.0,77.50002701416986,0,60,3.0,5,6.356275261008276e-07
6.03,0.0,77.50001863846614,0,60,3.0,5,4.3855214458102745e-07
6.035,0.001684486749771458,77.50001279148142,0,60,3.0,5,3.00976033512972e-07
6.04,0.003097557930867117,77.50000873219956,0,60,3.0,5,2.0546351907689635e-07
6.045,0.005475106668887023,77.5000059295071,0,60,3.0,5,1.3951781404423802e-07
6.05,0.00930222931468658,77.50000400502901,0,60,3.0,5,9.42359767631227e-08
6.055,0.01519157517868857,77.50000269082139,0,60,3.0,5,6.331344446366797e-08
6.06,0.023847336626128316,77.50000179827543,0,60,3.0,5,4.231236316092477e-08
6.065,0.0359830743700859,77.5000011954177,0,60,3.0,5,2.8127475188204484e-08
6.07,0.05218887796857759,77.50000079045161,0,60,3.0,5,1.8598861368659796e-08
6.075,0.0727577001223134,77.50000051990384,0,60,3.0,5,1.2233031424436965e-08
6.08,0.0974992498694751,77.50000034014406,0,60,3.0,5,8.003389532806229e-09
6.085,0.12558706050443358,77.50000022135784,0,60,3.0,5,5.208419692922582e-09
6.09,0.15549263588878245,77.50000014329103,0,60,3.0,5,3.3715537028911058e-09
6.095,0.1850529723539114,77.50000009226464,0,60,3.0,5,2.170932756438132e-09
6.1,0.21169159439317053,77.50000005909403,0,60,3.0,5,1.3904478718733812e-09
6.105,0.23277292922115492,77.5000000376482,0,60,3.0,5,8.858401489466333e-10
6.11,0.24602692519491282,77.50000002385815,0,60,3.0,5,5.613682172706296e-10
6.115,0.24995056064839283,77.50000001503909,0,60,3.0,5,3.538609823461978e-10
6.12,0.24408826520424054,77.50000000942971,0,60,3.0,5,2.2187557934718345e-10
6.125,0.22911894216865275,77.50000000588122,0,60,3.0,5,1.3838162511306377e-10
6.13,0.20672661788705934,77.50000000364862,0,60,3.0,5,8.58499467593741e-11
6.135,0.17928878030241233,77.50000000225155,0,60,3.0,5,5.297773200522095e-11
6.14,0.14946211903866036,77.50000000138206,0,60,3.0,5,3.25191168111119e-11
6.145,0.1197651512573837,77.50000000084385,0,60,3.0,5,1.985540620808024e-11
6.15,0.09224675744988023,77.5000000005125,0,60,3.0,5,1.2058829751742238e-11
6.155,0.06829565320281596,77.50000000030961,0,60,3.0,5,7.28498568659073e-12
6.16,0.04860224607515734,77.50000000018605,0,60,3.0,5,4.377611998386462e-12
6.165,0.03324612389699793,77.50000000011121,0,60,3.0,5,2.6168035059099033e-12
6.17,0.021859876340472782,77.50000000006612,0,60,3.0,5,1.5558378115255276e-12
6.175,0.01381595518554205,77.50000000003911,0,60,3.0,5,9.20194639440845e-13
6.18,0.008394095110402422,77.50000000002301,0,60,3.0,5,5.413499713861657e-13
6.185,0.0049052535271608,77.50000000001346,0,60,3.0,5,3.1665128035991287e-13
6.19,0.0027671663551903634,77.50000000000783,0,60,3.0,5,1.8423955171944245e-13
6.195,0.0015425553464444616,77.50000000000453,0,60,3.0,5,1.0666500362704563e-13
6.2,0.0009638206637011801,77.50000000000261,0,60,3.0,5,6.152464159052161e-14
6.205,0.0009804935156568228,77.50000000000149,0,60,3.0,5,3.510917047285201e-14
6.21,0.0018793744894085216,77.50000000000085,0,60,3.0,5,2.0062383127344007e-14
6.215,0.004535525206900863,77.50000000000048,0,60,3.0,5,1.1368683772161604e-14
6.22,0.010832767979632273,77.50000000000027,0,60,3.0,5,6.353087990325602e-15
6.225,0.024208003392322392,77.50000000000016,0,60,3.0,5,3.678103573346401e-15
6.23,0.0500971897335304,77.50000000000009,0,60,3.0,5,2.0062383127344005e-15
6.235,0.09582894921774403,77.50000000000004,0,60,3.0,5,1.0031191563672002e-15
6.24,0.16937896721820658,77.50000000000003,0,60,3.0,5,6.687461042448002e-16
6.245,0.27661303008991756,77.50000000000001,0,60,3.0,5,3.343730521224001e-16
6.25,0.4173782800009149,77.50000000000001,0,60,3.0,5,3.343730521224001e-16
6.255,0.5818720934538056,77.5,0,60,3.0,5,0.0
6.26,0.7494718801585675,77.5,0,60,3.0,5,0.0
6.265,0.891813020752378,77.5,0,60,3.0,5,0.0
6.27,0.9800361632936612,77.5,0,60,3.0,5,0.0
6.275,0.993574479225126,77.50000249553136,1,60,3.0,5,5.871838498826358e-08
6.28,0.9263438449375362,77.5000037979206,0,60,3.0,5,8.936283761078598e-08
6.285,0.7873015962290536,77.50000589651982,0,60,3.0,5,1.387416429064187e-07
6.29,0.5959516244629897,77.5000094348155,0,60,3.0,5,2.2199565872891553e-07
6.295,0.376910120078773,77.50001571195249,0,60,3.0,5,3.6969299966425324e-07
6.3,0.15739335672107918,77.50002740197677,0,60,3.0,5,6.447523944911261e-07
6.305,-0.033361226269301235,77.5000500328844,0,60,3.0,5,1.177244338885644e-06
6.31,-0.1680180840843834,77.50009495573708,0,60,3.0,5,2.234252637248681e-06
6.315,-0.23069703190837854,77.50018514752661,0,60,3.0,5,4.356412390774601e-06
6.32,-0.22587267821131068,77.50036623180388,0,60,3.0,5,8.617218914838198e-06
6.325,-0.17718181630665902,77.50072678709442,0,60,3.0,5,1.710087280992625e-05
6.33,-0.11494332516451301,77.50143461155861,0,60,3.0,5,3.3755566084892054e-05
6.335,-0.061810214049552864,77.5027993939534,0,60,3.0,5,6.58680930210748e-05
6.34,-0.026546104631500547,77.50537738125638,0,60,3.0,5,0.0001265266177971866
6.345,-0.00719600351942686,77.5101400375162,0,60,3.0,5,0.0002385891180281038
6.35,0.0022072757983807078,77.51873573170647,0,60,3.0,5,0.00044084074603460975
6.355,0.006917199873730717,77.53387969714991,0,60,3.0,5,0.0007971693447038486
6.36,0.01004859748264829,77.55991023047092,0,60,3.0,5,0.0014096524816686858
6.365,0.013037082251128167,77.60354438392822,0,60,3.0,5,0.00243633844536997
6.37,0.01645163937690478,77.67484918417814,0,60,3.0,5,0.004114098451250423
6.375,0.020526639934696615,77.7884093308522,0,60,3.0,5,0.0067861019024047994
6.38,0.02539629541761738,77.96461536956245,0,60,3.0,5,0.01093212634264593
6.385,0.031171612185577933,78.23091721059663,0,60,3.0,5,0.017198052014038345
6.39,0.03795853426638131,78.6227928599652,0,60,3.0,5,0.02641865552859298
6.395,0.0458588961882057,79.18408665755831,0,60,3.0,5,0.03962556841313672
6.4,0.054966995891435555,79.96630039667855,0,60,3.0,5,0.058030597568907015
6.405,0.06536491004445595,81.02640747170874,0,60,3.0,5,0.08297429345197027
6.41,0.07711726085088699,82.42283947403011,0,60,3.0,5,0.11583151703600265
6.415,0.09026570629555215,84.20949296015137,0,60,3.0,5,0.15787042259179684
6.42,0.10482339848670268,86.42792724167438,0,60,3.0,5,0.21006887627469134
6.425,0.12076968927580028,89.09834551335945,0,60,3.0,5,0.2729022473731635
6.43,0.13804539501007884,92.21040668051529,0,60,3.0,5,0.3461272160121245
6.435,0.15654895051787066,95.71530488045332,0,60,3.0,5,0.4285954089518428
6.44,0.17613378141900526,99.52076142138833,0,60,3.0,5,0.518135562856196
6.445,0.19660720058055794,103.49049392863455,0,60,3.0,5,0.6115410336149306
6.45,0.21773108748496234,107.44929879905975,0,60,3.0,5,0.7046893835072882
6.455,0.23922453870058807,111.1941190293451,0,60,3.0,5,0.792802800690473
6.46,0.2607685857914563,114.51047262775617,0,60,3.0,5,0.8708346500648512
6.465,0.2820129681603682,117.1925695932531,0,60,3.0,5,0.9339428139588964
6.47,0.30258482867153996,119.06457506308963,0,60,3.0,5,0.977990001484462
6.475,0.3220990771751686,120.0,0,60,3.0,5,1.0
6.48,0.3401700499968971,119.93626626357627,0,60,3.0,5,0.9985003826723828
6.485,0.3564239911198326,118.88213103465766,0,60,3.0,5,0.9736972008154744
6.49,0.3705118017738417,116.91676286621725,0,60,3.0,5,0.9274532439109943
6.495,0.3821214567925213,114.18061934032266,0,60,3.0,5,0.8630733962428863
6.5,0.39098947374066967,110.85960266710498,0,60,3.0,5,0.7849318274612936
6.505,0.3969108472035567,107.16499075378253,0,60,3.0,5,0.6979997824419419
6.51,0.3997469255491936,103.31215997547778,0,60,3.0,5,0.6073449405994773
6.515,0.3994308076379137,99.50105733238124,0,60,3.0,5,0.5176719372324997
6.52,0.3959699661768434,95.90080270694628,0,60,3.0,5,0.43296006369285367
6.525,0.38944595408114946,92.63987384862794,0,60,3.0,5,0.35623232585006925
6.53,0.38001120995358023,89.80227211535595,0,60,3.0,5,0.2894652262436693
6.535,0.3678831374098315,87.429107562273,0,60,3.0,5,0.23362606028877655
6.54,0.35333577933796634,85.52434499291017,0,60,3.0,5,0.18880811748023937
6.545,0.33668953221163944,84.06310121889615,0,60,3.0,5,0.1544259110328506
6.55,0.3182994390982644,83.00087339718817,0,60,3.0,5,0.129432315227957
6.555,0.29854265738230645,82.28233533973716,0,60,3.0,5,0.11252553740558022
6.56,0.2778057157821067,81.84875222780497,0,60,3.0,5,0.10232358183070507
6.565,0.2564721553719815,81.64351943719842,0,60,3.0,5,0.09749457499290402
6.57,0.23491109433464996,81.61573561778272,0,60,3.0,5,0.09684083806547572
6.575,0.21346717185309805,81.7220173312601,0,60,3.0,5,0.09934158426494365
6.58,0.19245222055656455,81.92693369355118,0,60,3.0,5,0.10416314573061594
6.585,0.17213889801761392,82.20249593298601,0,60,3.0,5,0.1106469631290826
6.59,0.15275638501270183,82.52710789170109,0,60,3.0,5,0.11828489156943747
6.595,0.13448814019607322,82.88430441935833,0,60,3.0,5,0.12668951574960777
6.6,0.11747159495449566,83.26150706007847,0,60,3.0,5,0.1355648720018464
6.605,0.10179958433370105,83.64893355810317,0,60,3.0,5,0.14468078960242745
6.61,0.08752324394101413,84.03872273042094,0,60,3.0,5,0.1538522995393163
6.615,0.07465606047174059,84.42428381662813,0,60,3.0,5,0.16292432509713253
6.62,0.0631787448609295,84.79984820751459,0,60,3.0,5,0.17176113429446085
6.625,0.05304460019959574,85.16018700493531,0,60,3.0,5,0.18023969423377198
6.63,0.044185078305849994,85.50045479613394,0,60,3.0,5,0.18824599520315147
6.635,0.03651525513023255,85.81612348054294,0,60,3.0,5,0.1956734936598339
6.64,0.0299390014708757,86.10297630590426,0,60,3.0,5,0.20242297190362973
6.645,0.024353677220580638,86.35713909920837,0,60,3.0,5,0.20840327292254984
6.65,0.01965423034339045,86.5751317625649,0,60,3.0,5,0.21353251206035045
6.655,0.015736632374757337,86.75392796721998,0,60,3.0,5,0.21773948158164658
6.66,0.012500627640593535,86.89101460585793,0,60,3.0,5,0.22096504954959842
6.665,0.009851811652115898,86.98444515996042,0,60,3.0,5,0.22316341552848037
6.67,0.007703084175428559,87.0328829744056,0,60,3.0,5,0.22430312880954342
6.675,0.005975544002062424,87.03563175280645,0,60,3.0,5,0.22436780594838712
6.68,0.004598905818663047,86.99265158497569,0,60,3.0,5,0.22335650788178094
6.685,0.0035115256454839104,86.90455962174919,0,60,3.0,5,0.2212837558058632
6.69,0.002660121266303676,86.7726151996039,0,60,3.0,5,0.2181791811671507
6.695,0.0019992692560877024,86.5986898271919,0,60,3.0,5,0.21408681946333893
6.7,0.0014907520044639367,86.38522299196607,0,60,3.0,5,0.20906407039920175
6.705,0.0011028178277539807,86.13516522658897,0,60,3.0,5,0.20318035827268158
6.71,0.0008094059938923333,85.85191028364954,0,60,3.0,5,0.19651553608587163
6.715,0.0005893771793717645,85.53921859307545,0,60,3.0,5,0.1891580845429517
6.72,0.0004257792353490551,85.20113441032936,0,60,3.0,5,0.18120316259598493
6.725,0.0003051686392901525,84.84189919885794,0,60,3.0,5,0.17275056938489283
6.73,0.00021699992642659966,84.4658638252098,0,60,3.0,5,0.16390267824023047
6.735,0.00015308884054097838,84.07740208207215,0,60,3.0,5,0.15476240193110952
6.74,0.00010714989329311098,83.68082789985633,0,60,3.0,5,0.14543124470250177
6.745,7.440535854020571e-05,83.28031837196917,0,60,3.0,5,0.136007491105157
6.75,5.1260276743925106e-05,82.87984441636587,0,60,3.0,5,0.12658457450272637
6.755,3.503659887882241e-05,82.48311054260569,0,60,3.0,5,0.11724965982601615
6.76,2.375894748103639e-05,82.09350480709807,0,60,3.0,5,0.10808246604936639
6.765,1.5984413869232557e-05,81.71405963766578,0,60,3.0,5,0.09915434441566551
6.77,1.0669166579899869e-05,81.34742380962653,0,60,3.0,5,0.09052761905003609
6.775,7.06526633560511e-06,80.99584547562104,0,60,3.0,5,0.0822551876616715
6.78,4.641847214699205e-06,80.66116580464649,0,60,3.0,5,0.07438037187403498
6.785,3.025641074479182e-06,80.34482248380725,0,60,3.0,5,0.0669369996189941
6.79,1.9566278676921314e-06,80.04786208778954,0,60,3.0,5,0.05994969618328328
6.795,1.2553456560008793e-06,79.77096013143739,0,60,3.0,5,0.05343435603382097
6.8,7.990660428214668e-07,79.51444749231865,0,60,3.0,5,0.04739876452514476
6.805,5.046221251618276e-07,79.278341822098,0,60,3.0,5,0.041843336990541165
6.81,3.1616527078858815e-07,79.06238255449453,0,60,3.0,5,0.0367619424586949
6.815,1.9652884407760343e-07,78.86606815798669,0,60,3.0,5,0.03214278018792209
6.82,1.2120002189836396e-07,78.68869436592169,0,60,3.0,5,0.027969279198157438
6.825,7.415549848886236e-08,78.52939223681737,0,60,3.0,5,0.02422099380746759
6.83,4.501406988770349e-08,78.38716504432811,0,60,3.0,5,0.020874471631249742
6.835,0.0,78.26092316041584,0,60,3.0,5,0.017904074362725703
6.84,0.0,78.14951626792161,0,60,3.0,5,0.01528273571580264
6.845,0.0,78.05176241193382,0,60,3.0,5,0.012982644986678171
6.85,0.0,77.96647356610181,0,60,3.0,5,0.010975848614160268
6.855,0.0,77.89247754460511,0,60,3.0,5,0.009234765755414454
6.86,0.0,77.8286362284681,0,60,3.0,5,0.00773261714042586
6.865,0.0,77.77386019328746,0,60,3.0,5,0.0064437692538226255
6.87,0.0,77.72711992251153,0,60,3.0,5,0.005343998176741974
6.875,0.0,77.68745386566955,0,60,3.0,5,0.004410679192224787
6.88,0.0,77.65397365492345,0,60,3.0,5,0.003622909527610532
6.885,0.0,77.62586682737643,0,60,3.0,5,0.00296157240885711
6.89,0.0,77.60239741673563,0,60,3.0,5,0.0024093509820147575
6.895,0.0,77.58290477863605,0,60,3.0,5,0.0019507006737893896
6.9,0.0,77.56680100188535,0,60,3.0,5,0.0015717882796553462
6.905,0.0,77.55356723584703,0,60,3.0,5,0.0012604055493418
6.91,0.0,77.54274923483845,0,60,3.0,5,0.001005864349140077
6.915,0.0,77.5339523862881,0,60,3.0,5,0.000798879677367214
6.92,0.0,77.52683645271036,0,60,3.0,5,0.0006314459461260172
6.925,0.0,77.52111022023206,0,60,3.0,5,0.0004967110642837725
6.93,0.0,77.51652621000613,0,60,3.0,5,0.0003888520001443313
6.935,0.0,77.51287557458264,0,60,3.0,5,0.0003029546960620417
6.94,0.0,77.50998327004963,0,60,3.0,5,0.00023490047175601724
6.945,0.0,77.50770356706387,0,60,3.0,5,0.0001812604015028415
6.95,0.0,77.50591594005692,0,60,3.0,5,0.0001391985895746556
6.955,0.0,77.5045213539901,0,60,3.0,5,0.00010638479976705639
6.96,0.0,77.50343895192604,0,60,3.0,5,8.091651590689253e-05
6.965,0.0,77.50260313413699,0,60,3.0,5,6.125021498800218e-05
6.97,0.0,77.50196101013708,0,60,3.0,5,4.614141499012155e-05
6.975,0.0,77.50147019851048,0,60,3.0,5,3.459290612882422e-05
6.98,0.0,77.50109694528726,0,60,3.0,5,2.581047734726299e-05
6.985,0.0,77.50081452947285,0,60,3.0,5,1.9165399361126593e-05
6.99,0.0,77.50060192376263,0,60,3.0,5,1.4162912061893247e-05
6.995,0.0,77.50044267910418,0,60,3.0,5,1.041597892193589e-05
7.0,0.0,77.50032400327848,0,60,3.0,5,7.623606552442652e-06
7.005,0.0,77.5002360057779,0,60,3.0,5,5.553077126893079e-06
7.01,0.0,77.50017108373179,0,60,3.0,5,4.025499571432246e-06
7.015,0.0,77.50012342628081,0,60,3.0,5,2.9041477837247786e-06
7.02,0.0,77.50008861748469,0,60,3.0,5,2.0851172868841626e-06
7.025,0.0,77.50006332045746,0,60,3.0,5,1.4898931166338597e-06
7.03,0.0,77.50004502788177,0,60,3.0,5,1.0594795710136062e-06
7.035,0.0,77.50003186631457,0,60,3.0,5,7.49795636987555e-07
7.04,0.0,77.50002244372865,0,60,3.0,5,5.28087733019835e-07
7.045,0.0,77.50001573153237,0,60,3.0,5,3.701537028679441e-07
7.05,0.0,77.50001097387214,0,60,3.0,5,2.5820875614900773e-07
7.055,0.0,77.50000761836212,0,60,3.0,5,1.7925557926901092e-07
7.06,0.001684486749771458,77.50000526351877,0,60,3.0,5,1.2384750053730815e-07
7.065,0.003097557930867117,77.50000361912504,0,60,3.0,5,8.51558832651148e-08
7.07,0.005475106668887023,77.50000247653146,0,60,3.0,5,5.827132855194898e-08
7.075,0.00930222931468658,77.50000168654122,0,60,3.0,5,3.9683322938799394e-08
7.08,0.01519157517868857,77.50000114304392,0,60,3.0,5,2.6895150995187578e-08
7.085,0.023847336626128316,77.50000077097754,0,60,3.0,5,1.814064790671503e-08
7.09,0.0359830743700859,77.50000051752744,0,60,3.0,5,1.2177116225168849e-08
7.095,0.05218887796857759,77.50000034573065,0,60,3.0,5,8.134838935802691e-09
7.1,0.0727577001223134,77.50000022985567,0,60,3.0,5,5.408368759376839e-09
7.105,0.0974992498694751,77.50000015208467,0,60,3.0,5,3.5784627444252904e-09
7.11,0.12558706050443358,77.50000010014482,0,60,3.0,5,2.3563486325549412e-09
7.115,0.15549263588878245,77.50000006562728,0,60,3.0,5,1.544171201363925e-09
7.12,0.1850529723539114,77.50000004280092,0,60,3.0,5,1.0070804739156944e-09
7.125,0.21169159439317053,77.50000002778016,0,60,3.0,5,6.536508328067344e-10
7.13,0.23277292922115492,77.50000001794442,0,60,3.0,5,4.222215466143098e-10
7.135,0.24602692519491282,77.5000000115355,0,60,3.0,5,2.714236469567849e-10
7.14,0.24995056064839283,77.50000000738001,0,60,3.0,5,1.7364728217430907e-10
7.145,0.24408826520424054,77.50000000469883,0,60,3.0,5,1.1056078405732371e-10
7.15,0.22911894216865275,77.50000000297739,0,60,3.0,5,7.005617001542466e-11
7.155,0.20672661788705934,77.50000000187757,0,60,3.0,5,4.417803639251575e-11
7.16,0.17928878030241233,77.50000000117832,0,60,3.0,5,2.7725210362833048e-11
7.165,0.14946211903866036,77.50000000073595,0,60,3.0,5,1.7316511623314855e-11
7.17,0.1197651512573837,77.50000000045745,0,60,3.0,5,1.0763468547820058e-11
7.175,0.09224675744988023,77.50000000028298,0,60,3.0,5,6.658370586913353e-12
7.18,0.06829565320281596,77.50000000017421,0,60,3.0,5,4.0990792459685025e-12
7.185,0.04860224607515734,77.50000000010674,0,60,3.0,5,2.511475994491347e-12
7.19,0.03324612389699793,77.50000000006509,0,60,3.0,5,1.5314285787205924e-12
7.195,0.021859876340472782,77.50000000003949,0,60,3.0,5,9.292227118481499e-13
7.2,0.01381595518554205,77.50000000002385,0,60,3.0,5,5.610779814613874e-13
7.205,0.008394095110402422,77.50000000001434,0,60,3.0,5,3.373824095915017e-13
7.21,0.0049052535271608,77.50000000000857,0,60,3.0,5,2.0162695042980724e-13
7.215,0.0027671663551903634,77.5000000000051,0,60,3.0,5,1.2003992571194163e-13
7.22,0.0015425553464444616,77.50000000000303,0,60,3.0,5,7.122146010207122e-14
7.225,0.0009638206637011801,77.50000000000178,0,60,3.0,5,4.1796631515300014e-14
7.23,0.0009804935156568228,77.50000000000105,0,60,3.0,6,2.4743605857057607e-14
7.235,0.0018793744894085216,77.50000000000061,0,60,3.0,6,1.4378041241263203e-14
7.24,0.004535525206900863,77.50000000000036,0,60,3.0,6,8.359326303060002e-15
7.245,0.010832767979632273,77.5000000000002,0,60,3.0,6,4.681222729713601e-15
7.25,0.024208003392322392,77.50000000000011,0,60,3.0,6,2.6749844169792007e-15
7.255,0.0500971897335304,77.50000000000007,0,60,3.0,6,1.6718652606120004e-15
7.26,0.09582894921774403,77.50000000000004,0,60,3.0,6,1.0031191563672002e-15
7.265,0.16937896721820658,77.50000000000001,0,60,3.0,6,3.343730521224001e-16
7.27,0.27661303008991756,77.50000000000001,0,60,3.0,6,3.343730521224001e-16
7.275,0.4173782800009149,77.5,0,60,3.0,6,0.0
7.28,0.5818720934538056,77.5,0,60,3.0,6,0.0
7.285,0.7494718801585675,77.5,0,60,3.0,6,0.0
7.29,0.891813020752378,77.5,0,60,3.0,6,0.0
7.295,0.9800361632936612,77.5,0,60,3.0,6,0.0
7.3,0.993574479225126,77.50000249879326,1,60,3.0,6,5.8795135641155546e-08
7.305,0.9263438449375362,77.50000403812578,0,60,3.0,6,9.501472424530863e-08
7.31,0.7873015962290536,77.50000670919877,0,60,3.0,6,1.5786350050963365e-07
7.315,0.5959516244629897,77.5000116355147,0,60,3.0,6,2.737768163703603e-07
7.32,0.376910120078773,77.50002134050057,0,60,3.0,6,5.021294250983534e-07
7.325,0.15739335672107918,77.50004158913892,0,60,3.0,6,9.78567974511059e-07
7.33,-0.033361226269301235,77.50008551932838,0,60,3.0,6,2.0122194912881454e-06
7.335,-0.1680180840843834,77.50018260677328,0,60,3.0,6,4.296629959513024e-06
7.34,-0.23069703190837854,77.50039742265072,0,60,3.0,6,9.351121193436913e-06
7.345,-0.22587267821131068,77.50086739034542,0,60,3.0,6,2.0409184598105747e-05
7.35,-0.17718181630665902,77.50187575568312,0,60,3.0,6,4.413542783802715e-05
7.355,-0.11494332516451301,77.5039867320513,0,60,3.0,6,9.380546003064731e-05
7.36,-0.061810214049552864,77.50828485142176,0,60,3.0,6,0.00019493768051207178
7.365,-0.026546104631500547,77.5167792946655,0,60,3.0,6,0.00039480693330581153
7.37,-0.00719600351942686,77.53305323152303,0,60,3.0,6,0.0007777230946594633
7.375,0.0022072757983807078,77.5632507883468,0,60,3.0,6,0.0014882538434542712
7.38,0.006917199873730717,77.61748779376778,0,60,3.0,6,0.002764418676888922
7.385,0.01004859748264829,77.71172956727584,0,60,3.0,6,0.004981872171196207
7.39,0.013037082251128167,77.8700804145159,0,60,3.0,6,0.008707774459197574
7.395,0.01645163937690478,78.12726100448812,0,60,3.0,6,0.014759082458543979
7.4,0.020526639934696615,78.53081354821438,0,60,3.0,6,0.024254436428573705
7.405,0.02539629541761738,79.14230213377326,0,60,3.0,6,0.03864240314760603
7.41,0.031171612185577933,80.0365371905502,0,60,3.0,6,0.059683228012946024
7.415,0.03795853426638131,81.2977570571403,0,60,3.0,6,0.08935898957977181
7.42,0.0458588961882057,83.01187204333658,0,60,3.0,6,0.1296911069020372
7.425,0.054966995891435555,85.2544196900744,0,60,3.0,6,0.18245693388410353
7.43,0.06536491004445595,88.07481668720587,0,60,3.0,6,0.24881921616954983
7.435,0.07711726085088699,91.47871261205054,0,60,3.0,6,0.32891088498942456
7.44,0.09026570629555215,95.41148695850524,0,60,3.0,6,0.42144675196482906
7.445,0.10482339848670268,99.74679494444766,0,60,3.0,6,0.523453998692886
7.45,0.12076968927580028,104.28414753327937,0,60,3.0,6,0.6302152360771616
7.455,0.13804539501007884,108.7585206174243,0,60,3.0,6,0.7354946027629246
7.46,0.15654895051787066,112.86291536570391,0,60,3.0,6,0.832068596840092
7.465,0.17613378141900526,116.28198315229172,0,60,3.0,6,0.912517250642158
7.47,0.19660720058055794,118.73195484368986,0,60,3.0,6,0.970163643380938
7.475,0.21773108748496234,120.0,0,60,3.0,6,1.0
7.48,0.23922453870058807,119.9755025678304,0,60,3.0,6,0.9994235898313036
7.485,0.2607685857914563,118.66691935238815,0,60,3.0,6,0.9686333965267799
7.49,0.2820129681603682,116.20069887382425,0,60,3.0,6,0.9106046793841001
7.495,0.30258482867153996,112.8024855992831,0,60,3.0,6,0.8306467199831318
7.5,0.3220990771751686,108.7645214118325,0,60,3.0,6,0.7356357979254707
7.505,0.3401700499968971,104.40580559839906,0,60,3.0,6,0.6330777787858601
7.51,0.3564239911198326,100.03254257067394,0,60,3.0,6,0.5301774722511515
7.515,0.3705118017738417,95.90557008661979,0,60,3.0,6,0.4330722373322303
7.52,0.3821214567925213,92.21921754713073,0,60,3.0,6,0.34633453052072294
7.525,0.39098947374066967,89.09313689400994,0,60,3.0,6,0.2727796916237634
7.53,0.3969108472035567,86.57589670862718,0,60,3.0,6,0.21355051079122786
7.535,0.3997469255491936,84.65717259439153,0,60,3.0,6,0.16840406104450648
7.54,0.3994308076379137,83.28450816617654,0,60,3.0,6,0.13610607449827145
7.545,0.3959699661768434,82.38081093539024,0,60,3.0,6,0.11484261024447633
7.55,0.38944595408114946,81.85967693745226,0,60,3.0,6,0.1025806338224062
7.555,0.38001120995358023,81.63689093601633,0,60,3.0,6,0.09733861025920773
7.56,0.3678831374098315,81.63764686483259,0,60,3.0,6,0.09735639681959035
7.565,0.35333577933796634,81.79992708240913,0,60,3.0,6,0.10117475488021475
7.57,0.33668953221163944,82.0749759407659,0,60,3.0,6,0.10764649272390343
7.575,0.3182994390982644,82.42593792106851,0,60,3.0,6,0.11590442167220023
7.58,0.29854265738230645,82.82561110397802,0,60,3.0,6,0.1253084965641887
7.585,0.2778057157821067,83.25401872150779,0,60,3.0,6,0.13538867580018332
7.59,0.2564721553719815,83.69622944364546,0,60,3.0,6,0.14579363396812856
7.595,0.23491109433464996,84.14062667109043,0,60,3.0,6,0.15625003931977482
7.6,0.21346717185309805,84.57766591592541,0,60,3.0,6,0.16653331566883314
7.605,0.19245222055656455,84.99906697616481,0,60,3.0,6,0.1764486347332897
7.61,0.17213889801761392,85.39734884329013,0,60,3.0,6,0.18581997278329723
7.615,0.15275638501270183,85.76561083886071,0,60,3.0,6,0.19448496091436965
7.62,0.13448814019607322,86.0974765484301,0,60,3.0,6,0.202293565845414
7.625,0.11747159495449566,86.38713601014855,0,60,3.0,6,0.20910908259173064
7.63,0.10179958433370105,86.6294397256694,0,60,3.0,6,0.21481034648633882
7.635,0.08752324394101413,86.82001263279857,0,60,3.0,6,0.219294414889378
7.64,0.07465606047174059,86.95536677641411,0,60,3.0,6,0.22247921826856729
7.645,0.0631787448609295,87.03299869371392,0,60,3.0,6,0.22430585161679814
7.65,0.05304460019959574,87.05146245313001,0,60,3.0,6,0.22474029301482387
7.655,0.044185078305849994,87.01041271661957,0,60,3.0,6,0.22377441686163693
7.66,0.03651525513023255,86.91061475645817,0,60,3.0,6,0.2214262295637217
7.665,0.0299390014708757,86.7539204332355,0,60,3.0,6,0.2177393043114237
7.67,0.024353677220580638,86.5432109281171,0,60,3.0,6,0.21278143360275542
7.675,0.01965423034339045,86.2823085932323,0,60,3.0,6,0.20664255513487767
7.68,0.015736632374757337,85.97586164287844,0,60,3.0,6,0.19943203865596335
7.685,0.012500627640593535,85.62920652636427,0,60,3.0,6,0.19127544767915933
7.69,0.009851811652115898,85.24821366404863,0,60,3.0,6,0.1823109097423208
7.695,0.007703084175428559,84.8391227613306,0,60,3.0,6,0.17268524144307293
7.7,0.005975544002062424,84.40837412533746,0,60,3.0,6,0.16254997941970495
7.705,0.004598905818663047,83.96244229808723,0,60,3.0,6,0.15205746583734647
7.71,0.0035115256454839104,83.50767790861309,0,60,3.0,6,0.14135712726148447
7.715,0.002660121266303676,83.05016297235318,0,60,3.0,6,0.13059206993772182
7.72,0.0019992692560877024,82.59558398014671,0,60,3.0,6,0.1198960936505109
7.725,0.0014907520044639367,82.14912608221307,0,60,3.0,6,0.10939120193442524
7.73,0.0011028178277539807,81.71539055039561,0,60,3.0,6,0.0991856600093085
7.735,0.0008094059938923333,81.29833656105448,0,60,3.0,6,0.08937262496598786
7.74,0.0005893771793717645,80.90124724370521,0,60,3.0,6,0.08002934691071091
7.745,0.0004257792353490551,80.52671894156889,0,60,3.0,6,0.07121691627220912
7.75,0.0003051686392901525,80.17667177379406,0,60,3.0,6,0.062980512324566
7.755,0.00021699992642659966,79.85237890691286,0,60,3.0,6,0.055350091927361435
7.76,0.00015308884054097838,79.55451145345042,0,60,3.0,6,0.04834144596353921
7.765,0.00010714989329311098,79.2831956236969,0,60,3.0,6,0.04195754408698583
7.77,7.440535854020571e-05,79.03807865555783,0,60,3.0,6,0.0361900860131253
7.775,5.1260276743925106e-05,78.81840011991225,0,60,3.0,6,0.031021179292053055
7.78,3.503659887882241e-05,78.62306541983394,0,60,3.0,6,0.026425068701974946
7.785,2.375894748103639e-05,78.4507186407765,0,60,3.0,6,0.022369850371211777
7.79,1.5984413869232557e-05,78.2998123320309,0,60,3.0,6,0.018819113694844618
7.795,1.0669166579899869e-05,78.1686722737885,0,60,3.0,6,0.015733465265611812
7.8,7.06526633560511e-06,78.0555557772156,0,60,3.0,6,0.01307190064036711
7.805,4.641847214699205e-06,77.95870254889003,0,60,3.0,6,0.010793001150353669
7.81,3.025641074479182e-06,77.87637760241985,0,60,3.0,6,0.008855943586349427
7.815,1.9566278676921314e-06,77.8069061012344,0,60,3.0,6,0.007221320029044792
7.82,1.2553456560008793e-06,77.74870035534475,0,60,3.0,6,0.005851773066935346
7.825,7.990660428214668e-07,77.70027946479381,0,60,3.0,6,0.004712457995148444
7.83,5.046221251618276e-07,77.66028230204083,0,60,3.0,6,0.0037713482833135674
7.835,3.1616527078858815e-07,77.62747465735107,0,60,3.0,6,0.0029994037023781776
7.84,1.9652884407760343e-07,77.60075144137903,0,60,3.0,6,0.002370622150094866
7.845,1.2120002189836396e-07,77.57913485583552,0,60,3.0,6,0.001861996607894579
7.85,7.415549848886236e-08,77.56176941607251,0,60,3.0,6,0.0014533980252354815
7.855,4.501406988770349e-08,77.5479146487632,0,60,3.0,6,0.001127403500310506
7.86,0.0,77.53693620354231,0,60,3.0,6,0.0008690871421720203
7.865,0.0,77.52829601867644,0,60,3.0,6,0.0006657886747398285
7.87,0.0,77.52154207556202,0,60,3.0,6,0.0005068723661652792
7.875,0.0,77.51629817171488,0,60,3.0,6,0.0003834863932912841
7.88,0.0,77.51225404204673,0,60,3.0,6,0.00028833040109963587
7.885,0.0,77.50915606729512,0,60,3.0,6,0.00021543687753231044
7.89,0.0,77.50679872881548,0,60,3.0,6,0.0001599700897760586
7.895,0.0,77.50501690172683,0,60,3.0,6,0.00011804474651372028
7.9,0.0,77.50367902384069,0,60,3.0,6,8.656526683975084e-05
7.905,0.0,77.50268113537692,0,60,3.0,6,6.308553828041434e-05
7.91,0.0,77.50194175314323,0,60,3.0,6,4.568830925242818e-05
7.915,0.0,77.50139752126,0,60,3.0,6,3.288285317654192e-05
7.92,0.0,77.50099956712182,0,60,3.0,6,2.3519226395846463e-05
7.925,0.0,77.50071048454424,0,60,3.0,6,1.67172833939463e-05
7.93,0.0,77.50050186445756,0,60,3.0,6,1.1808575472032851e-05
7.935,0.0,77.5003522957284,0,60,3.0,6,8.28931125658314e-06
7.94,0.0,77.50024576353651,0,60,3.0,6,5.782671447337527e-06
7.945,0.0,77.50017037922996,0,60,3.0,6,4.008923057801225e-06
7.95,0.0,77.50011738294118,0,60,3.0,6,2.761951557271031e-06
7.955,0.0,77.50008036786956,0,60,3.0,6,1.8910086954720636e-06
7.96,0.001684486749771458,77.50005468258763,0,60,3.0,6,1.2866491207365898e-06
7.965,0.003097557930867117,77.50003697471132,0,60,3.0,6,8.699932075561425e-07
7.97,0.005475106668887023,77.50002484560973,0,60,3.0,6,5.846025818728402e-07
7.975,0.00930222931468658,77.50001659142389,0,60,3.0,6,3.903864443841217e-07
7.98,0.01519157517868857,77.50001101049368,0,60,3.0,6,2.590704395168038e-07
7.985,0.023847336626128316,77.5000072613782,0,60,3.0,6,1.7085595766943966e-07
7.99,0.0359830743700859,77.50000475905206,0,60,3.0,6,1.1197769555003427e-07
7.995,0.05218887796857759,77.50000309963808,0,60,3.0,6,7.293266067416184e-08
8.0,0.0727577001223134,77.50000200627588,0,60,3.0,6,4.7206491244116266e-08
8.005,0.0974992498694751,77.50000129050427,0,60,3.0,6,3.036480640784088e-08
8.01,0.12558706050443358,77.50000082493052,0,60,3.0,6,1.941012997389514e-08
8.015,0.15549263588878245,77.50000052404,0,60,3.0,6,1.2330353041868554e-08
8.02,0.1850529723539114,77.50000033082677,0,60,3.0,6,7.784159178674385e-09
8.025,0.21169159439317053,77.50000020755154,0,60,3.0,6,4.883565572848003e-09
8.03,0.23277292922115492,77.50000012940183,0,60,3.0,6,3.044748850430444e-09
8.035,0.24602692519491282,77.50000008017594,0,60,3.0,6,1.8864926353083266e-09
8.04,0.24995056064839283,77.500000049367,0,60,3.0,6,1.161576539529693e-09
8.045,0.24408826520424054,77.50000003020776,0,60,3.0,6,7.107707781816477e-10
8.05,0.22911894216865275,77.50000001836918,0,60,3.0,6,4.3221595714224833e-10
8.055,0.20672661788705934,77.50000001110068,0,60,3.0,6,2.611925003079437e-10
8.06,0.17928878030241233,77.50000000666651,0,60,3.0,6,1.568590799733476e-10
8.065,0.14946211903866036,77.50000000397867,0,60,3.0,6,9.361576089491685e-11
8.07,0.1197651512573837,77.50000000235974,0,60,3.0,6,5.552331405102878e-11
8.075,0.09224675744988023,77.50000000139086,0,60,3.0,6,3.2726093730375665e-11
8.08,0.06829565320281596,77.50000000081468,0,60,3.0,6,1.9168938332072954e-11
8.085,0.04860224607515734,77.50000000047422,0,60,3.0,6,1.115802874932449e-11
8.09,0.03324612389699793,77.50000000027433,0,60,3.0,6,6.454737398170811e-12
8.095,0.021859876340472782,77.5000000001577,0,60,3.0,6,3.710537759402274e-12
8.1,0.01381595518554205,77.5000000000901,0,60,3.0,6,2.1199251504560167e-12
8.105,0.008394095110402422,77.50000000005114,0,60,3.0,6,1.203408614588518e-12
8.11,0.0049052535271608,77.50000000002886,0,60,3.0,6,6.791116688605946e-13
8.115,0.0027671663551903634,77.50000000001619,0,60,3.0,6,3.808509063674137e-13
8.12,0.0015425553464444616,77.50000000000901,0,60,3.0,6,2.1199251504560166e-13
8.125,0.0009638206637011801,77.50000000000499,0,60,3.0,6,1.1736494129496244e-13
8.13,0.0009804935156568228,77.50000000000274,0,60,3.0,6,6.453399905962321e-14
8.135,0.0018793744894085216,77.5000000000015,0,60,3.0,6,3.544354352497441e-14
8.14,0.004535525206900863,77.50000000000081,0,60,3.0,6,1.9059263970976804e-14
8.145,0.010832767979632273,77.50000000000044,0,60,3.0,6,1.0365564615794402e-14
8.15,0.024208003392322392,77.50000000000024,0,60,3.0,6,5.684341886080802e-15
8.155,0.0500971897335304,77.50000000000013,0,60,3.0,6,3.0093574691016007e-15
8.16,0.09582894921774403,77.50000000000007,0,60,3.0,6,1.6718652606120004e-15
8.165,0.16937896721820658,77.50000000000003,0,60,3.0,6,6.687461042448002e-16
8.17,0.27661303008991756,77.50000000000001,0,60,3.0,6,3.343730521224001e-16
8.175,0.4173782800009149,77.50000000000001,0,60,3.0,6,3.343730521224001e-16
8.18,0.5818720934538056,77.5,0,60,3.0,6,0.0
8.185,0.7494718801585675,77.5,0,60,3.0,6,0.0
8.19,0.891813020752378,77.5,0,60,3.0,6,0.0
8.195,0.9800361632936612,77.5,0,60,3.0,6,0.0
8.2,0.993574479225126,77.50000249379623,1,60,3.0,6,5.8677558372972485e-08
8.205,0.9263438449375362,77.5000037873591,0,60,3.0,6,8.911433189282167e-08
8.21,0.7873015962290536,77.50000586643203,0,60,3.0,6,1.3803369490554305e-07
8.215,0.5959516244629897,77.50000936112565,0,60,3.0,6,2.202617799733108e-07
8.22,0.376910120078773,77.50001553885947,0,60,3.0,6,3.656202228713108e-07
8.225,0.15739335672107918,77.5000269987902,0,60,3.0,6,6.352656518682873e-07
8.23,-0.033361226269301235,77.50004909538588,0,60,3.0,6,1.1551855500195362e-06
8.235,-0.1680180840843834,77.5000927881157,0,60,3.0,6,2.1832497810357704e-06
8.24,-0.23069703190837854,77.50018019691618,0,60,3.0,6,4.239927439437665e-06
8.245,-0.22587267821131068,77.50035512985896,0,60,3.0,6,8.355996681409712e-06
8.25,-0.17718181630665902,77.50070244716376,0,60,3.0,6,1.652816855907451e-05
8.255,-0.11494332516451301,77.50138258743117,0,60,3.0,6,3.253146896862049e-05
8.26,-0.061810214049552864,77.50269116678194,0,60,3.0,6,6.332157133984391e-05
8.265,-0.026546104631500547,77.50515844333034,0,60,3.0,6,0.00012137513718458007
8.27,-0.00719600351942686,77.50970954477438,0,60,3.0,6,0.00022845987704426187
8.275,0.0022072757983807078,77.5179131238936,0,60,3.0,6,0.00042148526808486006
8.28,0.006917199873730717,77.5323521823347,0,60,3.0,6,0.0007612278196401188
8.285,0.01004859748264829,77.55715374596484,0,60,3.0,6,0.0013447940227021102
8.29,0.013037082251128167,77.59871019466716,0,60,3.0,6,0.0023225928156979507
8.295,0.01645163937690478,77.66660957566988,0,60,3.0,6,0.00392022530987955
8.3,0.020526639934696615,77.77476004056273,0,60,3.0,6,0.006464942130887654
8.305,0.02539629541761738,77.94264063456316,0,60,3.0,6,0.01041507375442734
8.31,0.031171612185577933,78.1965363540429,0,60,3.0,6,0.016389090683362476
8.315,0.03795853426638131,78.57052498893353,0,60,3.0,6,0.025188823269024184
8.32,0.0458588961882057,79.10689048440082,0,60,3.0,6,0.03780918786825463
8.325,0.054966995891435555,79.85556550877875,0,60,3.0,6,0.05542507079479418
8.33,0.06536491004445595,80.87218550073672,0,60,3.0,6,0.07934554119380517
8.335,0.07711726085088699,82.21440106636989,0,60,3.0,6,0.1109270839145856
8.34,0.09026570629555215,83.93627195484723,0,60,3.0,6,0.1514416930552289
8.345,0.10482339848670268,86.08086244957394,0,60,3.0,6,0.20190264587232806
8.35,0.12076968927580028,88.67155390032357,0,60,3.0,6,0.2628600917723194
8.355,0.13804539501007884,91.70302829420208,0,60,3.0,6,0.33418890104004906
8.36,0.15654895051787066,95.13326660856461,0,60,3.0,6,0.41490039078975555
8.365,0.17613378141900526,98.87813714204108,0,60,3.0,6,0.5030149915774372
8.37,0.19660720058055794,102.81011793964564,0,60,3.0,6,0.5955321868151915
8.375,0.21773108748496234,106.76233734752944,0,60,3.0,6,0.6885255846477515
8.38,0.23922453870058807,110.53842825599659,0,60,3.0,6,0.7773747824940375
8.385,0.2607685857914563,113.92775900036906,0,60,3.0,6,0.8571237411851544
8.39,0.2820129681603682,116.72459033287774,0,60,3.0,6,0.9229315372441821
8.395,0.30258482867153996,118.74882595036786,0,60,3.0,6,0.9705606105968908
8.4,0.3220990771751686,119.8654865137496,0,60,3.0,6,0.9968349767941083
8.405,0.3401700499968971,120.0,0,60,3.0,6,1.0
8.41,0.3564239911198326,119.1469163744074,0,60,3.0,6,0.9799274441037035
8.415,0.3705118017738417,117.37064685570721,0,60,3.0,6,0.9381328671931107
8.42,0.3821214567925213,114.79810695801649,0,60,3.0,6,0.8776025166592115
8.425,0.39098947374066967,111.60444632346429,0,60,3.0,6,0.8024575605521009
8.43,0.3969108472035567,107.99410915756765,0,60,3.0,6,0.7175084507662977
8.435,0.3997469255491936,104.18007944020901,0,60,3.0,7,0.6277665750637414
8.44,0.3994308076379137,100.36422724801442,0,60,3.0,7,0.5379818176003391
8.445,0.3959699661768434,96.7212161790668,0,60,3.0,7,0.45226391009568945
8.45,0.38944595408114946,93.38759728931282,0,60,3.0,7,0.3738258185720664
8.455,0.38001120995358023,90.45670883537264,0,60,3.0,7,0.3048637373028856
8.46,0.3678831374098315,87.9790401462504,0,60,3.0,7,0.24656565050000936
8.465,0.35333577933796634,85.96697701419116,0,60,3.0,7,0.19922298856920373
8.47,0.33668953221163944,84.4024246438112,0,60,3.0,7,0.1624099916190871
8.475,0.3182994390982644,83.24571739115189,0,60,3.0,7,0.13519335038004435
8.48,0.29854265738230645,82.44441592118244,0,60,3.0,7,0.11633919814546917
8.485,0.2778057157821067,81.94096223704659,0,60,3.0,7,0.10449322910697861
8.49,0.2564721553719815,81.67860013199362,0,60,3.0,7,0.09832000310573222
8.495,0.23491109433464996,81.6053774632043,0,60,3.0,7,0.09659711678127779
8.5,0.21346717185309805,81.67636369433883,0,60,3.0,7,0.09826738104326664
8.505,0.19245222055656455,81.85441421730658,0,60,3.0,7,0.10245680511309609
8.51,0.17213889801761392,82.10989597948169,0,60,3.0,7,0.10846814069368688
8.515,0.15275638501270183,82.4197812649522,0,60,3.0,7,0.11575955917534603
8.52,0.13448814019607322,82.76645106571821,0,60,3.0,7,0.123916495663958
8.525,0.11747159495449566,83.13645818712642,0,60,3.0,7,0.13262254557944522
8.53,0.10179958433370105,83.51940780368162,0,60,3.0,7,0.1416331247925086
8.535,0.08752324394101413,83.90703501007195,0,60,3.0,7,0.15075376494286943
8.54,0.07465606047174059,84.29250168132002,0,60,3.0,7,0.15982356897223574
8.545,0.0631787448609295,84.66989887994485,0,60,3.0,7,0.16870350305752596
8.55,0.05304460019959574,85.03392255252196,0,60,3.0,7,0.1772687659416931
8.555,0.044185078305849994,85.37968430795249,0,60,3.0,7,0.1854043366577056
8.56,0.03651525513023255,85.70262077560254,0,60,3.0,7,0.1930028417788833
8.565,0.0299390014708757,85.99847050884269,0,60,3.0,7,0.19996401197276908
8.57,0.024353677220580638,86.26329398177421,0,60,3.0,7,0.2061951525123344
8.575,0.01965423034339045,86.49351840681324,0,60,3.0,7,0.21161219780737028
8.58,0.015736632374757337,86.68599420541278,0,60,3.0,7,0.2161410401273596
8.585,0.012500627640593535,86.83805385632725,0,60,3.0,7,0.2197189142665235
8.59,0.009851811652115898,86.94756666863884,0,60,3.0,7,0.22229568632091393
8.595,0.007703084175428559,87.01298502755421,0,60,3.0,7,0.2238349418248049
8.6,0.005975544002062424,87.03337908862481,0,60,3.0,7,0.2243148020852897
8.605,0.004598905818663047,87.0084579536151,0,60,3.0,7,0.2237284224380025
8.61,0.0035115256454839104,86.938576193165,0,60,3.0,7,0.22208414572152954
8.615,0.002660121266303676,86.82472527864306,0,60,3.0,7,0.2194053006739543
8.62,0.0019992692560877024,86.66851009780702,0,60,3.0,7,0.21572964936016506
8.625,0.0014907520044639367,86.47211127728372,0,60,3.0,7,0.2111085006419698
8.63,0.0011028178277539807,86.23823452311164,0,60,3.0,7,0.2056055181908622
8.635,0.0008094059938923333,85.97004861293706,0,60,3.0,7,0.19929526148087207
8.64,0.0005893771793717645,85.67111402048207,0,60,3.0,7,0.19226150636428388
8.645,0.0004257792353490551,85.34530441514248,0,60,3.0,7,0.18459539800335245
8.65,0.0003051686392901525,84.99672344980459,0,60,3.0,7,0.1763934929365786
8.655,0.00021699992642659966,84.62961932448681,0,60,3.0,7,0.16775574881145436
8.66,0.00015308884054097838,84.248299592624,0,60,3.0,7,0.15878351982644692
8.665,0.00010714989329311098,83.85704856531288,0,60,3.0,7,0.14957761330147953
8.67,7.440535854020571e-05,83.4600494751478,0,60,3.0,7,0.14023645823877173
8.675,5.1260276743925106e-05,83.06131329728954,0,60,3.0,7,0.13085443052445986
8.68,3.503659887882241e-05,82.66461580565927,0,60,3.0,7,0.1215203718978651
8.685,2.375894748103639e-05,82.2734440829479,0,60,3.0,7,0.1123163313634801
8.69,1.5984413869232557e-05,81.89095332165515,0,60,3.0,7,0.10331654874482699
8.695,1.0669166579899869e-05,81.51993436674516,0,60,3.0,7,0.0945866909822391
8.7,7.06526633560511e-06,81.16279207494762,0,60,3.0,7,0.08618334293994394
8.705,4.641847214699205e-06,80.82153421580314,0,60,3.0,7,0.07815374625419154
8.71,3.025641074479182e-06,80.49777032755243,0,60,3.0,7,0.07053577241299837
8.715,1.9566278676921314e-06,80.19271967649756,0,60,3.0,7,0.06335811003523671
8.72,1.2553456560008793e-06,79.9072272581673,0,60,3.0,7,0.05664064136864226
8.725,7.990660428214668e-07,79.64178662610968,0,60,3.0,7,0.05039497943787477
8.73,5.046221251618276e-07,79.39656824009577,0,60,3.0,7,0.04462513506107705
8.735,3.1616527078858815e-07,79.17145198793789,0,60,3.0,7,0.03932828206912672
8.74,1.9652884407760343e-07,78.96606254967222,0,60,3.0,7,0.034495589404052146
8.745,1.2120002189836396e-07,78.77980633332653,0,60,3.0,7,0.03011309019591843
8.75,7.415549848886236e-08,78.61190881032023,0,60,3.0,7,0.026162560242828946
8.755,4.501406988770349e-08,78.46145120731774,0,60,3.0,7,0.022622381348652625
8.76,0.0,78.32740566133431,0,60,3.0,7,0.019468368501983777
8.765,0.0,78.20866810746416,0,60,3.0,7,0.016674543705039135
8.77,0.0,78.10408833568827,0,60,3.0,7,0.014213843192665282
8.775,0.0,78.01249681760311,0,60,3.0,7,0.012058748649484882
8.78,0.0,77.93272805946427,0,60,3.0,7,0.010181836693276877
8.785,0.0,77.86364037977026,0,60,3.0,7,0.008556244229888467
8.79,0.0,77.80413213413297,0,60,3.0,7,0.007156050214893426
8.795,0.0,77.75315451508283,0,60,3.0,7,0.005956576825478271
8.8,0.0,77.70972113863759,0,60,3.0,7,0.004934615026766832
8.805,0.0,77.67291469288736,0,60,3.0,7,0.004068581009114362
8.81,0.0,77.6418909673889,0,60,3.0,7,0.0033386109973859595
8.815,0.0,77.61588060740796,0,60,3.0,7,0.0027266025272461
