Time,ECG,Pressure,R_Peaks,mean_hr,hrv_scale,Phase_Bin,Normalized_Pressure
0.0,0.001684486749771458,77.5,0,60,3.0,0,0.0
0.005,0.003097557930867117,77.5,0,60,3.0,0,0.0
0.01,0.005475106668887023,77.5,0,60,3.0,0,0.0
0.015,0.00930222931468658,77.5,0,60,3.0,0,0.0
0.02,0.01519157517868857,77.5,0,60,3.0,0,0.0
0.025,0.023847336626128316,77.5,0,60,3.0,0,0.0
0.03,0.0359830743700859,77.5,0,60,3.0,0,0.0
0.035,0.05218887796857759,77.5,0,60,3.0,0,0.0
0.04,0.0727577001223134,77.5,0,60,3.0,0,0.0
0.045,0.0974992498694751,77.5,0,60,3.0,0,0.0
0.05,0.12558706050443358,77.5,0,60,3.0,0,0.0
0.055,0.15549263588878245,77.5,0,60,3.0,0,0.0
0.06,0.1850529723539114,77.5,0,60,3.0,0,0.0
0.065,0.21169159439317053,77.5,0,60,3.0,0,0.0
0.07,0.23277292922115492,77.5,0,60,3.0,0,0.0
0.075,0.24602692519491282,77.5,0,60,3.0,0,0.0
0.08,0.24995056064839283,77.5,0,60,3.0,0,0.0
0.085,0.24408826520424054,77.5,0,60,3.0,0,0.0
0.09,0.22911894216865275,77.5,0,60,3.0,0,0.0
0.095,0.20672661788705934,77.5,0,60,3.0,0,0.0
0.1,0.17928878030241233,77.5,0,60,3.0,0,0.0
0.105,0.14946211903866036,77.5,0,60,3.0,0,0.0
0.11,0.1197651512573837,77.5,0,60,3.0,0,0.0
0.115,0.09224675744988023,77.5,0,60,3.0,0,0.0
0.12,0.06829565320281596,77.5,0,60,3.0,0,0.0
0.125,0.04860224607515734,77.5,0,60,3.0,0,0.0
0.13,0.03324612389699793,77.5,0,60,3.0,0,0.0
0.135,0.021859876340472782,77.5,0,60,3.0,0,0.0
0.14,0.01381595518554205,77.5,0,60,3.0,0,0.0
0.145,0.008394095110402422,77.5,0,60,3.0,0,0.0
0.15,0.0049052535271608,77.5,0,60,3.0,0,0.0
0.155,0.0027671663551903634,77.5,0,60,3.0,0,0.0
0.16,0.0015425553464444616,77.5,0,60,3.0,0,0.0
0.165,0.0009638206637011801,77.5,0,60,3.0,0,0.0
0.17,0.0009804935156568228,77.5,0,60,3.0,0,0.0
0.175,0.0018793744894085216,77.5,0,60,3.0,0,0.0
0.18,0.004535525206900863,77.5,0,60,3.0,0,0.0
0.185,0.010832767979632273,77.5,0,60,3.0,0,0.0
0.19,0.024208003392322392,77.5,0,60,3.0,0,0.0
0.195,0.0500971897335304,77.5,0,60,3.0,0,0.0
0.2,0.09582894921774403,77.5,0,60,3.0,0,0.0
0.205,0.16937896721820658,77.5,0,60,3.0,0,0.0
0.21,0.27661303008991756,77.5,0,60,3.0,0,0.0
0.215,0.4173782800009149,77.5,0,60,3.0,0,0.0
0.22,0.5818720934538056,77.5,0,60,3.0,0,0.0
0.225,0.7494718801585675,77.5,0,60,3.0,0,0.0
0.23,0.891813020752378,77.5,0,60,3.0,0,0.0
0.235,0.9800361632936612,77.5,0,60,3.0,0,0.0
0.24,0.993574479225126,77.5,0,60,3.0,0,0.0
0.245,0.9263438449375362,77.5,0,60,3.0,0,0.0
0.25,0.7873015962290536,77.5,0,60,3.0,0,0.0
0.255,0.5959516244629897,77.5,0,60,3.0,0,0.0
0.26,0.376910120078773,77.5,0,60,3.0,0,0.0
0.265,0.15739335672107918,77.5,0,60,3.0,0,0.0
0.27,-0.033361226269301235,77.5,0,60,3.0,0,0.0
0.275,-0.1680180840843834,77.5,0,60,3.0,0,0.0
0.28,-0.23069703190837854,77.5,0,60,3.0,0,0.0
0.285,-0.22587267821131068,77.5,0,60,3.0,0,0.0
0.29,-0.17718181630665902,77.5,0,60,3.0,0,0.0
0.295,-0.11494332516451301,77.5,0,60,3.0,0,0.0
0.3,-0.061810214049552864,77.5,0,60,3.0,0,0.0
0.305,-0.026546104631500547,77.5,0,60,3.0,0,0.0
0.31,-0.00719600351942686,77.5,0,60,3.0,0,0.0
0.315,0.0022072757983807078,77.5,0,60,3.0,0,0.0
0.32,0.006917199873730717,77.5,0,60,3.0,0,0.0
0.325,0.01004859748264829,77.5,0,60,3.0,0,0.0
0.33,0.013037082251128167,77.5,0,60,3.0,0,0.0
0.335,0.01645163937690478,77.5,0,60,3.0,0,0.0
0.34,0.020526639934696615,77.5,0,60,3.0,0,0.0
0.345,0.02539629541761738,77.5,0,60,3.0,0,0.0
0.35,0.031171612185577933,77.5,0,60,3.0,0,0.0
0.355,0.03795853426638131,77.5,0,60,3.0,0,0.0
0.36,0.0458588961882057,77.5,0,60,3.0,0,0.0
0.365,0.054966995891435555,77.5,0,60,3.0,0,0.0
0.37,0.06536491004445595,77.5,0,60,3.0,0,0.0
0.375,0.07711726085088699,77.5,0,60,3.0,0,0.0
0.38,0.09026570629555215,77.5,0,60,3.0,0,0.0
0.385,0.10482339848670268,77.5,0,60,3.0,0,0.0
0.39,0.12076968927580028,77.5,0,60,3.0,0,0.0
0.395,0.13804539501007884,77.5,0,60,3.0,0,0.0
0.4,0.15654895051787066,77.5,0,60,3.0,0,0.0
0.405,0.17613378141900526,77.5,0,60,3.0,0,0.0
0.41,0.19660720058055794,77.5,0,60,3.0,0,0.0
0.415,0.21773108748496234,77.5,0,60,3.0,0,0.0
0.42,0.23922453870058807,77.5,0,60,3.0,0,0.0
0.425,0.2607685857914563,77.5,0,60,3.0,0,0.0
0.43,0.2820129681603682,77.5,0,60,3.0,0,0.0
0.435,0.30258482867153996,77.5,0,60,3.0,0,0.0
0.44,0.3220990771751686,77.5,0,60,3.0,0,0.0
0.445,0.3401700499968971,77.5,0,60,3.0,0,0.0
0.45,0.3564239911198326,77.5,0,60,3.0,0,0.0
0.455,0.3705118017738417,77.5,0,60,3.0,0,0.0
0.46,0.3821214567925213,77.5,0,60,3.0,0,0.0
0.465,0.39098947374066967,77.5,0,60,3.0,0,0.0
0.47,0.3969108472035567,77.5,0,60,3.0,0,0.0
0.475,0.3997469255491936,77.5,0,60,3.0,0,0.0
0.48,0.3994308076379137,77.5,0,60,3.0,0,0.0
0.485,0.3959699661768434,77.5,0,60,3.0,0,0.0
0.49,0.38944595408114946,77.5,0,60,3.0,0,0.0
0.495,0.38001120995358023,77.5,0,60,3.0,0,0.0
0.5,0.3678831374098315,77.5,0,60,3.0,0,0.0
0.505,0.35333577933796634,77.5,0,60,3.0,0,0.0
0.51,0.33668953221163944,77.5,0,60,3.0,0,0.0
0.515,0.3182994390982644,77.5,0,60,3.0,0,0.0
0.52,0.29854265738230645,77.5,0,60,3.0,0,0.0
0.525,0.2778057157821067,77.5,0,60,3.0,0,0.0
0.53,0.2564721553719815,77.5,0,60,3.0,0,0.0
0.535,0.23491109433464996,77.5,0,60,3.0,0,0.0
0.54,0.21346717185309805,77.5,0,60,3.0,0,0.0
0.545,0.19245222055656455,77.5,0,60,3.0,0,0.0
0.55,0.17213889801761392,77.5,0,60,3.0,0,0.0
0.555,0.15275638501270183,77.5,0,60,3.0,0,0.0
0.56,0.13448814019607322,77.5,0,60,3.0,0,0.0
0.565,0.11747159495449566,77.5,0,60,3.0,0,0.0
0.57,0.10179958433370105,77.5,0,60,3.0,0,0.0
0.575,0.08752324394101413,77.5,0,60,3.0,0,0.0
0.58,0.07465606047174059,77.5,0,60,3.0,0,0.0
0.585,0.0631787448609295,77.5,0,60,3.0,0,0.0
0.59,0.05304460019959574,77.5,0,60,3.0,0,0.0
0.595,0.044185078305849994,77.5,0,60,3.0,0,0.0
0.6,0.03651525513023255,77.5,0,60,3.0,0,0.0
0.605,0.0299390014708757,77.5,0,60,3.0,0,0.0
0.61,0.024353677220580638,77.5,0,60,3.0,0,0.0
0.615,0.01965423034339045,77.5,0,60,3.0,0,0.0
0.62,0.015736632374757337,77.5,0,60,3.0,0,0.0
0.625,0.012500627640593535,77.5,0,60,3.0,0,0.0
0.63,0.009851811652115898,77.5,0,60,3.0,0,0.0
0.635,0.007703084175428559,77.5,0,60,3.0,0,0.0
0.64,0.005975544002062424,77.5,0,60,3.0,0,0.0
0.645,0.004598905818663047,77.5,0,60,3.0,0,0.0
0.65,0.0035115256454839104,77.5,0,60,3.0,0,0.0
0.655,0.002660121266303676,77.5,0,60,3.0,0,0.0
0.66,0.0019992692560877024,77.5,0,60,3.0,0,0.0
0.665,0.0014907520044639367,77.5,0,60,3.0,0,0.0
0.67,0.0011028178277539807,77.5,0,60,3.0,0,0.0
0.675,0.0008094059938923333,77.5,0,60,3.0,0,0.0
0.68,0.0005893771793717645,77.5,0,60,3.0,0,0.0
0.685,0.0004257792353490551,77.5,0,60,3.0,0,0.0
0.69,0.0003051686392901525,77.5,0,60,3.0,0,0.0
0.695,0.00021699992642659966,77.5,0,60,3.0,0,0.0
0.7,0.00015308884054097838,77.5,0,60,3.0,0,0.0
0.705,0.00010714989329311098,77.5,0,60,3.0,0,0.0
0.71,7.440535854020571e-05,77.5,0,60,3.0,0,0.0
0.715,5.1260276743925106e-05,77.5,0,60,3.0,0,0.0
0.72,3.503659887882241e-05,77.5,0,60,3.0,0,0.0
0.725,2.375894748103639e-05,77.5,0,60,3.0,0,0.0
0.73,1.5984413869232557e-05,77.5,0,60,3.0,0,0.0
0.735,1.0669166579899869e-05,77.5,0,60,3.0,0,0.0
0.74,7.06526633560511e-06,77.5,0,60,3.0,0,0.0
0.745,4.641847214699205e-06,77.5,0,60,3.0,0,0.0
0.75,3.025641074479182e-06,77.5,0,60,3.0,0,0.0
0.755,1.9566278676921314e-06,77.5,0,60,3.0,0,0.0
0.76,1.2553456560008793e-06,77.5,0,60,3.0,0,0.0
0.765,7.990660428214668e-07,77.5,0,60,3.0,0,0.0
0.77,5.046221251618276e-07,77.5,0,60,3.0,0,0.0
0.775,3.1616527078858815e-07,77.5,0,60,3.0,0,0.0
0.78,1.9652884407760343e-07,77.5,0,60,3.0,0,0.0
0.785,1.2120002189836396e-07,77.5,0,60,3.0,0,0.0
0.79,7.415549848886236e-08,77.5,0,60,3.0,0,0.0
0.795,4.501406988770349e-08,77.5,0,60,3.0,0,0.0
0.8,0.0,77.5,0,60,3.0,0,0.0
0.805,0.0,77.5,0,60,3.0,0,0.0
0.81,0.0,77.5,0,60,3.0,0,0.0
0.815,0.0,77.5,0,60,3.0,0,0.0
0.82,0.0,77.5,0,60,3.0,0,0.0
0.825,0.0,77.5,0,60,3.0,0,0.0
0.83,0.0,77.5,0,60,3.0,0,0.0
0.835,0.0,77.5,0,60,3.0,0,0.0
0.84,0.0,77.5,0,60,3.0,0,0.0
0.845,0.0,77.5,0,60,3.0,0,0.0
0.85,0.0,77.5,0,60,3.0,0,0.0
0.855,0.0,77.5,0,60,3.0,0,0.0
0.86,0.0,77.5,0,60,3.0,0,0.0
0.865,0.0,77.5,0,60,3.0,0,0.0
0.87,0.0,77.5,0,60,3.0,0,0.0
0.875,0.0,77.5,0,60,3.0,0,0.0
0.88,0.0,77.5,0,60,3.0,0,0.0
0.885,0.0,77.5,0,60,3.0,0,0.0
0.89,0.0,77.5,0,60,3.0,0,0.0
0.895,0.0,77.5,0,60,3.0,0,0.0
0.9,0.0,77.5,0,60,3.0,0,0.0
0.905,0.0,77.5,0,60,3.0,0,0.0
0.91,0.0,77.5,0,60,3.0,0,0.0
0.915,0.0,77.5,0,60,3.0,0,0.0
0.92,0.0,77.5,0,60,3.0,0,0.0
0.925,0.0,77.5,0,60,3.0,0,0.0
0.93,0.0,77.5,0,60,3.0,0,0.0
0.935,0.0,77.5,0,60,3.0,0,0.0
0.94,0.0,77.5,0,60,3.0,0,0.0
0.945,0.0,77.5,0,60,3.0,0,0.0
0.95,0.0,77.5,0,60,3.0,0,0.0
0.955,0.0,77.5,0,60,3.0,0,0.0
0.96,0.0,77.5,0,60,3.0,0,0.0
0.965,0.0,77.5,0,60,3.0,0,0.0
0.97,0.0,77.5,0,60,3.0,0,0.0
0.975,0.0,77.5,0,60,3.0,0,0.0
0.98,0.0,77.5,0,60,3.0,0,0.0
0.985,0.0,77.5,0,60,3.0,0,0.0
0.99,0.0,77.5,0,60,3.0,0,0.0
0.995,0.001684486749771458,77.5,0,60,3.0,0,0.0
1.0,0.003097557930867117,77.5,0,60,3.0,0,0.0
1.005,0.005475106668887023,77.5,0,60,3.0,0,0.0
1.01,0.00930222931468658,77.5,0,60,3.0,0,0.0
1.015,0.01519157517868857,77.5,0,60,3.0,0,0.0
1.02,0.023847336626128316,77.5,0,60,3.0,0,0.0
1.025,0.0359830743700859,77.5,0,60,3.0,0,0.0
1.03,0.05218887796857759,77.5,0,60,3.0,0,0.0
1.035,0.0727577001223134,77.5,0,60,3.0,0,0.0
1.04,0.0974992498694751,77.5,0,60,3.0,0,0.0
1.045,0.12558706050443358,77.5,0,60,3.0,0,0.0
1.05,0.15549263588878245,77.5,0,60,3.0,0,0.0
1.055,0.1850529723539114,77.5,0,60,3.0,0,0.0
1.06,0.21169159439317053,77.5,0,60,3.0,0,0.0
1.065,0.23277292922115492,77.5,0,60,3.0,0,0.0
1.07,0.24602692519491282,77.5,0,60,3.0,0,0.0
1.075,0.24995056064839283,77.5,0,60,3.0,0,0.0
1.08,0.24408826520424054,77.5,0,60,3.0,0,0.0
1.085,0.22911894216865275,77.5,0,60,3.0,0,0.0
1.09,0.20672661788705934,77.5,0,60,3.0,0,0.0
1.095,0.17928878030241233,77.5,0,60,3.0,0,0.0
1.1,0.14946211903866036,77.5,0,60,3.0,0,0.0
1.105,0.1197651512573837,77.5,0,60,3.0,0,0.0
1.11,0.09224675744988023,77.5,0,60,3.0,0,0.0
1.115,0.06829565320281596,77.5,0,60,3.0,0,0.0
1.12,0.04860224607515734,77.5,0,60,3.0,0,0.0
1.125,0.03324612389699793,77.5,0,60,3.0,0,0.0
1.13,0.021859876340472782,77.5,0,60,3.0,0,0.0
1.135,0.01381595518554205,77.5,0,60,3.0,0,0.0
1.14,0.008394095110402422,77.5,0,60,3.0,0,0.0
1.145,0.0049052535271608,77.5,0,60,3.0,0,0.0
1.15,0.0027671663551903634,77.5,0,60,3.0,0,0.0
1.155,0.0015425553464444616,77.5,0,60,3.0,0,0.0
1.16,0.0009638206637011801,77.5,0,60,3.0,0,0.0
1.165,0.0009804935156568228,77.5,0,60,3.0,0,0.0
1.17,0.0018793744894085216,77.5,0,60,3.0,0,0.0
1.175,0.004535525206900863,77.5,0,60,3.0,0,0.0
1.18,0.010832767979632273,77.5,0,60,3.0,0,0.0
1.185,0.024208003392322392,77.5,0,60,3.0,0,0.0
1.19,0.0500971897335304,77.5,0,60,3.0,0,0.0
1.195,0.09582894921774403,77.5,0,60,3.0,0,0.0
1.2,0.16937896721820658,77.5,0,60,3.0,0,0.0
1.205,0.27661303008991756,77.5,0,60,3.0,1,0.0
1.21,0.4173782800009149,77.5,0,60,3.0,1,0.0
1.215,0.5818720934538056,77.5,0,60,3.0,1,0.0
1.22,0.7494718801585675,77.5,0,60,3.0,1,0.0
1.225,0.891813020752378,77.5,0,60,3.0,1,0.0
1.23,0.9800361632936612,77.5,0,60,3.0,1,0.0
1.235,0.993574479225126,77.50000249606323,1,60,3.0,1,5.8730899568485364e-08
1.24,0.9263438449375362,77.5000038398575,0,60,3.0,1,9.034958820313264e-08
1.245,0.7873015962290536,77.500006033868,0,60,3.0,1,1.4197336480826967e-07
1.25,0.5959516244629897,77.50000979196264,0,60,3.0,1,2.303991209373635e-07
1.255,0.376910120078773,77.50001658325932,0,60,3.0,1,3.9019433703448587e-07
1.26,0.15739335672107918,77.50002948944842,0,60,3.0,1,6.938693746526362e-07
1.265,-0.033361226269301235,77.50005499618474,0,60,3.0,1,1.2940278763300524e-06
1.27,-0.1680180840843834,77.50010664152244,0,60,3.0,1,2.509212292606582e-06
1.275,-0.23069703190837854,77.50021223841208,0,60,3.0,1,4.993844990006919e-06
1.28,-0.22587267821131068,77.50042774487464,0,60,3.0,1,1.006458528569751e-05
1.285,-0.17718181630665902,77.50086306382961,0,60,3.0,1,2.0307384226177473e-05
1.29,-0.11494332516451301,77.50172846110615,0,60,3.0,1,4.0669673085978825e-05
1.295,-0.061810214049552864,77.5034152292072,0,60,3.0,1,8.035833428721162e-05
1.3,-0.026546104631500547,77.5066308676186,0,60,3.0,1,0.00015602041455522073
1.305,-0.00719600351942686,77.51261714788687,0,60,3.0,1,0.0002968740679263834
1.31,0.0022072757983807078,77.5234879390857,0,60,3.0,1,0.000552657390251705
1.315,0.006917199873730717,77.5427303078502,0,60,3.0,1,0.00100541900824015
1.32,0.01004859748264829,77.57591328443115,0,60,3.0,1,0.001786194927791819
1.325,0.013037082251128167,77.63163821024733,0,60,3.0,1,0.0030973696528783824
1.33,0.01645163937690478,77.7227359889992,0,60,3.0,1,0.005240846799981281
1.335,0.020526639934696615,77.86766338596527,0,60,3.0,1,0.008650903199182882
1.34,0.02539629541761738,78.09196918540792,0,60,3.0,1,0.013928686715480447
1.345,0.031171612185577933,78.42959438652437,0,60,3.0,1,0.021872809094691092
1.35,0.03795853426638131,78.9236517302522,0,60,3.0,1,0.03349768777064007
1.355,0.0458588961882057,79.62622444184039,0,60,3.0,1,0.05002881039624453
1.36,0.054966995891435555,80.5966700411891,0,60,3.0,1,0.07286282449856706
1.365,0.06536491004445595,81.89795705296187,0,60,3.0,1,0.10348134242263227
1.37,0.07711726085088699,83.590740736457,0,60,3.0,1,0.14331154674016455
1.375,0.09026570629555215,85.72521884287897,0,60,3.0,1,0.19353456100891703
1.38,0.10482339848670268,88.3312835786459,0,60,3.0,1,0.25485373126225636
1.385,0.12076968927580028,91.40803681418913,0,60,3.0,1,0.32724792503974426
1.39,0.13804539501007884,94.91424919828907,0,60,3.0,1,0.4097470399597428
1.395,0.15654895051787066,98.7616754538298,0,60,3.0,1,0.5002747165607011
1.4,0.17613378141900526,102.81314459839467,0,60,3.0,1,0.5956034023151687
1.405,0.19660720058055794,106.88692793605124,0,60,3.0,1,0.6914571279070879
1.41,0.21773108748496234,110.76804090701927,0,60,3.0,1,0.7827774331063357
1.415,0.23922453870058807,114.22596317855158,0,60,3.0,1,0.8641403100835666
1.42,0.2607685857914563,117.0369802382121,0,60,3.0,1,0.9302818879579317
1.425,0.2820129681603682,119.00824368351186,0,60,3.0,1,0.9766645572591027
1.43,0.30258482867153996,120.0,0,60,3.0,1,1.0
1.435,0.3220990771751686,119.94245116636986,0,60,3.0,1,0.998645909796938
1.44,0.3401700499968971,118.84443995887491,0,60,3.0,1,0.9728103519735274
1.445,0.3564239911198326,116.79247804582917,0,60,3.0,1,0.9245288951959805
1.45,0.3705118017738417,113.94028233815197,0,60,3.0,1,0.857418407956517
1.455,0.3821214567925213,110.4905961503334,0,60,3.0,1,0.7762493211843153
1.46,0.39098947374066967,106.67229771772733,0,60,3.0,1,0.686407005122996
1.465,0.3969108472035567,102.71639188641603,0,60,3.0,1,0.5933268679156714
1.47,0.3997469255491936,98.83435529010902,0,60,3.0,1,0.5019848303555062
1.475,0.3994308076379137,95.20154861737079,0,60,3.0,1,0.4165070262910774
1.48,0.3959699661768434,91.94724589020063,0,60,3.0,1,0.3399351974164855
1.485,0.38944595408114946,89.1515501373611,0,60,3.0,1,0.2741541208790847
1.49,0.38001120995358023,86.84834318674413,0,60,3.0,1,0.21996101615868544
1.495,0.3678831374098315,85.03265064487029,0,60,3.0,1,0.17723883870283028
1.5,0.35333577933796634,83.67047424017679,0,60,3.0,1,0.1451876291806303
1.505,0.33668953221163944,82.70922389874646,0,60,3.0,1,0.12256997408815196
1.51,0.3182994390982644,82.08726133343396,0,60,3.0,1,0.10793556078668136
1.515,0.29854265738230645,81.74159879534122,0,60,3.0,1,0.09980232459626397
1.52,0.2778057157821067,81.61334027722147,0,60,3.0,1,0.09678447711109336
1.525,0.2564721553719815,81.6509036668351,0,60,3.0,1,0.09766832157259073
1.53,0.23491109433464996,81.81136644357802,0,60,3.0,1,0.10144391631948291
1.535,0.21346717185309805,82.06042651697676,0,60,3.0,1,0.10730415334062968
1.54,0.19245222055656455,82.37148928088116,0,60,3.0,1,0.11462327719720386
1.545,0.17213889801761392,82.72432417484066,0,60,3.0,1,0.12292527470213319
1.55,0.15275638501270183,83.10362302191093,0,60,3.0,1,0.13184995345672787
1.555,0.13448814019607322,83.49767392349987,0,60,3.0,1,0.14112173937646763
1.56,0.11747159495449566,83.89726171789964,0,60,3.0,1,0.15052380512705033
1.565,0.10179958433370105,84.29482974674242,0,60,3.0,1,0.15987834698217465
1.57,0.08752324394101413,84.68388923933297,0,60,3.0,1,0.16903268798430518
1.575,0.07465606047174059,85.05863764443257,0,60,3.0,1,0.17785029751606035
1.58,0.0631787448609295,85.41373904216793,0,60,3.0,1,0.18620562452159842
1.585,0.05304460019959574,85.74422176195922,0,60,3.0,1,0.19398168851668762
1.59,0.044185078305849994,86.0454552613927,0,60,3.0,1,0.20106953556218127
1.595,0.03651525513023255,86.31317664893982,0,60,3.0,1,0.20736886232799567
1.6,0.0299390014708757,86.54354497329876,0,60,3.0,1,0.2127892934893827
1.605,0.024353677220580638,86.73320770957436,0,60,3.0,1,0.21725194610763196
1.61,0.01965423034339045,86.87936861096367,0,60,3.0,1,0.22069102614032157
1.615,0.015736632374757337,86.97984948291244,0,60,3.0,1,0.223055281950881
1.62,0.012500627640593535,87.03314081261668,0,60,3.0,1,0.2243091955909807
1.625,0.009851811652115898,87.03843787511315,0,60,3.0,1,0.22443383235560344
1.63,0.007703084175428559,86.99566019345913,0,60,3.0,1,0.2234272986696266
1.635,0.005975544002062424,86.90545322943116,0,60,3.0,1,0.22130478186896846
1.64,0.004598905818663047,86.76917202771214,0,60,3.0,1,0.2180981653579328
1.645,0.0035115256454839104,86.58884728386485,0,60,3.0,1,0.21385523020858474
1.65,0.002660121266303676,86.36713497361453,0,60,3.0,1,0.2086384699674006
1.655,0.0019992692560877024,86.10725126733229,0,60,3.0,1,0.20252355923134793
1.66,0.0014907520044639367,85.81289494876535,0,60,3.0,1,0.19559752820624346
1.665,0.0011028178277539807,85.48815994788507,0,60,3.0,1,0.1879567046561192
1.67,0.0008094059938923333,85.13744087266727,0,60,3.0,1,0.17970449112158282
1.675,0.0005893771793717645,84.76533457621503,0,60,3.0,1,0.17094904885211823
1.68,0.0004257792353490551,84.37654082180066,0,60,3.0,1,0.1618009605129567
1.685,0.0003051686392901525,83.97576501288177,0,60,3.0,1,0.15237094147957095
1.69,0.00021699992642659966,83.5676257473155,0,60,3.0,1,0.14276766464271773
1.695,0.00015308884054097838,83.1565696492459,0,60,3.0,1,0.1330957564528446
1.7,0.00010714989329311098,82.74679554691296,0,60,3.0,1,0.12345401286854031
1.705,7.440535854020571e-05,82.34218962124325,0,60,3.0,1,0.11393387344101764
1.71,5.1260276743925106e-05,81.94627267143458,0,60,3.0,1,0.10461818050434317
1.715,3.503659887882241e-05,81.5621601530088,0,60,3.0,1,0.0955802388943248
1.72,2.375894748103639e-05,81.19253516317026,0,60,3.0,1,0.08688318030988854
1.725,1.5984413869232557e-05,80.83963409787519,0,60,3.0,1,0.07857962583235743
1.73,1.0669166579899869e-05,80.5052443018934,0,60,3.0,1,0.07071163063278585
1.735,7.06526633560511e-06,80.19071269077197,0,60,3.0,1,0.06331088684169352
1.74,4.641847214699205e-06,79.89696405136633,0,60,3.0,1,0.056399154149795884
1.745,3.025641074479182e-06,79.6245275306656,0,60,3.0,1,0.04998888307448477
1.75,1.9566278676921314e-06,79.37356970210506,0,60,3.0,1,0.044083992990707255
1.755,1.2553456560008793e-06,79.14393255178399,0,60,3.0,1,0.03868076592432919
1.76,7.990660428214668e-07,78.93517474813203,0,60,3.0,1,0.03376881760310653
1.765,5.046221251618276e-07,78.74661463915068,0,60,3.0,1,0.029332109156486548
1.77,3.1616527078858815e-07,78.57737355111618,0,60,3.0,1,0.02534996590861604
1.775,1.9652884407760343e-07,78.42641813017309,0,60,3.0,1,0.021798073651131532
1.78,1.2120002189836396e-07,78.29260066180315,0,60,3.0,1,0.01864942733654469
1.785,7.415549848886236e-08,78.17469651121884,0,60,3.0,1,0.0158752120286786
1.79,4.501406988770349e-08,78.07143803963184,0,60,3.0,1,0.013445600932513959
1.795,0.0,77.98154455767332,0,60,3.0,1,0.011330460180548632
1.8,0.0,77.9037480701592,0,60,3.0,1,0.009499954591981082
1.805,0.0,77.83681473981095,0,60,3.0,1,0.00792505270143405
1.81,0.0,77.7795621471775,0,60,3.0,1,0.006577932874764723
1.815,0.0,77.730872547324,0,60,3.0,1,0.005432295231152881
1.82,0.0,77.68970241993146,0,60,3.0,1,0.0044635863513285716
1.825,0.0,77.65508867876439,0,60,3.0,1,0.0036491453826914388
1.83,0.0,77.62615195063168,0,60,3.0,1,0.002968281191333651
1.835,0.0,77.60209735548692,0,60,3.0,1,0.0024022907173392627
1.84,0.0,77.58221322128246,0,60,3.0,1,0.001934428736057846
1.845,0.0,77.56586815304183,0,60,3.0,1,0.001549838895101964
1.85,0.0,77.5525068488899,0,60,3.0,1,0.0012354552679977695
1.855,0.0,77.54164501992928,0,60,3.0,1,0.0009798828218653371
1.86,0.0,77.53286372908609,0,60,3.0,1,0.0007732642137903119
1.865,0.0,77.52580341921859,0,60,3.0,1,0.0006071392757315366
1.87,0.0,77.5201578553129,0,60,3.0,1,0.0004743024779506467
1.875,0.0,77.51566816144691,0,60,3.0,1,0.0003686626222802528
1.88,0.0,77.51211709188321,0,60,3.0,1,0.0002851080443108725
1.885,0.0,77.50932363821491,0,60,3.0,1,0.0002193797227037334
1.89,0.0,77.50713804159365,0,60,3.0,1,0.00016795391985056086
1.895,0.0,77.50543725103012,0,60,3.0,1,0.00012793531835567966
1.9,0.0,77.5041208456039,0,60,3.0,1,9.69610730327772e-05
1.905,0.0,77.5031074199587,0,60,3.0,1,7.311576373400813e-05
1.91,0.0,77.50233141833475,0,60,3.0,1,5.485690199407145e-05
1.915,0.0,77.50174039213948,0,60,3.0,1,4.095040328192066e-05
1.92,0.0,77.501292649158,0,60,3.0,1,3.0415274305957664e-05
1.925,0.0,77.50095525841263,0,60,3.0,1,2.2476668532496712e-05
1.93,0.0,77.50070237286243,0,60,3.0,1,1.6526420292580843e-05
1.935,0.0,77.50051383209139,0,60,3.0,1,1.2090166856135992e-05
1.94,0.0,77.50037400841595,0,60,3.0,1,8.800198022259686e-06
1.945,0.0,77.50027086205799,0,60,3.0,1,6.37322489383758e-06
1.95,0.0,77.50019517384675,0,60,3.0,1,4.5923258058417775e-06
1.955,0.0,77.50013992706306,0,60,3.0,1,3.292401483764372e-06
1.96,0.0,77.50009981331155,0,60,3.0,1,2.348548507063028e-06
1.965,0.0,77.5000708405394,0,60,3.0,1,1.6668362210272307e-06
1.97,0.0,77.50005002440169,0,60,3.0,1,1.177044745592117e-06
1.975,0.0,77.50003514702703,0,60,3.0,1,8.269888714012803e-07
1.98,0.0,77.50002456981785,0,60,3.0,1,5.781133612505501e-07
1.985,0.0,77.50001708920767,0,60,3.0,1,4.0209900409054705e-07
1.99,0.0,77.50001182629116,0,60,3.0,1,2.782656742831879e-07
1.995,0.001684486749771458,77.50000814295163,0,60,3.0,1,1.9159886184805894e-07
2.0,0.003097557930867117,77.50000557855593,0,60,3.0,1,1.312601394896346e-07
2.005,0.005475106668887023,77.5000038024926,0,60,3.0,1,8.947041411535312e-08
2.01,0.00930222931468658,77.50000257882347,0,60,3.0,1,6.067819928081436e-08
2.015,0.01519157517868857,77.5000017401292,0,60,3.0,1,4.0944216634135744e-08
2.02,0.023847336626128316,77.50000116828292,0,60,3.0,1,2.748900990755989e-08
2.025,0.0359830743700859,77.50000078040709,0,60,3.0,1,1.836251980795864e-08
2.03,0.05218887796857759,77.50000051868184,0,60,3.0,1,1.220427868568496e-08
2.035,0.0727577001223134,77.50000034299478,0,60,3.0,1,8.070465435808086e-09
2.04,0.0974992498694751,77.50000022567355,0,60,3.0,1,5.3099657794946855e-09
2.045,0.12558706050443358,77.50000014773399,0,60,3.0,1,3.4760937657719136e-09
2.05,0.15549263588878245,77.50000009622477,0,60,3.0,1,2.2641121605000295e-09
2.055,0.1850529723539114,77.5000000623591,0,60,3.0,1,1.4672730899559718e-09
2.06,0.21169159439317053,77.50000004020866,0,60,3.0,1,9.460861479858388e-10
2.065,0.23277292922115492,77.50000002579563,0,60,3.0,1,6.069559704508933e-10
2.07,0.24602692519491282,77.50000001646566,0,60,3.0,1,3.874273555565571e-10
2.075,0.24995056064839283,77.50000001045728,0,60,3.0,1,2.460537603731021e-10
2.08,0.24408826520424054,77.50000000660792,0,60,3.0,1,1.5548045987944693e-10
2.085,0.22911894216865275,77.50000000415449,0,60,3.0,1,9.775262429577518e-11
2.09,0.20672661788705934,77.50000000259882,0,60,3.0,1,6.114880627993604e-11
2.095,0.17928878030241233,77.5000000016175,0,60,3.0,1,3.80586751656237e-11
2.1,0.14946211903866036,77.50000000100165,0,60,3.0,1,2.356828457884737e-11
2.105,0.1197651512573837,77.50000000061716,0,60,3.0,1,1.4521487280623714e-11
2.11,0.09224675744988023,77.50000000037834,0,60,3.0,1,8.902013766654657e-12
2.115,0.06829565320281596,77.50000000023077,0,60,3.0,1,5.4298839934156554e-12
2.12,0.04860224607515734,77.50000000014005,0,60,3.0,1,3.2952464286662528e-12
2.125,0.03324612389699793,77.50000000008457,0,60,3.0,1,1.989854033180403e-12
2.13,0.021859876340472782,77.5000000000508,0,60,3.0,1,1.1953836613375804e-12
2.135,0.01381595518554205,77.50000000003037,0,60,3.0,1,7.14555212385569e-13
2.14,0.008394095110402422,77.50000000001806,0,60,3.0,1,4.249881492475705e-13
2.145,0.0049052535271608,77.50000000001069,0,60,3.0,1,2.514485351960449e-13
2.15,0.0027671663551903634,77.5000000000063,0,60,3.0,1,1.4812726209022324e-13
2.155,0.0015425553464444616,77.50000000000368,0,60,3.0,1,8.660262049970162e-14
2.16,0.0009638206637011801,77.50000000000215,0,60,3.0,1,5.049033087048241e-14
2.165,0.0009804935156568228,77.50000000000125,0,60,3.0,1,2.942482858677121e-14
2.17,0.0018793744894085216,77.50000000000072,0,60,3.0,1,1.7053025658242404e-14
2.175,0.004535525206900863,77.50000000000041,0,60,3.0,1,9.696818511549603e-15
2.18,0.010832767979632273,77.50000000000024,0,60,3.0,1,5.684341886080802e-15
2.185,0.024208003392322392,77.50000000000013,0,60,3.0,1,3.0093574691016007e-15
2.19,0.0500971897335304,77.50000000000007,0,60,3.0,1,1.6718652606120004e-15
2.195,0.09582894921774403,77.50000000000004,0,60,3.0,1,1.0031191563672002e-15
2.2,0.16937896721820658,77.50000000000003,0,60,3.0,1,6.687461042448002e-16
2.205,0.27661303008991756,77.50000000000001,0,60,3.0,1,3.343730521224001e-16
2.21,0.4173782800009149,77.5,0,60,3.0,1,0.0
2.215,0.5818720934538056,77.5,0,60,3.0,1,0.0
2.22,0.7494718801585675,77.5,0,60,3.0,1,0.0
2.225,0.891813020752378,77.5,0,60,3.0,1,0.0
2.23,0.9800361632936612,77.5,0,60,3.0,1,0.0
2.235,0.993574479225126,77.50000249005134,1,60,3.0,1,5.8589443383158035e-08
2.24,0.9263438449375362,77.50000394038275,0,60,3.0,1,9.271488833666595e-08
2.245,0.7873015962290536,77.50000639218067,0,60,3.0,1,1.504042509569605e-07
2.25,0.5959516244629897,77.50001077235028,0,60,3.0,1,2.534670653965483e-07
2.255,0.376910120078773,77.50001908666758,0,60,3.0,1,4.490980606586912e-07
2.26,0.15739335672107918,77.5000357548629,0,60,3.0,1,8.412908919260243e-07
2.265,-0.033361226269301235,77.5000705175213,0,60,3.0,1,1.659235795159475e-06
2.27,-0.1680180840843834,77.5001445789881,0,60,3.0,1,3.401858543504525e-06
2.275,-0.23069703190837854,77.5003031686916,0,60,3.0,1,7.133380978864486e-06
2.28,-0.22587267821131068,77.5006403428687,0,60,3.0,1,1.5066891028388508e-05
2.285,-0.17718181630665902,77.50134618528463,0,60,3.0,1,3.167494787369244e-05
2.29,-0.11494332516451301,77.50279324668047,0,60,3.0,1,6.572345130514216e-05
2.295,-0.061810214049552864,77.5056885995389,0,60,3.0,1,0.0001338494009152836
2.3,-0.026546104631500547,77.51133023532057,0,60,3.0,1,0.00026659377224873157
2.305,-0.00719600351942686,77.52202043086514,0,60,3.0,1,0.0005181277850621267
2.31,0.0022072757983807078,77.54170079619027,0,60,3.0,1,0.000981195204476936
2.315,0.006917199873730717,77.57687766493112,0,60,3.0,1,0.0018088862336733602
2.32,0.01004859748264829,77.63789263572853,0,60,3.0,1,0.003244532605377264
2.325,0.013037082251128167,77.74054920623045,0,60,3.0,1,0.0056599813230695205
2.33,0.01645163937690478,77.90802055981457,0,60,3.0,1,0.009600483760342914
2.335,0.020526639934696615,78.17282908364092,0,60,3.0,1,0.015831272556256944
2.34,0.02539629541761738,78.57851124527741,0,60,3.0,1,0.025376735182997916
2.345,0.031171612185577933,79.1803885212917,0,60,3.0,1,0.03953855344215774
2.35,0.03795853426638131,80.0447076348371,0,60,3.0,1,0.059875473760872835
2.355,0.0458588961882057,81.24536512508388,0,60,3.0,1,0.08812623823726774
2.36,0.054966995891435555,82.85757412646959,0,60,3.0,1,0.12606056768163731
2.365,0.06536491004445595,84.94822898129785,0,60,3.0,1,0.17525244661877282
2.37,0.07711726085088699,87.56338750820743,0,60,3.0,1,0.23678558842841005
2.375,0.09026570629555215,90.7141492895029,0,60,3.0,1,0.3109211597530094
2.38,0.10482339848670268,94.3630917299998,0,60,3.0,1,0.39677862894117166
2.385,0.12076968927580028,98.41408530862822,0,60,3.0,1,0.4920961249088992
2.39,0.13804539501007884,102.70847428298099,0,60,3.0,1,0.5931405713642585
2.395,0.15654895051787066,107.03007195676986,0,60,3.0,1,0.694825222512232
2.4,0.17613378141900526,111.12012910549245,0,60,3.0,1,0.7910618613057048
2.405,0.19660720058055794,114.70155663171694,0,60,3.0,1,0.8753307442756927
2.41,0.21773108748496234,117.50960206611181,0,60,3.0,2,0.941402401555572
2.415,0.23922453870058807,119.32441468611549,0,60,3.0,2,0.9841038749674232
2.42,0.2607685857914563,120.0,0,60,3.0,2,1.0
2.425,0.2820129681603682,119.48430356356428,0,60,3.0,2,0.9878659662015126
2.43,0.30258482867153996,117.826618813132,0,60,3.0,2,0.9488616191325177
2.435,0.3220990771751686,115.17088635739287,0,60,3.0,2,0.8863737966445382
2.44,0.3401700499968971,111.73617728815637,0,60,3.0,2,0.8055571126625028
2.445,0.3564239911198326,107.78805988304259,0,60,3.0,2,0.7126602325421787
2.45,0.3705118017738417,103.60606181643028,0,60,3.0,2,0.6142602780336537
2.455,0.3821214567925213,99.45274455247792,0,60,3.0,2,0.5165351659406571
2.46,0.39098947374066967,95.54902758884025,0,60,3.0,2,0.42468300209035875
2.465,0.3969108472035567,92.05866703799698,0,60,3.0,2,0.342556871482282
2.47,0.3997469255491936,89.08271495386987,0,60,3.0,2,0.2725344695028204
2.475,0.3994308076379137,86.66288698908318,0,60,3.0,2,0.21559734091960414
2.48,0.3959699661768434,84.7914392365105,0,60,3.0,2,0.1715632761531882
2.485,0.38944595408114946,83.42457875378753,0,60,3.0,2,0.1394018530302948
2.49,0.38001120995358023,82.49656511278434,0,60,3.0,2,0.11756623794786679
2.495,0.3678831374098315,81.93230111406058,0,60,3.0,2,0.10428943797789597
2.5,0.35333577933796634,81.65708944599176,0,60,3.0,2,0.09781386931745313
2.505,0.33668953221163944,81.60309706988252,0,60,3.0,2,0.09654346046782407
2.51,0.3182994390982644,81.71274607711119,0,60,3.0,2,0.09912343710849862
2.515,0.29854265738230645,81.93966161579142,0,60,3.0,2,0.10446262625391582
2.52,0.2778057157821067,82.2479621143257,0,60,3.0,2,0.11171675563119299
2.525,0.2564721553719815,82.6106363930207,0,60,3.0,2,0.12025026807107525
2.53,0.23491109433464996,83.00759804884157,0,60,3.0,2,0.12959054232568407
2.535,0.21346717185309805,83.42381432070776,0,60,3.0,2,0.1393838663695944
2.54,0.19245222055656455,83.84772730242526,0,60,3.0,2,0.14935828946882954
2.545,0.17213889801761392,84.2700476135659,0,60,3.0,2,0.1592952379662563
2.55,0.15275638501270183,84.68291151017121,0,60,3.0,2,0.16900968259226373
2.555,0.13448814019607322,85.07934584035235,0,60,3.0,2,0.17833754918476108
2.56,0.11747159495449566,85.45296939810551,0,60,3.0,2,0.18712869172012964
2.565,0.10179958433370105,85.79786185623578,0,60,3.0,2,0.19524380838201844
2.57,0.08752324394101413,86.10854277553481,0,60,3.0,2,0.2025539476596427
2.575,0.07465606047174059,86.38001673381514,0,60,3.0,2,0.20894157020741505
2.58,0.0631787448609295,86.60785292524119,0,60,3.0,2,0.21430242177038095
2.585,0.05304460019959574,86.78827731415377,0,60,3.0,2,0.21854770150950056
2.59,0.044185078305849994,86.91826250749796,0,60,3.0,2,0.22160617664701074
2.595,0.03651525513023255,86.99560542459125,0,60,3.0,2,0.22342600999038228
2.6,0.0299390014708757,87.0189862207937,0,60,3.0,2,0.22397614637161664
2.605,0.024353677220580638,86.98800431460441,0,60,3.0,2,0.22324716034363318
2.61,0.01965423034339045,86.90318917628503,0,60,3.0,2,0.22125151003023588
2.615,0.015736632374757337,86.76598501082319,0,60,3.0,2,0.21802317672525146
2.62,0.012500627640593535,86.57870974203561,0,60,3.0,2,0.21361669981260267
2.625,0.009851811652115898,86.34448983173559,0,60,3.0,2,0.20810564309966087
2.63,0.007703084175428559,86.06717345510422,0,60,3.0,2,0.20158055188480528
2.635,0.005975544002062424,85.75122538441936,0,60,3.0,2,0.19414647963339662
2.64,0.004598905818663047,85.40160758432508,0,60,3.0,2,0.1859201784547077
2.645,0.0035115256454839104,85.02364997133708,0,60,3.0,2,0.17702705814910774
2.65,0.002660121266303676,84.62291602458168,0,60,3.0,2,0.16759802410780433
2.655,0.0019992692560877024,84.20506795077087,0,60,3.0,2,0.15776630472402042
2.66,0.0014907520044639367,83.77573591248671,0,60,3.0,2,0.147664374411452
2.665,0.0011028178277539807,83.34039544429893,0,60,3.0,2,0.137421069277622
2.67,0.0008094059938923333,82.90425663486596,0,60,3.0,2,0.1271589796439049
2.675,0.0005893771793717645,82.47216798110777,0,60,3.0,2,0.11699218779077114
2.68,0.0004257792353490551,82.04853706370281,0,60,3.0,2,0.10702440149888964
2.685,0.0003051686392901525,81.63726939449548,0,60,3.0,2,0.09734751516459944
2.69,0.00021699992642659966,81.2417259881692,0,60,3.0,2,0.08804061148633396
2.695,0.00015308884054097838,80.8646994518398,0,60,3.0,2,0.07916939886681876
2.7,0.00010714989329311098,80.50840770089148,0,60,3.0,2,0.0707860635503878
2.705,7.440535854020571e-05,80.17450382440545,0,60,3.0,2,0.06292950175071643
2.71,5.1260276743925106e-05,79.86410015805667,0,60,3.0,2,0.055625886071921704
2.715,3.503659887882241e-05,79.57780428725738,0,60,3.0,2,0.0488895126413501
2.72,2.375894748103639e-05,79.31576450138492,0,60,3.0,2,0.04272387062082163
2.725,1.5984413869232557e-05,79.07772214650204,0,60,3.0,2,0.037122874035342125
2.73,1.0669166579899869e-05,78.86306836805602,0,60,3.0,2,0.03207219689543576
2.735,7.06526633560511e-06,78.6709028806394,0,60,3.0,2,0.027550656015044778
2.74,4.641847214699205e-06,78.5000926295495,0,60,3.0,2,0.023531591283517627
2.745,3.025641074479182e-06,78.34932849723454,0,60,3.0,2,0.0199841999349303
2.75,1.9566278676921314e-06,78.21717853497664,0,60,3.0,2,0.01687478905827387
2.755,1.2553456560008793e-06,78.10213654545474,0,60,3.0,2,0.014167918716582134
2.76,7.990660428214668e-07,78.00266518625371,0,60,3.0,2,0.011827416147146068
2.765,5.046221251618276e-07,77.91723309183077,0,60,3.0,2,0.009817249219547448
2.77,3.1616527078858815e-07,77.84434580911395,0,60,3.0,2,0.008102254332092851
2.775,1.9652884407760343e-07,77.78257060052039,0,60,3.0,2,0.006648720012244399
2.78,1.2120002189836396e-07,77.73055538198753,0,60,3.0,2,0.005424832517353613
2.785,7.415549848886236e-08,77.68704223011872,0,60,3.0,2,0.0044009936498522455
2.79,4.501406988770349e-08,77.65087601213253,0,60,3.0,2,0.003550023814883014
2.795,0.0,77.62100876770332,0,60,3.0,2,0.00284726512243096
2.8,0.0,77.59650050750213,0,60,3.0,2,0.002270600176520662
2.805,0.0,77.57651709501268,0,60,3.0,2,0.001800402235592374
2.81,0.0,77.56032585238711,0,60,3.0,2,0.001419431820873155
2.815,0.0,77.547289484281,0,60,3.0,2,0.0011126937477881176
2.82,0.0,77.5368588520975,0,60,3.0,2,0.0008672671081763597
2.825,0.0,77.52856506068116,0,60,3.0,2,0.0006721190748508246
2.83,0.0,77.52201124528382,0,60,3.0,2,0.0005179116537369603
2.835,0.0,77.51686437276233,0,60,3.0,2,0.00039680877087829795
2.84,0.0,77.51284730072327,0,60,3.0,2,0.00030228942878272175
2.845,0.0,77.50973127407018,0,60,3.0,2,0.00022897115459239318
2.85,0.0,77.50732898167006,0,60,3.0,2,0.000172446627530743
2.855,0.0,77.50548824744804,0,60,3.0,2,0.00012913523407158156
2.86,0.0,77.50408639034983,0,60,3.0,2,9.615036117238293e-05
2.865,0.0,77.50302525601475,0,60,3.0,2,7.118249446474532e-05
2.87,0.0,77.50222689906738,0,60,3.0,2,5.2397625114843e-05
2.875,0.0,77.50162987782451,0,60,3.0,2,3.835006645912846e-05
2.88,0.0,77.50118611196181,0,60,3.0,2,2.7908516748579237e-05
2.885,0.0,77.50085824728407,0,60,3.0,2,2.019405374285805e-05
2.89,0.0,77.50061746921084,0,60,3.0,2,1.4528687313820816e-05
2.895,0.0,77.5004417070119,0,60,3.0,2,1.0393106162395911e-05
2.9,0.0,77.50031417338934,0,60,3.0,2,7.392315043328862e-06
2.905,0.0,77.50022218800947,0,60,3.0,2,5.227953164087333e-06
2.91,0.0,77.50015623846248,0,60,3.0,2,3.6761991171876133e-06
2.915,0.0,77.50010923741436,0,60,3.0,2,2.570292102679078e-06
2.92,0.0,77.50007594006851,0,60,3.0,2,1.7868251414738017e-06
2.925,0.0,77.50005249122094,0,60,3.0,2,1.2350875515628158e-06
2.93,0.0,77.50003607600858,0,60,3.0,2,8.488472608004325e-07
2.935,0.001684486749771458,77.50002465280872,0,60,3.0,2,5.80066087503142e-07
2.94,0.003097557930867117,77.50001675060308,0,60,3.0,2,3.9413183719047726e-07
2.945,0.005475106668887023,77.50001131646036,0,60,3.0,2,2.6626965550616765e-07
2.95,0.00930222931468658,77.50000760163272,0,60,3.0,2,1.7886194628398002e-07
2.955,0.01519157517868857,77.5000050771416,0,60,3.0,2,1.194621551589722e-07
2.96,0.023847336626128316,77.50000337169115,0,60,3.0,2,7.93339094183038e-08
2.965,0.0359830743700859,77.50000222634475,0,60,3.0,2,5.238458229809219e-08
2.97,0.05218887796857759,77.50000146168287,0,60,3.0,2,3.439253813506666e-08
2.975,0.0727577001223134,77.50000095417937,0,60,3.0,2,2.2451279298419488e-08
2.98,0.0974992498694751,77.50000061933126,0,60,3.0,2,1.4572500236574663e-08
2.985,0.12558706050443358,77.50000039969811,0,60,3.0,2,9.404661394749863e-09
2.99,0.15549263588878245,77.50000025648225,0,60,3.0,2,6.034876525304486e-09
2.995,0.1850529723539114,77.50000016364345,0,60,3.0,2,3.850434094441452e-09
3.0,0.21169159439317053,77.50000010381405,0,60,3.0,2,2.442683420239893e-09
3.005,0.23277292922115492,77.50000006548316,0,60,3.0,2,1.5407803242423516e-09
3.01,0.24602692519491282,77.5000000410695,0,60,3.0,2,9.663411299912053e-10
3.015,0.24995056064839283,77.50000002561092,0,60,3.0,2,6.026097895194065e-10
3.02,0.24408826520424054,77.50000001587988,0,60,3.0,2,3.736441639750196e-10
3.025,0.22911894216865275,77.50000000979006,0,60,3.0,2,2.3035427682985114e-10
3.03,0.20672661788705934,77.50000000600122,0,60,3.0,2,1.412050711651853e-10
3.035,0.17928878030241233,77.50000000365772,0,60,3.0,2,8.606394551273243e-11
3.04,0.14946211903866036,77.50000000221664,0,60,3.0,2,5.215617741615621e-11
3.045,0.1197651512573837,77.50000000133566,0,60,3.0,2,3.142738879593226e-11
3.05,0.09224675744988023,77.50000000080023,0,60,3.0,2,1.8828880938064472e-11
3.055,0.06829565320281596,77.5000000004767,0,60,3.0,2,1.121654403344591e-11
3.06,0.04860224607515734,77.50000000028236,0,60,3.0,2,6.643658172619967e-12
3.065,0.03324612389699793,77.5000000001663,0,60,3.0,2,3.9128334559363255e-12
3.07,0.021859876340472782,77.50000000009737,0,60,3.0,2,2.2911241531426853e-12
3.075,0.01381595518554205,77.5000000000567,0,60,3.0,2,1.3341484779683763e-12
3.08,0.008394095110402422,77.50000000003283,0,60,3.0,2,7.724017504027442e-13
3.085,0.0049052535271608,77.50000000001889,0,60,3.0,2,4.443817862706697e-13
3.09,0.0027671663551903634,77.50000000001081,0,60,3.0,2,2.5445789266514647e-13
3.095,0.0015425553464444616,77.50000000000615,0,60,3.0,2,1.4478353156899923e-13
3.1,0.0009638206637011801,77.50000000000348,0,60,3.0,2,8.192139776998802e-14
3.105,0.0009804935156568228,77.50000000000196,0,60,3.0,2,4.614348119289121e-14
3.11,0.0018793744894085216,77.5000000000011,0,60,3.0,2,2.5746725013424807e-14
3.115,0.004535525206900863,77.50000000000061,0,60,3.0,2,1.4378041241263203e-14
3.12,0.010832767979632273,77.50000000000034,0,60,3.0,2,8.024953250937602e-15
3.125,0.024208003392322392,77.50000000000018,0,60,3.0,2,4.3468496775912015e-15
3.13,0.0500971897335304,77.5000000000001,0,60,3.0,2,2.3406113648568006e-15
3.135,0.09582894921774403,77.50000000000006,0,60,3.0,2,1.3374922084896003e-15
3.14,0.16937896721820658,77.50000000000003,0,60,3.0,2,6.687461042448002e-16
3.145,0.27661303008991756,77.50000000000001,0,60,3.0,2,3.343730521224001e-16
3.15,0.4173782800009149,77.50000000000001,0,60,3.0,2,3.343730521224001e-16
3.155,0.5818720934538056,77.5,0,60,3.0,2,0.0
3.16,0.7494718801585675,77.5,0,60,3.0,2,0.0
3.165,0.891813020752378,77.5,0,60,3.0,2,0.0
3.17,0.9800361632936612,77.5,0,60,3.0,2,0.0
3.175,0.993574479225126,77.50000249091008,1,60,3.0,2,5.860964887795169e-08
3.18,0.9263438449375362,77.50000365529273,0,60,3.0,2,8.600688776074522e-08
3.185,0.7873015962290536,77.50000545050584,0,60,3.0,2,1.2824719620392204e-07
3.19,0.5959516244629897,77.50000832248891,0,60,3.0,2,1.958232684608126e-07
3.195,0.376910120078773,77.5000131150604,0,60,3.0,2,3.08589656416349e-07
3.2,0.15739335672107918,77.50002145639843,0,60,3.0,2,5.048564336153932e-07
3.205,-0.033361226269301235,77.50003651110448,0,60,3.0,2,8.59084811361968e-07
3.21,-0.1680180840843834,77.50006441578698,0,60,3.0,2,1.515665576000495e-06
3.215,-0.23069703190837854,77.5001169607709,0,60,3.0,2,2.752018138728411e-06
3.22,-0.22587267821131068,77.50021648421797,0,60,3.0,2,5.093746305232451e-06
3.225,-0.17718181630665902,77.5004045870406,0,60,3.0,2,9.519695073081761e-06
3.23,-0.11494332516451301,77.50075725854778,0,60,3.0,2,1.7817848183032018e-05
3.235,-0.061810214049552864,77.50141043863027,0,60,3.0,2,3.318679130054935e-05
3.24,-0.026546104631500547,77.50260204002304,0,60,3.0,2,6.122447113023768e-05
3.245,-0.00719600351942686,77.50473907295789,0,60,3.0,2,0.00011150759900916081
3.25,0.0022072757983807078,77.50850169852586,0,60,3.0,2,0.00020003996531439791
3.255,0.006917199873730717,77.51499952172819,0,60,3.0,2,0.00035292992301613003
3.26,0.01004859748264829,77.52599863379258,0,60,3.0,2,0.0006117325598254678
3.265,0.013037082251128167,77.54423980586739,0,60,3.0,2,0.0010409366086445088
3.27,0.01645163937690478,77.57386730132427,0,60,3.0,2,0.0017380541488063606
3.275,0.020526639934696615,77.62098202374749,0,60,3.0,2,0.0028466358528820524
3.28,0.02539629541761738,77.69431990724128,0,60,3.0,2,0.004572233111559519
3.285,0.031171612185577933,77.80603453100248,0,60,3.0,2,0.007200812494176034
3.29,0.03795853426638131,77.97253075261337,0,60,3.0,2,0.011118370649726263
3.295,0.0458588961882057,78.21525439314604,0,60,3.0,2,0.016829515132848
3.3,0.054966995891435555,78.56129519018253,0,60,3.0,2,0.024971651533706684
3.305,0.06536491004445595,79.04361347858254,0,60,3.0,2,0.03632031714311866
3.31,0.07711726085088699,79.70066624169463,0,60,3.0,2,0.0517803821575208
3.315,0.09026570629555215,80.57519909640071,0,60,3.0,2,0.07235762579766375
3.32,0.10482339848670268,81.71200201951845,0,60,3.0,2,0.09910592987102237
3.325,0.12076968927580028,83.15451013307728,0,60,3.0,2,0.1330472972488772
3.33,0.13804539501007884,84.94027163555994,0,60,3.0,2,0.17506521495435148
3.335,0.15654895051787066,87.09549676627523,0,60,3.0,2,0.2257763945005937
3.34,0.17613378141900526,89.62912412373502,0,60,3.0,2,0.28539115585258884
3.345,0.19660720058055794,92.5270589553072,0,60,3.0,2,0.35357785777193407
3.35,0.21773108748496234,95.74740666727303,0,60,3.0,2,0.4293507451123065
3.355,0.23922453870058807,99.21759520481373,0,60,3.0,2,0.5110022401132643
3.36,0.2607685857914563,102.83421142087394,0,60,3.0,2,0.5960990922558574
3.365,0.2820129681603682,106.46614818698332,0,60,3.0,2,0.6815564279290193
3.37,0.30258482867153996,109.96127954433057,0,60,3.0,2,0.7637948128077781
3.375,0.3220990771751686,113.15639356607664,0,60,3.0,2,0.8389739662606269
3.38,0.3401700499968971,115.88959064107738,0,60,3.0,2,0.9032844856724088
3.385,0.3564239911198326,118.01389169895273,0,60,3.0,2,0.9532680399753585
3.39,0.3705118017738417,119.410490476039,0,60,3.0,2,0.9861291876715059
3.395,0.3821214567925213,120.0,0,60,3.0,2,1.0
3.4,0.39098947374066967,119.75022081009982,0,60,3.0,2,0.9941228425905839
3.405,0.3969108472035567,118.6793817824884,0,60,3.0,2,0.9689266301761977
3.41,0.3997469255491936,116.8544086743712,0,60,3.0,2,0.925986086455793
3.415,0.3994308076379137,114.38445764205353,0,60,3.0,2,0.8678695915777302
3.42,0.3959699661768434,111.4105914646396,0,60,3.0,2,0.7978962697562257
3.425,0.38944595408114946,108.092964337062,0,60,3.0,2,0.7198344549896941
3.43,0.38001120995358023,104.59713830668103,0,60,3.0,2,0.6375797248630831
3.435,0.3678831374098315,101.08114952528587,0,60,3.0,2,0.5548505770655497
3.44,0.35333577933796634,97.68469553547838,0,60,3.0,2,0.47493401259949136
3.445,0.33668953221163944,94.52138926253632,0,60,3.0,2,0.4005032767655604
3.45,0.3182994390982644,91.67451124406605,0,60,3.0,2,0.3335179116250836
3.455,0.29854265738230645,89.19618445920257,0,60,3.0,2,0.27520434021653106
3.46,0.2778057157821067,87.10947729642702,0,60,3.0,2,0.2261053481512239
3.465,0.2564721553719815,85.41266290603726,0,60,3.0,2,0.18618030367146482
3.47,0.23491109433464996,84.0847465315492,0,60,3.0,2,0.15493521250704
3.475,0.21346717185309805,83.09140376504037,0,60,3.0,2,0.13156244153036162
3.48,0.19245222055656455,82.39061617734227,0,60,3.0,2,0.11507332181981804
3.485,0.17213889801761392,81.93749902440788,0,60,3.0,2,0.10441174175077375
3.49,0.15275638501270183,81.6880412586388,0,60,3.0,2,0.09854214726208953
3.495,0.13448814019607322,81.60168221087925,0,60,3.0,2,0.09651016966774699
3.5,0.11747159495449566,81.64280708827496,0,60,3.0,2,0.09747781384176385
3.505,0.10179958433370105,81.78134447342421,0,60,3.0,2,0.10073751702174617
3.51,0.08752324394101413,81.99269526843723,0,60,3.0,2,0.10571047690440544
3.515,0.07465606047174059,82.25722428467466,0,60,3.0,2,0.11193468905116855
3.52,0.0631787448609295,82.55951712584407,0,60,3.0,2,0.1190474617845663
3.525,0.05304460019959574,82.88756048226784,0,60,3.0,2,0.1267661289945375
3.53,0.044185078305849994,83.23195537403713,0,60,3.0,2,0.1348695382126383
3.535,0.03651525513023255,83.58522855117518,0,60,3.0,2,0.14318184826294536
3.54,0.0299390014708757,83.9412717493581,0,60,3.0,2,0.15155933527901397
3.545,0.024353677220580638,84.29491327452271,0,60,3.0,2,0.1598803123417109
3.55,0.01965423034339045,84.64161076659579,0,60,3.0,2,0.16803790039048916
3.555,0.015736632374757337,84.97724611571226,0,60,3.0,2,0.17593520272264146
3.56,0.012500627640593535,85.29800113485715,0,60,3.0,2,0.18348237964369754
3.565,0.009851811652115898,85.60029363888935,0,60,3.0,2,0.1905951444444554
3.57,0.007703084175428559,85.8807563729664,0,60,3.0,2,0.19719426759920947
3.575,0.005975544002062424,86.13624460912875,0,60,3.0,2,0.20320575550891182
3.58,0.004598905818663047,86.3638614840661,0,60,3.0,2,0.20856144668390839
3.585,0.0035115256454839104,86.56099293649405,0,60,3.0,2,0.2131998337998599
3.59,0.002660121266303676,86.72534631243832,0,60,3.0,2,0.21706697205737222
3.595,0.0019992692560877024,86.85498837376346,0,60,3.0,2,0.22011737350031674
3.6,0.0014907520044639367,86.94837966636418,0,60,3.0,2,0.22231481567915706
3.605,0.0011028178277539807,87.00440309216134,0,60,3.0,2,0.223633013933208
3.61,0.0008094059938923333,87.02238518526985,0,60,3.0,2,0.22405612200634953
3.615,0.0005893771793717645,87.00210909749279,0,60,3.0,3,0.2235790375880657
3.62,0.0004257792353490551,86.94381870816818,0,60,3.0,3,0.2222074990157219
3.625,0.0003051686392901525,86.8482136243393,0,60,3.0,3,0.21995796763151282
3.63,0.00021699992642659966,86.71643514938049,0,60,3.0,3,0.21685729763248204
3.635,0.00015308884054097838,86.55004358063138,0,60,3.0,3,0.21294220189720897
3.64,0.00010714989329311098,86.35098745120969,0,60,3.0,3,0.2082585282637574
3.645,7.440535854020571e-05,86.12156555588956,0,60,3.0,3,0.20286036602093083
3.65,5.1260276743925106e-05,85.86438279180936,0,60,3.0,3,0.19680900686610264
3.655,3.503659887882241e-05,85.58230099753024,0,60,3.0,3,0.1901717881771821
3.66,2.375894748103639e-05,85.27838608494866,0,60,3.0,3,0.18302084905761562
3.665,1.5984413869232557e-05,84.95585282533919,0,60,3.0,3,0.1754318311844516
3.67,1.0669166579899869e-05,84.61800867247739,0,60,3.0,3,0.16748255699946793
3.675,7.06526633560511e-06,84.26819798314641,0,60,3.0,3,0.15925171725050372
3.68,4.641847214699205e-06,83.90974793079378,0,60,3.0,3,0.15081759837161846
3.685,3.025641074479182e-06,83.54591730562811,0,60,3.0,3,0.14225687777948492
3.69,1.9566278676921314e-06,83.17984925928644,0,60,3.0,3,0.1336435119832104
3.695,1.2553456560008793e-06,82.81452889065078,0,60,3.0,3,0.1250477386035477
3.7,7.990660428214668e-07,82.45274638845345,0,60,3.0,3,0.11653520914008114
3.705,5.046221251618276e-07,82.0970662533756,0,60,3.0,3,0.10816626478530826
3.71,3.1616527078858815e-07,81.74980292484675,0,60,3.0,3,0.09999536293757053
3.715,1.9652884407760343e-07,81.41300294285975,0,60,3.0,3,0.0920706574790529
3.72,1.2120002189836396e-07,81.08843358942991,0,60,3.0,3,0.08443373151599791
3.725,7.415549848886236e-08,80.77757778364828,0,60,3.0,3,0.07711947726231254
3.73,4.501406988770349e-08,80.48163485341644,0,60,3.0,3,0.07015611419803383
3.735,0.0,80.20152667958791,0,60,3.0,3,0.06356533363736269
3.74,0.0,79.93790860687182,0,60,3.0,3,0.057362555455807415
3.745,0.0,79.69118444176952,0,60,3.0,3,0.05155728098281229
3.75,0.0,79.46152481115429,0,60,3.0,3,0.04615352496833626
3.755,0.0,79.24888813494695,0,60,3.0,3,0.04115030905757535
3.76,0.0,79.05304347084693,0,60,3.0,3,0.03654219931404541
3.765,0.0,78.87359451564966,0,60,3.0,3,0.032319870956462514
3.77,0.0,78.71000409314526,0,60,3.0,3,0.02847068454459431
3.775,0.0,78.56161851939557,0,60,3.0,3,0.024979259279895666
3.78,0.0,78.42769130857619,0,60,3.0,3,0.02182803079002791
3.785,0.0,78.3074057627813,0,60,3.0,3,0.01899778265367766
3.79,0.0,78.19989607359119,0,60,3.0,3,0.01646814290802802
3.795,0.0,78.1042666484454,0,60,3.0,3,0.014218038786950661
3.8,0.0,78.01960945796858,0,60,3.0,3,0.012226104893378466
3.805,0.0,77.94501927884289,0,60,3.0,3,0.010471041855126874
3.81,0.0,77.87960677858723,0,60,3.0,3,0.008931924202052495
3.815,0.0,77.82250945218446,0,60,3.0,3,0.007588457698457941
3.82,0.0,77.77290047489821,0,60,3.0,3,0.006421187644663713
3.825,0.0,77.72999558032419,0,60,3.0,3,0.005411660713510253
3.83,0.0,77.69305810764347,0,60,3.0,3,0.004542543709258031
3.835,0.0,77.66140238747688,0,60,3.0,3,0.003797703234750195
3.84,0.0,77.63439565227738,0,60,3.0,3,0.003162250641820626
3.845,0.0,77.61145866567203,0,60,3.0,3,0.0026225568393419296
3.85,0.0,77.59206526657569,0,60,3.0,3,0.002166241566486767
3.855,0.0,77.57574101934111,0,60,3.0,3,0.0017821416315555057
3.86,0.0,77.56206115182063,0,60,3.0,3,0.001460262395779503
3.865,0.0,77.55064795011592,0,60,3.0,3,0.001191716473315677
3.87,0.0,77.541167763051,0,60,3.0,3,0.0009686532482589882
3.875,0.0,77.53332775199854,0,60,3.0,3,0.0007841823999656834
3.88,0.0,77.52687250348372,0,60,3.0,3,0.0006322941996168485
3.885,0.0,77.52158060372567,0,60,3.0,3,0.0005077789111921635
3.89,0.0,77.51726125655483,0,60,3.0,3,0.000406147213054871
3.895,0.0,77.51375100944183,0,60,3.0,3,0.00032355316333725087
3.9,0.0,77.51091063703373,0,60,3.0,3,0.00025672087138191806
3.905,0.0,77.50862221784816,0,60,3.0,3,0.00020287571407426612
3.91,0.0,77.50678642775243,0,60,3.0,3,0.00015968065299837102
3.915,0.0,77.50532006359457,0,60,3.0,3,0.00012517796693099198
3.92,0.0,77.50415380182476,0,60,3.0,3,9.773651352368099e-05
3.925,0.0,77.50323019006501,0,60,3.0,3,7.600447211790892e-05
3.93,0.0,77.50250186422241,0,60,3.0,3,5.8867393468464046e-05
3.935,0.0,77.50192997974605,0,60,3.0,3,4.541128814239795e-05
3.94,0.0,77.5014828428295,0,60,3.0,3,3.489041951772432e-05
3.945,0.0,77.50113472558394,0,60,3.0,3,2.669942550442904e-05
3.95,0.0,77.50086484828252,0,60,3.0,3,2.0349371353364296e-05
3.955,0.0,77.50065651153805,0,60,3.0,3,1.5447330307150717e-05
3.96,0.0,77.50049636157529,0,60,3.0,3,1.1679095889108151e-05
3.965,0.0,77.50037377246143,0,60,3.0,3,8.794646151286276e-06
3.97,0.0,77.50028033014532,0,60,3.0,3,6.59600341919031e-06
3.975,0.0,77.50020940433065,0,60,3.0,3,4.927160721107986e-06
3.98,0.0,77.50015579548628,0,60,3.0,3,3.6657761477406038e-06
3.985,0.0,77.50011544561416,0,60,3.0,3,2.7163673919136164e-06
3.99,0.0,77.50008520270073,0,60,3.0,3,2.0047694289694524e-06
3.995,0.0,77.50006263003277,0,60,3.0,3,1.4736478299389146e-06
4.0,0.0,77.50004585273783,0,60,3.0,3,1.078887948872708e-06
4.005,0.0,77.50003343499485,0,60,3.0,3,7.867057611158945e-07
4.01,0.0,77.50002428234383,0,60,3.0,3,5.713492665857784e-07
4.015,0.0,77.50001756439936,0,60,3.0,3,4.132799848749153e-07
4.02,0.0,77.5000126540445,0,60,3.0,3,2.977422234514105e-07
4.025,0.0,77.50000907985194,0,60,3.0,3,2.136435749461645e-07
4.03,0.0,77.50000648905613,0,60,3.0,3,1.5268367372514416e-07
4.035,0.0,77.50000461889034,0,60,3.0,3,1.0867977279945882e-07
4.04,0.0,77.50000327451608,0,60,3.0,3,7.704743706306224e-08
4.045,0.0,77.5000023121178,0,60,3.0,3,5.4402771772455545e-08
4.05,0.0,77.50000162602097,0,60,3.0,3,3.8259317053041955e-08
4.055,0.001684486749771458,77.50000113892646,0,60,3.0,3,2.6798269747065635e-08
4.06,0.003097557930867117,77.50000079454514,0,60,3.0,3,1.8695179866935016e-08
4.065,0.005475106668887023,77.50000055207087,0,60,3.0,3,1.2989902884060831e-08
4.07,0.00930222931468658,77.50000038205373,0,60,3.0,3,8.989499466385015e-09
4.075,0.01519157517868857,77.50000026333429,0,60,3.0,3,6.196100845473291e-09
4.08,0.023847336626128316,77.50000018077722,0,60,3.0,3,4.253581664670492e-09
4.085,0.0359830743700859,77.50000012360425,0,60,3.0,3,2.9083353451021727e-09
4.09,0.05218887796857759,77.5000000841737,0,60,3.0,3,1.980557793585296e-09
4.095,0.0727577001223134,77.50000005709168,0,60,3.0,3,1.3433337057101786e-09
4.1,0.0974992498694751,77.50000003856759,0,60,3.0,3,9.074727479267441e-10
4.105,0.12558706050443358,77.5000000259493,0,60,3.0,3,6.10571880636545e-10
4.11,0.15549263588878245,77.5000000173893,0,60,3.0,3,4.091599320792525e-10
4.115,0.1850529723539114,77.50000001160625,0,60,3.0,3,2.7308815601025025e-10
4.12,0.21169159439317053,77.50000000771534,0,60,3.0,3,1.8153748308524133e-10
4.125,0.23277292922115492,77.50000000510825,0,60,3.0,3,1.2019407168897006e-10
4.13,0.24602692519491282,77.50000000336854,0,60,3.0,3,7.925978827509371e-11
4.135,0.24995056064839283,77.5000000022124,0,60,3.0,3,5.2056534246623733e-11
4.14,0.24408826520424054,77.50000000144725,0,60,3.0,3,3.405288600119735e-11
4.145,0.22911894216865275,77.5000000009429,0,60,3.0,3,2.218598638137337e-11
4.15,0.20672661788705934,77.50000000061186,0,60,3.0,3,1.4396766132182059e-11
4.155,0.17928878030241233,77.50000000039545,0,60,3.0,3,9.304598921410027e-12
4.16,0.14946211903866036,77.50000000025456,0,60,3.0,3,5.989624482668553e-12
4.165,0.1197651512573837,77.5000000001632,0,60,3.0,3,3.839940130573642e-12
4.17,0.09224675744988023,77.50000000010421,0,60,3.0,3,2.4519575912135597e-12
4.175,0.06829565320281596,77.50000000006628,0,60,3.0,3,1.559515915098874e-12
4.18,0.04860224607515734,77.50000000004198,0,60,3.0,3,9.877379959695698e-13
4.185,0.03324612389699793,77.50000000002649,0,60,3.0,3,6.232713691561538e-13
4.19,0.021859876340472782,77.50000000001664,0,60,3.0,3,3.915508440353305e-13
4.195,0.01381595518554205,77.50000000001042,0,60,3.0,3,2.4509544720571925e-13
4.2,0.008394095110402422,77.5000000000065,0,60,3.0,3,1.5280848481993685e-13
4.205,0.0049052535271608,77.50000000000404,0,60,3.0,3,9.496194680276163e-14
4.21,0.0027671663551903634,77.50000000000249,0,60,3.0,3,5.851528412142001e-14
4.215,0.0015425553464444616,77.50000000000153,0,60,3.0,3,3.611228962921921e-14
4.22,0.0009638206637011801,77.50000000000094,0,60,3.0,3,2.2068621440078406e-14
4.225,0.0009804935156568228,77.50000000000057,0,60,3.0,3,1.3374922084896003e-14
4.23,0.0018793744894085216,77.50000000000036,0,60,3.0,3,8.359326303060002e-15
4.235,0.004535525206900863,77.50000000000021,0,60,3.0,3,5.015595781836002e-15
4.24,0.010832767979632273,77.50000000000013,0,60,3.0,3,3.0093574691016007e-15
4.245,0.024208003392322392,77.50000000000007,0,60,3.0,3,1.6718652606120004e-15
4.25,0.0500971897335304,77.50000000000004,0,60,3.0,3,1.0031191563672002e-15
4.255,0.09582894921774403,77.50000000000003,0,60,3.0,3,6.687461042448002e-16
4.26,0.16937896721820658,77.50000000000001,0,60,3.0,3,3.343730521224001e-16
4.265,0.27661303008991756,77.50000000000001,0,60,3.0,3,3.343730521224001e-16
4.27,0.4173782800009149,77.5,0,60,3.0,3,0.0
4.275,0.5818720934538056,77.5,0,60,3.0,3,0.0
4.28,0.7494718801585675,77.5,0,60,3.0,3,0.0
4.285,0.891813020752378,77.5,0,60,3.0,3,0.0
4.29,0.9800361632936612,77.5,0,60,3.0,3,0.0
4.295,0.993574479225126,77.5000024950473,1,60,3.0,3,5.8706995238989134e-08
4.3,0.9263438449375362,77.50000375849318,0,60,3.0,3,8.843513362134057e-08
4.305,0.7873015962290536,77.50000576910975,0,60,3.0,3,1.3574375877985458e-07
4.31,0.5959516244629897,77.50000910888895,0,60,3.0,3,2.1432679873482008e-07
4.315,0.376910120078773,77.50001493160252,0,60,3.0,3,3.5133182403596413e-07
4.32,0.15739335672107918,77.5000255695211,0,60,3.0,3,6.016357905777755e-07
4.325,-0.033361226269301235,77.50004576207117,0,60,3.0,3,1.076754615697235e-06
4.33,-0.1680180840843834,77.50008508819586,0,60,3.0,3,2.002075196702101e-06
4.335,-0.23069703190837854,77.50016266149757,0,60,3.0,3,3.827329354568492e-06
4.34,-0.22587267821131068,77.50031595083036,0,60,3.0,3,7.434137184833055e-06
4.345,-0.17718181630665902,77.50061688523299,0,60,3.0,3,1.4514946658503986e-05
4.35,-0.11494332516451301,77.50120039677721,0,60,3.0,3,2.824463005193887e-05
4.355,-0.061810214049552864,77.50231346534846,0,60,3.0,3,5.443447878740378e-05
4.36,-0.026546104631500547,77.50439671869992,0,60,3.0,3,0.00010345220470405954
4.365,-0.00719600351942686,77.50821569935404,0,60,3.0,3,0.00019331057303622188
4.37,0.0022072757983807078,77.51506467288199,0,60,3.0,3,0.00035446289134095904
4.375,0.006917199873730717,77.52707136715546,0,60,3.0,3,0.0006369733448342926
4.38,0.01004859748264829,77.54763451316305,0,60,3.0,3,0.0011208120744246276
4.385,0.013037082251128167,77.58202471776275,0,60,3.0,3,0.0019299933591235138
4.39,0.01645163937690478,77.63816929854207,0,60,3.0,3,0.0032510423186368717
4.395,0.020526639934696615,77.72761899891924,0,60,3.0,3,0.005355741151040949
4.4,0.02539629541761738,77.86665519753228,0,60,3.0,3,0.008627181118406631
4.405,0.031171612185577933,78.07743861114501,0,60,3.0,3,0.013586790850470888
4.41,0.03795853426638131,78.38902695888922,0,60,3.0,3,0.02091828138562866
4.415,0.0458588961882057,78.83800818984425,0,60,3.0,3,0.03148254564339401
4.42,0.054966995891435555,79.46842379043065,0,60,3.0,3,0.046315853892485846
4.425,0.06536491004445595,80.33061667635269,0,60,3.0,3,0.06660274532594565
4.43,0.07711726085088699,81.478657744938,0,60,3.0,3,0.09361547635148246
4.435,0.09026570629555215,82.96611002699977,0,60,3.0,3,0.12861435357646522
4.44,0.10482339848670268,84.84009485117352,0,60,3.0,3,0.17270811414525924
4.445,0.12076968927580028,87.13392597640826,0,60,3.0,3,0.22668061120960623
4.45,0.13804539501007884,89.85894336803423,0,60,3.0,3,0.2907986674831584
4.455,0.15654895051787066,92.99654686910407,0,60,3.0,3,0.3646246322142133
4.46,0.17613378141900526,96.4917169559891,0,60,3.0,3,0.44686392837621425
4.465,0.19660720058055794,100.24942305018932,0,60,3.0,3,0.5352805423573957
4.47,0.21773108748496234,104.13518312180872,0,60,3.0,3,0.6267101911013817
4.475,0.23922453870058807,107.9806163769576,0,60,3.0,3,0.7171909735754729
4.48,0.2607685857914563,111.59415000783865,0,60,3.0,3,0.8022152943020858
4.485,0.2820129681603682,114.77619649389209,0,60,3.0,3,0.8770869763268726
4.49,0.30258482867153996,117.33726280597426,0,60,3.0,3,0.9373473601405709
4.495,0.3220990771751686,119.11676822855112,0,60,3.0,3,0.9792180759659088
4.5,0.3401700499968971,120.0,0,60,3.0,3,1.0
4.505,0.3564239911198326,119.9307331115752,0,60,3.0,3,0.9983701908605928
4.51,0.3705118017738417,118.9175974986838,0,60,3.0,3,0.9745317058513836
4.515,0.3821214567925213,117.03320410260207,0,60,3.0,3,0.930193037708284
4.52,0.39098947374066967,114.40616519711772,0,60,3.0,3,0.8683803575792404
4.525,0.3969108472035567,111.20724128607212,0,60,3.0,3,0.7931115596722852
4.53,0.3997469255491936,107.63170063411125,0,60,3.0,3,0.708981191390853
4.535,0.3994308076379137,103.88043014450193,0,60,3.0,3,0.6207160034000454
4.54,0.3959699661768434,100.14232342849641,0,60,3.0,3,0.5327605512587391
4.545,0.38944595408114946,96.580032392726,0,60,3.0,3,0.4489419386523764
4.55,0.38001120995358023,93.32042761436257,0,60,3.0,3,0.3722453556320605
4.555,0.3678831374098315,90.45024438360306,0,60,3.0,3,0.3047116325553662
4.56,0.35333577933796634,88.0165735885304,0,60,3.0,3,0.2474487903183625
4.565,0.33668953221163944,86.03123100878861,0,60,3.0,3,0.20073484726561433
4.57,0.3182994390982644,84.47768427158562,0,60,3.0,3,0.1641808063902498
4.575,0.29854265738230645,83.31914425655404,0,60,3.0,3,0.13692104133068328
4.58,0.2778057157821067,82.50659004090923,0,60,3.0,3,0.11780211860962896
4.585,0.2564721553719815,81.98581116195565,0,60,3.0,3,0.10554849792836829
4.59,0.23491109433464996,81.70292592125253,0,60,3.0,3,0.09889237461770656
4.595,0.21346717185309805,81.60818956190883,0,60,3.0,3,0.09666328380961953
4.6,0.19245222055656455,81.65818681746455,0,60,3.0,3,0.09783968982269538
4.605,0.17213889801761392,81.81668455993696,0,60,3.0,3,0.10156904846910493
4.61,0.15275638501270183,82.05450301165449,0,60,3.0,3,0.10716477674481151
4.615,0.13448814019607322,82.34876686016689,0,60,3.0,3,0.11408863200392683
4.62,0.11747159495449566,82.68184745982325,0,60,3.0,3,0.12192582258407636
4.625,0.10179958433370105,83.04023106346655,0,60,3.0,3,0.1303583779639188
4.63,0.08752324394101413,83.41346746591435,0,60,3.0,3,0.1391404109626906
4.635,0.07465606047174059,83.79328285470342,0,60,3.0,3,0.14807724364008049
4.64,0.0631787448609295,84.1728870216122,0,60,3.0,3,0.15700910639087523
4.645,0.05304460019959574,84.5464696298717,0,60,3.0,3,0.16579928540874575
4.65,0.044185078305849994,84.90886059231357,0,60,3.0,3,0.17432613158384877
4.655,0.03651525513023255,85.25532179626946,0,60,3.0,3,0.1824781599122225
4.66,0.0299390014708757,85.58143722891543,0,60,3.0,3,0.1901514642097749
4.665,0.024353677220580638,85.88307248935271,0,60,3.0,3,0.19724876445535797
4.67,0.01965423034339045,86.15638018885323,0,60,3.0,3,0.20367953385537022
4.675,0.015736632374757337,86.39783327928087,0,60,3.0,3,0.20936078304190292
4.68,0.012500627640593535,86.60427312857465,0,60,3.0,3,0.21421819126057992
4.685,0.009851811652115898,86.77296292498974,0,60,3.0,3,0.2181873629409351
4.69,0.007703084175428559,86.90163978459339,0,60,3.0,3,0.22121505375513847
4.695,0.005975544002062424,86.9885609412461,0,60,3.0,3,0.22326025744108485
4.7,0.004598905818663047,87.0325408276639,0,60,3.0,3,0.22429507829797396
4.705,0.0035115256454839104,87.03297689853875,0,60,3.0,3,0.22430533878914702
4.71,0.002660121266303676,86.98986284516437,0,60,3.0,3,0.22329089047445572
4.715,0.0019992692560877024,86.90378850197658,0,60,3.0,3,0.2212656118112136
4.72,0.0014907520044639367,86.77592630638017,0,60,3.0,3,0.21825708956188639
4.725,0.0011028178277539807,86.60800467318072,0,60,3.0,3,0.2143059923101345
4.73,0.0008094059938923333,86.40226909402966,0,60,3.0,3,0.20946515515363912
4.735,0.0005893771793717645,86.1614321695787,0,60,3.0,3,0.2037984039900871
4.74,0.0004257792353490551,85.88861412108902,0,60,3.0,3,0.19737915579032989
4.745,0.0003051686392901525,85.58727560093486,0,60,3.0,3,0.19028883766905552
4.75,0.00021699992642659966,85.26114482043914,0,60,3.0,3,0.18261517224562687
4.755,0.00015308884054097838,84.91414113369896,0,60,3.0,3,0.17445037961644616
4.76,0.00010714989329311098,84.55029725548142,0,60,3.0,3,0.16588934718779824
4.765,7.440535854020571e-05,84.17368225126495,0,60,3.0,3,0.15702781767682233
4.77,5.1260276743925106e-05,83.78832732279227,0,60,3.0,3,0.1479606428892299
4.775,3.503659887882241e-05,83.3981562308963,0,60,3.0,3,0.13878014660932483
4.78,2.375894748103639e-05,83.00692195925262,0,60,3.0,3,0.12957463433535582
4.785,1.5984413869232557e-05,82.6181509404913,0,60,3.0,3,0.12042708095273658
4.79,1.0669166579899869e-05,82.23509585343183,0,60,3.0,3,0.11141402008074892
4.795,7.06526633560511e-06,81.86069767131502,0,60,3.0,3,0.10260465108976526
4.8,4.641847214699205e-06,81.49755730985156,0,60,3.0,3,0.09406017199650725
4.805,3.025641074479182e-06,81.14791690391355,0,60,3.0,3,0.08583333891561304
4.81,1.9566278676921314e-06,80.81365044457142,0,60,3.0,3,0.0779682457546217
4.815,1.2553456560008793e-06,80.49626324385221,0,60,3.0,3,0.07050031162005205
4.82,7.990660428214668e-07,80.19689947078584,0,60,3.0,4,0.06345645813613734
4.825,5.046221251618276e-07,79.91635682432248,0,60,3.0,4,0.056855454689940646
4.83,3.1616527078858815e-07,79.65510727941233,0,60,3.0,4,0.050708406574407866
4.835,1.9652884407760343e-07,79.41332276242515,0,60,3.0,4,0.045019359115885955
4.84,1.2120002189836396e-07,79.19090457947316,0,60,3.0,4,0.03978599010525072
4.845,7.415549848886236e-08,78.98751543252128,0,60,3.0,4,0.035000363118147707
4.85,4.501406988770349e-08,78.80261290834281,0,60,3.0,4,0.030649715490419033
4.855,0.0,78.63548340820051,0,60,3.0,4,0.026717256663541508
4.86,0.0,78.4852755946948,0,60,3.0,4,0.023182955169289365
4.865,0.0,78.35103255931459,0,60,3.0,4,0.020024295513284454
4.87,0.0,78.23172205271597,0,60,3.0,4,0.017216989475669794
4.875,0.0,78.12626426290419,0,60,3.0,4,0.01473562971539262
4.88,0.0,78.03355676823388,0,60,3.0,4,0.012554276899620685
4.885,0.0,77.95249642725605,0,60,3.0,4,0.010646974758965906
4.89,0.0,77.88199809170625,0,60,3.0,4,0.008988190393088256
4.895,0.0,77.82101013916764,0,60,3.0,4,0.007553179745120949
4.9,0.0,77.76852691602545,0,60,3.0,4,0.006318280377069427
4.905,0.0,77.72359825811775,0,60,3.0,4,0.005261135485123452
4.91,0.0,77.68533631573966,0,60,3.0,4,0.004360854487992035
4.915,0.0,77.65291995190405,0,60,3.0,4,0.003598116515389486
4.92,0.0,77.62559700915529,0,60,3.0,4,0.0029552237448302442
4.925,0.0,77.60268475239863,0,60,3.0,4,0.002416111821144247
4.93,0.0,77.58356879509424,0,60,3.0,4,0.00196632459045264
4.935,0.0,77.56770080589084,0,60,3.0,4,0.0015929601386079305
4.94,0.0,77.55459527451477,0,60,3.0,4,0.0012845946944651133
4.945,0.0,77.54382559159987,0,60,3.0,4,0.0010311903905851657
4.95,0.0,77.53501966911314,0,60,3.0,4,0.0008239922144268268
4.955,0.0,77.52785529786952,0,60,3.0,4,0.00065541877340051
4.96,0.0,77.52205540785289,0,60,3.0,4,0.000518950773009157
4.965,0.0,77.51738336692351,0,60,3.0,4,0.00040902039820025495
4.97,0.0,77.51363842497241,0,60,3.0,4,0.00032090411699795473
4.975,0.0,77.51065138439854,0,60,3.0,4,0.00025062080937747103
4.98,0.0,77.50828055441168,0,60,3.0,4,0.00019483657439255854
4.985,0.0,77.5064080263656,0,60,3.0,4,0.00015077709095541702
4.99,0.0,77.50493629018625,0,60,3.0,4,0.00011614800438237313
4.995,0.0,77.50378519791671,0,60,3.0,4,8.906348039324578e-05
5.0,0.0,77.50288926928084,0,60,3.0,4,6.798280660806246e-05
5.005,0.0,77.50219532571992,0,60,3.0,4,5.165472282174853e-05
5.01,0.0,77.50166043327717,0,60,3.0,4,3.9069018286267345e-05
5.015,0.0,77.50125013066801,0,60,3.0,4,2.941483924734498e-05
5.02,0.0,77.50093691654406,0,60,3.0,4,2.204509515442677e-05
5.025,0.0,77.50069896901469,0,60,3.0,4,1.644632975746711e-05
5.03,0.0,77.50051907063157,0,60,3.0,4,1.2213426625147109e-05
5.035,0.0,77.50038371299648,0,60,3.0,4,9.028541093665112e-06
5.04,0.0,77.50028235668749,0,60,3.0,4,6.643686764525281e-06
5.045,0.0,77.50020682411044,0,60,3.0,4,4.866449657302998e-06
5.05,0.0,77.50015080500992,0,60,3.0,4,3.5483531746649534e-06
5.055,0.0,77.50010945658438,0,60,3.0,4,2.575449044303134e-06
5.06,0.0,77.50007908234369,0,60,3.0,4,1.8607610279693344e-06
5.065,0.0,77.50005687595332,0,60,3.0,4,1.3382577251644868e-06
5.07,0.0,77.50004071827436,0,60,3.0,4,9.580770438333276e-07
5.075,0.0,77.5000290176045,0,60,3.0,4,6.827671648031409e-07
5.08,0.0,77.5000205847344,0,60,3.0,4,4.843466917784955e-07
5.085,0.0,77.50001453585212,0,60,3.0,4,3.420200498032286e-07
5.09,0.0,77.50001021756106,0,60,3.0,4,2.4041320129446617e-07
5.095,0.0,77.50000714933266,0,60,3.0,4,1.6821959200248838e-07
5.1,0.0,77.5000049796095,0,60,3.0,4,1.1716728234954216e-07
5.105,0.001684486749771458,77.50000345252305,0,60,3.0,4,8.123583637932503e-08
5.11,0.003097557930867117,77.50000238280994,0,60,3.0,4,5.606611620458031e-08
5.115,0.005475106668887023,77.50000163701907,0,60,3.0,4,3.851809571428663e-08
5.12,0.00930222931468658,77.50000111951415,0,60,3.0,4,2.6341509470405393e-08
5.125,0.01519157517868857,77.50000076210877,0,60,3.0,4,1.7931971034854273e-08
5.13,0.023847336626128316,77.50000051643521,0,60,3.0,4,1.2151416646755773e-08
5.135,0.0359830743700859,77.50000034835837,0,60,3.0,4,8.196667522497591e-09
5.14,0.05218887796857759,77.50000023390967,0,60,3.0,4,5.503757031821057e-09
5.145,0.0727577001223134,77.50000015634414,0,60,3.0,4,3.678685716830146e-09
5.15,0.0974992498694751,77.50000010402233,0,60,3.0,4,2.4475843260648508e-09
5.155,0.12558706050443358,77.50000006889427,0,60,3.0,4,1.621041559808552e-09
5.16,0.15549263588878245,77.5000000454204,0,60,3.0,4,1.0687154586134164e-09
5.165,0.1850529723539114,77.50000002980784,0,60,3.0,4,7.013608517488191e-10
5.17,0.21169159439317053,77.5000000194725,0,60,3.0,4,4.5817634653597934e-10
5.175,0.23277292922115492,77.50000001266264,0,60,3.0,4,2.9794444558587306e-10
5.18,0.24602692519491282,77.50000000819668,0,60,3.0,4,1.9286303273367915e-10
5.185,0.24995056064839283,77.50000000528158,0,60,3.0,4,1.2427241980570696e-10
5.19,0.24408826520424054,77.50000000338767,0,60,3.0,4,7.970985440325047e-11
5.195,0.22911894216865275,77.50000000216296,0,60,3.0,4,5.089325039828991e-11
5.2,0.20672661788705934,77.5000000013747,0,60,3.0,4,3.234591157011249e-11
5.205,0.17928878030241233,77.50000000086972,0,60,3.0,4,2.0463965162943007e-11
5.21,0.14946211903866036,77.50000000054773,0,60,3.0,4,1.2887740547953666e-11
5.215,0.1197651512573837,77.50000000034336,0,60,3.0,4,8.07912168538143e-12
5.22,0.09224675744988023,77.50000000021427,0,60,3.0,4,5.041676879901548e-12
5.225,0.06829565320281596,77.5000000001331,0,60,3.0,4,3.131738006178399e-12
5.23,0.04860224607515734,77.5000000000823,0,60,3.0,4,1.9363543448408188e-12
5.235,0.03324612389699793,77.50000000005066,0,60,3.0,4,1.1920399308163562e-12
5.24,0.021859876340472782,77.50000000003104,0,60,3.0,4,7.302707458353218e-13
5.245,0.01381595518554205,77.50000000001893,0,60,3.0,4,4.453849054270369e-13
5.25,0.008394095110402422,77.5000000000115,0,60,3.0,4,2.7050779916702167e-13
5.255,0.0049052535271608,77.50000000000695,0,60,3.0,4,1.6350842248785364e-13
5.26,0.0027671663551903634,77.50000000000418,0,60,3.0,4,9.830567732398563e-14
5.265,0.0015425553464444616,77.5000000000025,0,60,3.0,4,5.884965717354242e-14
5.27,0.0009638206637011801,77.50000000000149,0,60,3.0,4,3.510917047285201e-14
5.275,0.0009804935156568228,77.50000000000088,0,60,3.0,4,2.0731129231588804e-14
5.28,0.0018793744894085216,77.50000000000053,0,60,3.0,4,1.2371802928528803e-14
5.285,0.004535525206900863,77.50000000000031,0,60,3.0,4,7.356207146692803e-15
5.29,0.010832767979632273,77.50000000000018,0,60,3.0,4,4.3468496775912015e-15
5.295,0.024208003392322392,77.5000000000001,0,60,3.0,4,2.3406113648568006e-15
5.3,0.0500971897335304,77.50000000000006,0,60,3.0,4,1.3374922084896003e-15
5.305,0.09582894921774403,77.50000000000003,0,60,3.0,4,6.687461042448002e-16
5.31,0.16937896721820658,77.50000000000001,0,60,3.0,4,3.343730521224001e-16
5.315,0.27661303008991756,77.50000000000001,0,60,3.0,4,3.343730521224001e-16
5.32,0.4173782800009149,77.5,0,60,3.0,4,0.0
5.325,0.5818720934538056,77.5,0,60,3.0,4,0.0
5.33,0.7494718801585675,77.5,0,60,3.0,4,0.0
5.335,0.891813020752378,77.5,0,60,3.0,4,0.0
5.34,0.9800361632936612,77.5,0,60,3.0,4,0.0
5.345,0.993574479225126,77.50000249000622,1,60,3.0,4,5.858838174871754e-08
5.35,0.9263438449375362,77.50000389248275,0,60,3.0,4,9.15878294616799e-08
5.355,0.7873015962290536,77.50000622788357,0,60,3.0,4,1.4653843703961362e-07
5.36,0.5959516244629897,77.50001032445374,0,60,3.0,4,2.429283232927179e-07
5.365,0.376910120078773,77.50001793601348,0,60,3.0,4,4.220238465410041e-07
5.37,0.15739335672107918,77.50003284604738,0,60,3.0,4,7.72848173536498e-07
5.375,-0.033361226269301235,77.50006322959007,0,60,3.0,4,1.4877550604390254e-06
5.38,-0.1680180840843834,77.50012656627284,0,60,3.0,4,2.978029949177011e-06
5.385,-0.23069703190837854,77.50025954907927,0,60,3.0,4,6.10703715939481e-06
5.39,-0.22587267821131068,77.50053742037096,0,60,3.0,4,1.26451851990757e-05
5.395,-0.17718181630665902,77.50111041975664,0,60,3.0,4,2.6127523685705883e-05
5.4,-0.11494332516451301,77.50227004615842,0,60,3.0,4,5.341285078623728e-05
5.405,-0.061810214049552864,77.50456505519409,0,60,3.0,4,0.00010741306339040795
5.41,-0.026546104631500547,77.50899663500942,0,60,3.0,4,0.00021168552963351484
5.415,-0.00719600351942686,77.51733334782944,0,60,3.0,4,0.00040784347833965404
5.42,0.0022072757983807078,77.53259711175801,0,60,3.0,4,0.0007669908648943099
5.425,0.006917199873730717,77.5597775885197,0,60,3.0,4,0.0014065314945810314
5.43,0.01004859748264829,77.60682720154375,0,60,3.0,4,0.002513581212794152
5.435,0.013037082251128167,77.68596373563713,0,60,3.0,4,0.0043756173091089616
5.44,0.01645163937690478,77.81525235617987,0,60,3.0,4,0.007417702498349854
5.445,0.020526639934696615,78.02034654369058,0,60,3.0,4,0.012243448086837147
5.45,0.02539629541761738,78.33613763083831,0,60,3.0,4,0.0196738266079602
5.455,0.031171612185577933,78.80790801230718,0,60,3.0,4,0.030774306171933656
5.46,0.03795853426638131,79.49143402196233,0,60,3.0,4,0.046857271104996094
5.465,0.0458588961882057,80.45138998325675,0,60,3.0,4,0.06944447019427638
5.47,0.054966995891435555,81.75742693681694,0,60,3.0,4,0.10017475145451626
5.475,0.06536491004445595,83.47749814853324,0,60,3.0,4,0.1406470152596057
5.48,0.07711726085088699,85.66841448846296,0,60,3.0,4,0.1921979879638343
5.485,0.09026570629555215,88.36422212653916,0,60,3.0,4,0.2556287559185685
5.49,0.10482339848670268,91.56371947194285,0,60,3.0,4,0.3309110463986552
5.495,0.12076968927580028,95.21911490992028,0,60,3.0,4,0.41692035082165363
5.5,0.13804539501007884,99.22826790633349,0,60,3.0,4,0.5112533625019644
5.505,0.15654895051787066,103.43295067098154,0,60,3.0,4,0.6101870746113304
5.51,0.17613378141900526,107.62498105812116,0,60,3.0,4,0.708823083720498
5.515,0.19660720058055794,111.56090743751355,0,60,3.0,4,0.8014331161767894
5.52,0.21773108748496234,114.9843394518642,0,60,3.0,4,0.8819844576909224
5.525,0.23922453870058807,117.65333760501063,0,60,3.0,4,0.9447844142355444
5.53,0.2607685857914563,119.36890970084326,0,60,3.0,4,0.9851508164904297
5.535,0.2820129681603682,120.0,0,60,3.0,4,1.0
5.54,0.30258482867153996,119.5006402542718,0,60,3.0,4,0.9882503589240423
5.545,0.3220990771751686,117.91617040818592,0,60,3.0,4,0.9509687154867276
5.55,0.3401700499968971,115.37738557396011,0,60,3.0,4,0.8912326017402379
5.555,0.3564239911198326,112.08368211089038,0,60,3.0,4,0.8137336967268325
5.56,0.3705118017738417,108.27824070530876,0,60,3.0,4,0.7241938989484414
5.565,0.3821214567925213,104.21955090304075,0,60,3.0,4,0.6286953153656648
5.57,0.39098947374066967,100.15389681309367,0,60,3.0,4,0.5330328661904392
5.575,0.3969108472035567,96.29278932965357,0,60,3.0,4,0.44218327834478993
5.58,0.3997469255491936,92.79798252281299,0,60,3.0,4,0.3599525299485409
5.585,0.3994308076379137,89.77503474095302,0,60,3.0,4,0.2888243468459534
5.59,0.3959699661768434,87.27477976068862,0,60,3.0,4,0.2299948178985557
5.595,0.38944595408114946,85.30088686693217,0,60,3.0,4,0.1835502792219335
5.6,0.38001120995358023,83.82108308582723,0,60,3.0,4,0.14873136672534648
5.605,0.3678831374098315,82.77958866801355,0,60,3.0,4,0.12422561571796577
5.61,0.35333577933796634,82.1087468967927,0,60,3.0,4,0.10844110345394577
5.615,0.33668953221163944,81.7385096637752,0,60,3.0,4,0.09972963914765186
5.62,0.3182994390982644,81.60316637149273,0,60,3.0,4,0.09654509109394667
5.625,0.29854265738230645,81.64531852817903,0,60,3.0,4,0.097536906545389
5.63,0.2778057157821067,81.81752026347644,0,60,3.0,4,0.10158871208179857
5.635,0.2564721553719815,82.08220991158747,0,60,3.0,4,0.1078167038020581
5.64,0.23491109433464996,82.41058435809306,0,60,3.0,4,0.11554316136689555
5.645,0.21346717185309805,82.78097574839373,0,60,3.0,4,0.12425825290338186
5.65,0.19245222055656455,83.17714153356428,0,60,3.0,4,0.1335798007897478
5.655,0.17213889801761392,83.58672328897565,0,60,3.0,4,0.14321701856413288
5.66,0.15275638501270183,83.99999826166315,0,60,3.0,4,0.15294113556854474
5.665,0.13448814019607322,84.40895337124233,0,60,3.0,4,0.16256360873511372
5.67,0.11747159495449566,84.80665451989769,0,60,3.0,4,0.17192128282112215
5.675,0.10179958433370105,85.1868573489393,0,60,3.0,4,0.1808672317397482
5.68,0.08752324394101413,85.54379935372675,0,60,3.0,4,0.18926586714651186
5.685,0.07465606047174059,85.87211861230374,0,60,3.0,4,0.19699102617185263
5.69,0.0631787448609295,86.16685460853626,0,60,3.0,4,0.20392599078908835
5.695,0.05304460019959574,86.42349754884363,0,60,3.0,4,0.20996464820808536
5.7,0.044185078305849994,86.63806206698814,0,60,3.0,4,0.2150132251056033
5.705,0.03651525513023255,86.80716857960022,0,60,3.0,4,0.21899220187294624
5.71,0.0299390014708757,86.92812088388769,0,60,3.0,4,0.22183813844441616
5.715,0.024353677220580638,86.99897230219709,0,60,3.0,4,0.2235052306399315
5.72,0.01965423034339045,87.0185752592566,0,60,3.0,4,0.22396647668839043
5.725,0.015736632374757337,86.98661103599359,0,60,3.0,4,0.22321437731749624
5.73,0.012500627640593535,86.90359787095856,0,60,3.0,4,0.2212611263754956
5.735,0.009851811652115898,86.77087675820192,0,60,3.0,4,0.21813827666357463
5.74,0.007703084175428559,86.59057531515485,0,60,3.0,4,0.21389588976834945
5.745,0.005975544002062424,86.36555100430262,0,60,3.0,4,0.20860120010123803
5.75,0.004598905818663047,86.0993157926329,0,60,3.0,4,0.2023368421795975
5.755,0.0035115256454839104,85.79594501028039,0,60,3.0,4,0.1951987061242445
5.76,0.002660121266303676,85.45997370609123,0,60,3.0,4,0.18729349896685255
5.765,0.0019992692560877024,85.0962841761263,0,60,3.0,4,0.17873609826179537
5.77,0.0014907520044639367,84.70998855024048,0,60,3.0,4,0.1696467894174231
5.775,0.0011028178277539807,84.3063103584825,0,60,3.0,4,0.1601484790231178
5.78,0.0008094059938923333,83.89046886840002,0,60,3.0,4,0.15036397337411814
5.785,0.0005893771793717645,83.4675696999641,0,60,3.0,4,0.1404134047050377
5.79,0.0004257792353490551,83.04250480764743,0,60,3.0,4,0.13041187782699842
5.795,0.0003051686392901525,82.61986439594673,0,60,3.0,4,0.12046739755168788
5.8,0.00021699992642659966,82.203862736115,0,60,3.0,4,0.11067912320270586
5.805,0.00015308884054097838,81.79827921088489,0,60,3.0,4,0.10113598143258554
5.81,0.00010714989329311098,81.4064152633843,0,60,3.0,4,0.09191565325610127
5.815,7.440535854020571e-05,81.0310672972994,0,60,3.0,4,0.08308393640704474
5.82,5.1260276743925106e-05,80.67451499519211,0,60,3.0,4,0.07469447047510852
5.825,3.503659887882241e-05,80.338524013543,0,60,3.0,4,0.06678880031865868
5.83,2.375894748103639e-05,80.02436159372127,0,60,3.0,4,0.059396743381676866
5.835,1.5984413869232557e-05,79.73282330872932,0,60,3.0,4,0.05253701902892524
5.84,1.0669166579899869e-05,79.4642689510973,0,60,3.0,4,0.046218092966995195
5.845,7.06526633560511e-06,79.21866545674996,0,60,3.0,4,0.040439187217646125
5.85,4.641847214699205e-06,78.99563474688391,0,60,3.0,4,0.03519140580903314
5.855,3.025641074479182e-06,78.79450444444629,0,60,3.0,4,0.030458928104618574
5.86,1.9566278676921314e-06,78.61435957004821,0,60,3.0,4,0.026220225177604896
5.865,1.2553456560008793e-06,78.45409352834312,0,60,3.0,4,0.02244925949042641
5.87,7.990660428214668e-07,78.31245694336336,0,60,3.0,4,0.01911663396149078
5.875,5.046221251618276e-07,78.18810317343045,0,60,3.0,4,0.01619066290424585
5.88,3.1616527078858815e-07,78.07962961742325,0,60,3.0,4,0.01363834393937061
5.885,1.9652884407760343e-07,77.98561420049717,0,60,3.0,4,0.01142621648228629
5.89,1.2120002189836396e-07,77.90464668712917,0,60,3.0,4,0.009521098520686418
5.895,7.415549848886236e-08,77.83535470349312,0,60,3.0,4,0.007890698905720563
5.9,4.501406988770349e-08,77.77642455318359,0,60,3.0,4,0.006504107133731489
5.905,0.0,77.72661707634573,0,60,3.0,4,0.005332166502252529
5.91,0.0,77.68477893086524,0,60,3.0,4,0.00434773954977024
5.915,0.0,77.6498497660474,0,60,3.0,4,0.0035258768481740204
5.92,0.0,77.62086581648374,0,60,3.0,4,0.002843901564323366
5.925,0.0,77.59696047016833,0,60,3.0,4,0.0022814228274900387
5.93,0.0,77.57736236484402,0,60,3.0,4,0.0018202909375063694
5.935,0.0,77.56139154495807,0,60,3.0,4,0.001444506940189887
5.94,0.0,77.54845417352878,0,60,3.0,4,0.0011400982006772237
5.945,0.0,77.53803624353917,0,60,3.0,4,0.0008949704362157049
5.95,0.0,77.52969667664992,0,60,3.0,4,0.0006987453329392846
5.955,0.0,77.52306013697444,0,60,3.0,4,0.000542591458222031
5.96,0.0,77.51780982764838,0,60,3.0,4,0.00041905476819712985
5.965,0.0,77.51368048053044,0,60,3.0,4,0.0003218936595397495
5.97,0.0,77.51045169649136,0,60,3.0,4,0.00024592227038490764
5.975,0.0,77.5079417466527,0,60,3.0,4,0.00018686462712246474
5.98,0.0,77.50600190434021,0,60,3.0,4,0.00014122127859316017
5.985,0.0,77.50451134365947,0,60,3.0,4,0.0001061492625758413
5.99,0.0,77.50337261335471,0,60,3.0,4,7.93556083461975e-05
5.995,0.0,77.50250767355982,0,60,3.0,4,5.9004083760448657e-05
6.0,0.0,77.50185446759158,0,60,3.0,4,4.363453156670135e-05
6.005,0.0,77.50136399034713,0,60,3.0,4,3.209389052070786e-05
6.01,0.0,77.50099780838069,0,60,3.0,4,2.347784425149471e-05
6.015,0.0,77.5007259835821,0,60,3.0,4,1.708196663765407e-05
6.02,0.0,77.50052535183445,0,60,3.0,4,1.2361219634225135e-05
6.025,0.0,77.50037810942973,0,60,3.0,5,8.896692464291204e-06
6.03,0.0,77.50027066279699,0,60,3.0,5,6.368536399831475e-06
6.035,0.0,77.50019270075849,0,60,3.0,5,4.53413549387412e-06
6.04,0.0,77.50013645268456,0,60,3.0,5,3.2106514013588928e-06
6.045,0.0,77.50009610025637,0,60,3.0,5,2.2611825028541394e-06
6.05,0.0,77.50006731483874,0,60,3.0,5,1.5838785587033378e-06
6.055,0.0,77.50004689654789,0,60,3.0,5,1.103448185551101e-06
6.06,0.0,77.50003249486535,0,60,3.0,5,7.645850670916629e-07
6.065,0.0,77.50002239403797,0,60,3.0,5,5.269185404652971e-07
6.07,0.001684486749771458,77.50001534948753,0,60,3.0,5,3.6116441238471665e-07
6.075,0.003097557930867117,77.50001046403425,0,60,3.0,5,2.4621257051983453e-07
6.08,0.005475106668887023,77.5000070949318,0,60,3.0,5,1.6693957183419758e-07
6.085,0.00930222931468658,77.50000478455003,0,60,3.0,5,1.125776477425354e-07
6.09,0.01519157517868857,77.50000320905956,0,60,3.0,5,7.550728368829262e-08
6.095,0.023847336626128316,77.50000214071206,0,60,3.0,5,5.036969542636464e-08
6.1,0.0359830743700859,77.50000142030801,0,60,3.0,5,3.3419011996931445e-08
6.105,0.05218887796857759,77.50000093723958,0,60,3.0,5,2.2052695920351922e-08
6.11,0.0727577001223134,77.50000061512375,0,60,3.0,5,1.447350006642142e-08
6.115,0.0974992498694751,77.50000040153017,0,60,3.0,5,9.447768768629483e-09
6.12,0.12558706050443358,77.50000026068598,0,60,3.0,5,6.133787752225865e-09
6.125,0.15549263588878245,77.50000016832978,0,60,3.0,5,3.960700630212908e-09
6.13,0.1850529723539114,77.50000010810557,0,60,3.0,5,2.5436604038772846e-09
6.135,0.21169159439317053,77.50000006905242,0,60,3.0,5,1.6247627975056221e-09
6.14,0.23277292922115492,77.50000004386858,0,60,3.0,5,1.0322019213216502e-09
6.145,0.24602692519491282,77.50000002771866,0,60,3.0,5,6.522036662371487e-10
6.15,0.24995056064839283,77.50000001741945,0,60,3.0,5,4.098694716958562e-10
6.155,0.24408826520424054,77.5000000108878,0,60,3.0,5,2.5618359198715016e-10
6.16,0.22911894216865275,77.50000000676847,0,60,3.0,5,1.592582066223258e-10
6.165,0.20672661788705934,77.50000000418488,0,60,3.0,5,9.846784825426499e-11
6.17,0.17928878030241233,77.50000000257349,0,60,3.0,5,6.05526191280018e-11
6.175,0.14946211903866036,77.500000001574,0,60,3.0,5,3.703515925307703e-11
6.18,0.1197651512573837,77.50000000095747,0,60,3.0,5,2.2528718759798827e-11
6.185,0.09224675744988023,77.50000000057929,0,60,3.0,5,1.3630383096717517e-11
6.19,0.06829565320281596,77.50000000034858,0,60,3.0,5,8.201836595510351e-12
6.195,0.04860224607515734,77.50000000020863,0,60,3.0,5,4.908930778208956e-12
6.2,0.03324612389699793,77.50000000012419,0,60,3.0,5,2.9220861024976544e-12
6.205,0.021859876340472782,77.50000000007353,0,60,3.0,5,1.730046171681298e-12
6.21,0.01381595518554205,77.50000000004329,0,60,3.0,5,1.0185003167648307e-12
6.215,0.008394095110402422,77.50000000002535,0,60,3.0,5,5.965215249863618e-13
6.22,0.0049052535271608,77.50000000001477,0,60,3.0,5,3.4741360115517367e-13
6.225,0.0027671663551903634,77.50000000000855,0,60,3.0,5,2.0129257737768484e-13
6.23,0.0015425553464444616,77.50000000000493,0,60,3.0,5,1.1602744908647282e-13
6.235,0.0009638206637011801,77.50000000000283,0,60,3.0,5,6.654023737235762e-14
6.24,0.0009804935156568228,77.5000000000016,0,60,3.0,5,3.778415488983121e-14
6.245,0.0018793744894085216,77.50000000000091,0,60,3.0,5,2.1399875335833605e-14
6.25,0.004535525206900863,77.50000000000051,0,60,3.0,5,1.2037429876406403e-14
6.255,0.010832767979632273,77.50000000000028,0,60,3.0,5,6.687461042448002e-15
6.26,0.024208003392322392,77.50000000000016,0,60,3.0,5,3.678103573346401e-15
6.265,0.0500971897335304,77.50000000000009,0,60,3.0,5,2.0062383127344005e-15
6.27,0.09582894921774403,77.50000000000004,0,60,3.0,5,1.0031191563672002e-15
6.275,0.16937896721820658,77.50000000000003,0,60,3.0,5,6.687461042448002e-16
6.28,0.27661303008991756,77.50000000000001,0,60,3.0,5,3.343730521224001e-16
6.285,0.4173782800009149,77.50000000000001,0,60,3.0,5,3.343730521224001e-16
6.29,0.5818720934538056,77.5,0,60,3.0,5,0.0
6.295,0.7494718801585675,77.5,0,60,3.0,5,0.0
6.3,0.891813020752378,77.5,0,60,3.0,5,0.0
6.305,0.9800361632936612,77.5,0,60,3.0,5,0.0
6.31,0.993574479225126,77.50000249379623,1,60,3.0,5,5.8677558372972485e-08
6.315,0.9263438449375362,77.50000364685529,0,60,3.0,5,8.580835977976248e-08
6.32,0.7873015962290536,77.50000541720787,0,60,3.0,5,1.2746371466806415e-07
6.325,0.5959516244629897,77.50000823551453,0,60,3.0,5,1.9377681242611502e-07
6.33,0.376910120078773,77.50001291167179,0,60,3.0,5,3.0380404208538977e-07
6.335,0.15739335672107918,77.50002099875525,0,60,3.0,5,4.940883587444071e-07
6.34,-0.033361226269301235,77.50003549744692,0,60,3.0,5,8.352340450849571e-07
6.345,-0.1680180840843834,77.50006219409201,0,60,3.0,5,1.4633904002306843e-06
6.35,-0.23069703190837854,77.50011214911846,0,60,3.0,5,2.638802787407044e-06
6.355,-0.22587267821131068,77.50020622040319,0,60,3.0,5,4.852244780843595e-06
6.36,-0.17718181630665902,77.50038309007668,0,60,3.0,5,9.013884157211043e-06
6.365,-0.11494332516451301,77.50071315481902,0,60,3.0,5,1.678011338881066e-05
6.37,-0.061810214049552864,77.5013219438384,0,60,3.0,5,3.110456090366022e-05
6.375,-0.026546104631500547,77.50242854564269,0,60,3.0,5,5.7142250416157316e-05
6.38,-0.00719600351942686,77.5044069144938,0,60,3.0,5,0.00010369210573645325
6.385,0.0022072757983807078,77.50788085207563,0,60,3.0,5,0.00018543181354422868
6.39,0.006917199873730717,77.51386670100817,0,60,3.0,5,0.00032627531783927064
6.395,0.01004859748264829,77.52398084456051,0,60,3.0,5,0.0005642551661296961
6.4,0.013037082251128167,77.54073109806174,0,60,3.0,5,0.0009583787779233182
6.405,0.01645163937690478,77.56791066690988,0,60,3.0,5,0.0015978980449383872
6.41,0.020526639934696615,77.61110876243488,0,60,3.0,5,0.002614323821997205
6.415,0.02539629541761738,77.67834116582516,0,60,3.0,5,0.00419626272529787
6.42,0.031171612185577933,77.78078506414971,0,60,3.0,5,0.00660670739175791
6.425,0.03795853426638131,77.93357410735076,0,60,3.0,5,0.010201743702370938
6.43,0.0458588961882057,78.15657212581807,0,60,3.0,5,0.015448755901601718
6.435,0.054966995891435555,78.47499999829667,0,60,3.0,5,0.022941176430509812
6.44,0.06536491004445595,78.91974563488425,0,60,3.0,5,0.03340577964433531
6.445,0.07711726085088699,79.52715125776614,0,60,3.0,5,0.047697676653320836
6.45,0.09026570629555215,80.3380573416469,0,60,3.0,5,0.06677781980345651
6.455,0.10482339848670268,81.3959021658634,0,60,3.0,5,0.09166828625560951
6.46,0.12076968927580028,82.74374175486754,0,60,3.0,5,0.12338215893805983
6.465,0.13804539501007884,84.42017348250603,0,60,3.0,5,0.16282761135308305
6.47,0.15654895051787066,86.45431488852483,0,60,3.0,5,0.21068976208293727
6.475,0.17613378141900526,88.86019199922863,0,60,3.0,5,0.2672986352759678
6.48,0.19660720058055794,91.63110003161992,0,60,3.0,5,0.3324964713322335
6.485,0.21773108748496234,94.7346741447904,0,60,3.0,5,0.4055217445833036
6.49,0.23922453870058807,98.10950421064753,0,60,3.0,5,0.4849295108387654
6.495,0.2607685857914563,101.66410489183777,0,60,3.0,5,0.5685671739255945
6.5,0.2820129681603682,105.27888502580494,0,60,3.0,5,0.6536208241365868
6.505,0.30258482867153996,108.81144746418317,0,60,3.0,5,0.7367399403337218
6.51,0.3220990771751686,112.10512162778798,0,60,3.0,5,0.8142381559479525
6.515,0.3401700499968971,115.00014552370419,0,60,3.0,5,0.882356365263628
6.52,0.3564239911198326,117.34645300647172,0,60,3.0,5,0.9375636001522758
6.525,0.3705118017738417,119.01667371956904,0,60,3.0,5,0.9768629110486833
6.53,0.3821214567925213,119.91779367054514,0,60,3.0,5,0.9980657334245915
6.535,0.39098947374066967,120.0,0,60,3.0,5,1.0
6.54,0.3969108472035567,119.2615475257734,0,60,3.0,5,0.9826246476652564
6.545,0.3997469255491936,117.7489937228979,0,60,3.0,5,0.9470351464211268
6.55,0.3994308076379137,115.55276983532957,0,60,3.0,5,0.8953592902430487
6.555,0.3959699661768434,112.79868240370803,0,60,3.0,5,0.8305572330284242
6.56,0.38944595408114946,109.63646406831128,0,60,3.0,5,0.7561520957249714
6.565,0.38001120995358023,106.22682876443385,0,60,3.0,5,0.6759253826925611
6.57,0.3678831374098315,102.72858654917412,0,60,3.0,5,0.5936138011570382
6.575,0.35333577933796634,99.28723593668396,0,60,3.0,5,0.5126408455690342
6.58,0.33668953221163944,96.02611916232044,0,60,3.0,5,0.43590868617224565
6.585,0.3182994390982644,93.0407722532738,0,60,3.0,5,0.3656652294887953
6.59,0.29854265738230645,90.39661491053259,0,60,3.0,5,0.30344976260076684
6.595,0.2778057157821067,88.12968762716683,0,60,3.0,5,0.2501102971098078
6.6,0.2564721553719815,86.24981725905499,0,60,3.0,5,0.20587805315423513
6.605,0.23491109433464996,84.74541008194149,0,60,3.0,5,0.1704802372221526
6.61,0.21346717185309805,83.58903512890868,0,60,3.0,5,0.14327141479785122
6.615,0.19245222055656455,82.74304675806258,0,60,3.0,5,0.12336580607206062
6.62,0.17213889801761392,82.16466443233601,0,60,3.0,5,0.10975681017261202
6.625,0.15275638501270183,81.81013488536829,0,60,3.0,5,0.10141493847925377
6.63,0.13448814019607322,81.63780671668515,0,60,3.0,5,0.09736015803965054
6.635,0.11747159495449566,81.61012011067432,0,60,3.0,5,0.09670870848645449
6.64,0.10179958433370105,81.6946381638691,0,60,3.0,5,0.0986973685616259
6.645,0.08752324394101413,81.86431720414375,0,60,3.0,5,0.10268981656808812
6.65,0.07465606047174059,82.09723717069159,0,60,3.0,5,0.10817028636921376
6.655,0.0631787448609295,82.37600105974431,0,60,3.0,5,0.11472943669986616
6.66,0.05304460019959574,82.68697806243524,0,60,3.0,5,0.12204654264553516
6.665,0.044185078305849994,83.01952076661229,0,60,3.0,5,0.1298710768614656
6.67,0.03651525513023255,83.36524231629802,0,60,3.0,5,0.13800570155995348
6.675,0.0299390014708757,83.71740093389711,0,60,3.0,5,0.146291786679932
6.68,0.024353677220580638,84.0704096979102,0,60,3.0,5,0.15459787524494573
6.685,0.01965423034339045,84.41946941505593,0,60,3.0,5,0.1628110450601395
6.69,0.015736632374757337,84.76031070534778,0,60,3.0,5,0.17083084012583005
6.695,0.012500627640593535,85.08902612999151,0,60,3.0,5,0.17856532070568257
6.7,0.009851811652115898,85.40197228668794,0,60,3.0,5,0.18592875968677497
6.705,0.007703084175428559,85.69572347280604,0,60,3.0,5,0.19284055230131852
6.71,0.005975544002062424,85.96706139873842,0,60,3.0,5,0.19922497408796289
6.715,0.004598905818663047,86.21298860076058,0,60,3.0,5,0.20501149648848427
6.72,0.0035115256454839104,86.43075612546333,0,60,3.0,5,0.21013543824619607
6.725,0.002660121266303676,86.61789849761755,0,60,3.0,5,0.21453878817923636
6.73,0.0019992692560877024,86.77227088984064,0,60,3.0,5,0.21817107976095626
6.735,0.0014907520044639367,86.89208483898226,0,60,3.0,5,0.22099023150546487
6.74,0.0011028178277539807,86.97593989724072,0,60,3.0,5,0.22296329169978168
6.745,0.0008094059938923333,87.02284936793401,0,60,3.0,5,0.22406704395138857
6.75,0.0005893771793717645,87.0322588452032,0,60,3.0,5,0.22428844341654594
6.755,0.0004257792353490551,87.00405672148815,0,60,3.0,5,0.2236248640350154
6.76,0.0003051686392901525,86.938576193165,0,60,3.0,5,0.22208414572152954
6.765,0.00021699992642659966,86.83658861237089,0,60,3.0,5,0.21968443793813858
6.77,0.00015308884054097838,86.6992883175069,0,60,3.0,5,0.2164538427648682
6.775,0.00010714989329311098,86.52826933276276,0,60,3.0,5,0.21242986665324143
6.78,7.440535854020571e-05,86.3254945590234,0,60,3.0,5,0.20765869550643287
6.785,5.1260276743925106e-05,86.09325828228936,0,60,3.0,5,0.2021943125244554
6.79,3.503659887882241e-05,85.83414299750672,0,60,3.0,5,0.1960974822942757
6.795,2.375894748103639e-05,85.55097168158042,0,60,3.0,5,0.18943462780189227
6.8,1.5984413869232557e-05,85.24675674615155,0,60,3.0,5,0.18227662932121289
6.805,1.0669166579899869e-05,84.92464695644118,0,60,3.0,5,0.17469757544567482
6.81,7.06526633560511e-06,84.58787361651821,0,60,3.0,5,0.16677349685925197
6.815,4.641847214699205e-06,84.23969729467609,0,60,3.0,5,0.15858111281590803
6.82,3.025641074479182e-06,83.8833562976306,0,60,3.0,5,0.1501966187677788
6.825,1.9566278676921314e-06,83.52201800276141,0,60,3.0,5,0.141694541241445
6.83,1.2553456560008793e-06,83.15873402856027,0,60,3.0,5,0.13314668302494764
6.835,7.990660428214668e-07,82.79640007066425,0,60,3.0,5,0.12462117813327642
6.84,5.046221251618276e-07,82.4377210608132,0,60,3.0,5,0.1161816720191342
6.845,3.1616527078858815e-07,82.08518212556109,0,60,3.0,5,0.10788663824849623
6.85,1.9652884407760343e-07,81.74102563739208,0,60,3.0,5,0.09978883852687258
6.855,1.2120002189836396e-07,81.40723446957577,0,60,3.0,5,0.09193492869590045
6.86,7.415549848886236e-08,81.08552139364798,0,60,3.0,5,0.08436520926230541
6.865,4.501406988770349e-08,80.7773244000879,0,60,3.0,5,0.07711351529618603
6.87,0.0,80.48380758293442,0,60,3.0,5,0.07020723724551571
6.875,0.0,80.205867111076,0,60,3.0,5,0.06366746143708242
6.88,0.0,79.94414171500708,0,60,3.0,5,0.05750921682369595
6.885,0.0,79.69902704912808,0,60,3.0,5,0.05174181292066063
6.89,0.0,79.47069324628937,0,60,3.0,5,0.046369252853867574
6.895,0.0,79.25910496239372,0,60,3.0,5,0.04139070499749932
6.9,0.0,79.06404321279484,0,60,3.0,5,0.036801016771643366
6.905,0.0,78.8851283265892,0,60,3.0,5,0.03259125474327521
6.91,0.0,78.72184338679695,0,60,3.0,5,0.02874925615992819
6.915,0.0,78.57355758061965,0,60,3.0,5,0.02526017836752116
6.92,0.0,78.43954895101461,0,60,3.0,5,0.02210703414152035
6.925,0.0,78.31902611528606,0,60,3.0,5,0.01927120271261328
6.93,0.0,78.21114859492786,0,60,3.0,5,0.01673290811594972
6.935,0.0,78.11504548046908,0,60,3.0,5,0.01447165836397831
6.94,0.0,78.02983223281902,0,60,3.0,5,0.012466640772212191
6.945,0.0,77.95462549623485,0,60,3.0,5,0.010697070499643626
6.95,0.0,77.88855586564945,0,60,3.0,5,0.00914249095645767
6.955,0.0,77.8307786112709,0,60,3.0,5,0.0077830261475506125
6.96,0.0,77.78048241513851,0,60,3.0,5,0.006599586238553122
6.965,0.0,77.73689621716733,0,60,3.0,5,0.005574028639231234
6.97,0.0,77.6992943020125,0,60,3.0,5,0.004689277694411858
6.975,0.0,77.66699978305611,0,60,3.0,5,0.003929406660143834
6.98,0.0,77.6393866564738,0,60,3.0,5,0.0032796860346777255
6.985,0.0,77.61588060740796,0,60,3.0,5,0.0027266025272461
6.99,0.0,77.59595875265335,0,60,3.0,5,0.0022578530036081275
6.995,0.0,77.57914850094146,0,60,3.0,5,0.0018623176692107576
7.0,0.0,77.56502570393017,0,60,3.0,5,0.0015300165630629395
7.005,0.0,77.55321225939984,0,60,3.0,5,0.0012520531623492308
7.01,0.0,77.5433733139136,0,60,3.0,5,0.001020548562673064
7.015,0.0,77.53521419623655,0,60,3.0,5,0.0008285693232129929
7.02,0.0,77.52847719593795,0,60,3.0,5,0.0006700516691282968
7.025,0.0,77.52293828452984,0,60,3.0,5,0.0005397243418786622
7.03,0.0,77.51840385980424,0,60,3.0,5,0.0004330319953938295
7.035,0.0,77.51470757818475,0,60,3.0,5,0.00034606066317070035
7.04,0.0,77.51170732524928,0,60,3.0,5,0.0002754664764535498
7.045,0.0,77.509282361349,0,60,3.0,5,0.0002184085023292723
7.05,0.0,77.50733066758468,0,60,3.0,5,0.00017248629611017082
7.055,0.0,77.50576650736232,0,60,3.0,5,0.00013568252617233157
7.06,0.0,77.50451821032726,0,60,3.0,5,0.00010631083122970107
7.065,0.0,77.50352617860206,0,60,3.0,5,8.296890828372691e-05
7.07,0.0,77.5027411098242,0,60,3.0,5,6.449670174587856e-05
7.075,0.0,77.5021224273595,0,60,3.0,5,4.9939467282242466e-05
7.08,0.0,77.5016369051055,0,60,3.0,5,3.851541424704492e-05
7.085,0.0,77.50125747233716,0,60,3.0,5,2.9587584403730835e-05
7.09,0.0,77.50096218292417,0,60,3.0,5,2.2639598215752865e-05
7.095,0.0,77.50073333281524,0,60,3.0,5,1.725488977045001e-05
7.1,0.0,77.50055670979435,0,60,3.0,5,1.3099053984767712e-05
7.105,0.0,77.50042096004147,0,60,3.0,5,9.904942152161311e-06
7.11,0.0,77.50031705685961,0,60,3.0,5,7.460161402698705e-06
7.115,0.0,77.50023785796701,0,60,3.0,5,5.596658047245321e-06
7.12,0.0,77.50017773891317,0,60,3.0,5,4.182092074496027e-06
7.125,0.0,77.5001322913982,0,60,3.0,5,3.1127387812295424e-06
7.13,0.0,77.50009807650058,0,60,3.0,5,2.307682366536563e-06
7.135,0.0,77.50007242401301,0,60,3.0,5,1.704094423824726e-06
7.14,0.0,77.50005327021846,0,60,3.0,5,1.2534169049077343e-06
7.145,0.0,77.50003902749161,0,60,3.0,5,9.182939202352881e-07
7.15,0.0,77.50002848007108,0,60,3.0,5,6.701193195326864e-07
7.155,0.0,77.50002070121174,0,60,3.0,5,4.870873350254817e-07
7.16,0.0,77.50001498769115,0,60,3.0,5,3.5265155635416327e-07
7.165,0.0,77.50001080831444,0,60,3.0,5,2.5431328100132624e-07
7.17,0.0,77.50000776364155,0,60,3.0,5,1.8267391878372804e-07
7.175,0.0,77.50000555465704,0,60,3.0,5,1.3069781262482352e-07
7.18,0.0,77.50000395852408,0,60,3.0,5,9.314174295629046e-08
7.185,0.0,77.50000280991772,0,60,3.0,5,6.611571099229502e-08
7.19,0.0,77.50000198672694,0,60,3.0,5,4.674651630493292e-08
7.195,0.0,77.50000139915888,0,60,3.0,5,3.2921385314586906e-08
7.2,0.001684486749771458,77.50000098147704,0,60,3.0,5,2.3093577497360563e-08
7.205,0.003097557930867117,77.5000006857685,0,60,3.0,5,1.6135729364417356e-08
7.21,0.005475106668887023,77.50000047726456,0,60,3.0,5,1.1229754443989162e-08
7.215,0.00930222931468658,77.50000033084541,0,60,3.0,5,7.78459787611877e-09
7.22,0.01519157517868857,77.50000022844166,0,60,3.0,5,5.3750979719445565e-09
7.225,0.023847336626128316,77.50000015711214,0,60,3.0,5,3.696756239685997e-09
7.23,0.0359830743700859,77.5000001076288,0,60,3.0,6,2.532442187978578e-09
7.235,0.05218887796857759,77.50000007343981,0,60,3.0,6,1.7279954617526314e-09
7.24,0.0727577001223134,77.50000004991358,0,60,3.0,6,1.1744371958604247e-09
7.245,0.0974992498694751,77.50000003379016,0,60,3.0,6,7.950625465181314e-10
7.25,0.12558706050443358,77.50000002278485,0,60,3.0,6,5.36114023762981e-10
7.255,0.15549263588878245,77.50000001530334,0,60,3.0,6,3.6007864925041384e-10
7.26,0.1850529723539114,77.5000000102379,0,60,3.0,6,2.4089170919443646e-10
7.265,0.21169159439317053,77.50000000682212,0,60,3.0,6,1.6052046489408788e-10
7.27,0.23277292922115492,77.50000000452806,0,60,3.0,6,1.0654262308996883e-10
7.275,0.24602692519491282,77.50000000299357,0,60,3.0,6,7.043702092179207e-11
7.28,0.24995056064839283,77.50000000197129,0,60,3.0,6,4.6383226671262974e-11
7.285,0.24408826520424054,77.50000000129299,0,60,3.0,6,3.0423266520408696e-11
7.29,0.22911894216865275,77.50000000084475,0,60,3.0,6,1.9876471710363952e-11
7.295,0.20672661788705934,77.50000000054972,0,60,3.0,6,1.2934552775250803e-11
7.3,0.17928878030241233,77.50000000035632,0,60,3.0,6,8.38406990891706e-12
7.305,0.14946211903866036,77.50000000023005,0,60,3.0,6,5.412830967757412e-12
7.31,0.1197651512573837,77.50000000014793,0,60,3.0,6,3.480823472594185e-12
7.315,0.09224675744988023,77.50000000009476,0,60,3.0,6,2.229599511552164e-12
7.32,0.06829565320281596,77.50000000006047,0,60,3.0,6,1.4227573367808125e-12
7.325,0.04860224607515734,77.50000000003843,0,60,3.0,6,9.041447329389699e-13
7.33,0.03324612389699793,77.50000000002431,0,60,3.0,6,5.721122921814265e-13
7.335,0.021859876340472782,77.50000000001533,0,60,3.0,6,3.607885232400697e-13
7.34,0.01381595518554205,77.50000000000963,0,60,3.0,6,2.2670492933898726e-13
7.345,0.008394095110402422,77.50000000000603,0,60,3.0,6,1.4177417409989764e-13
7.35,0.0049052535271608,77.50000000000375,0,60,3.0,6,8.827448576031363e-14
7.355,0.0027671663551903634,77.50000000000233,0,60,3.0,6,5.4837180548073615e-14
7.36,0.0015425553464444616,77.50000000000144,0,60,3.0,6,3.377167826436241e-14
7.365,0.0009638206637011801,77.50000000000088,0,60,3.0,6,2.0731129231588804e-14
7.37,0.0009804935156568228,77.50000000000054,0,60,3.0,6,1.2706175980651204e-14
7.375,0.0018793744894085216,77.50000000000033,0,60,3.0,6,7.690580198815202e-15
7.38,0.004535525206900863,77.5000000000002,0,60,3.0,6,4.681222729713601e-15
7.385,0.010832767979632273,77.50000000000013,0,60,3.0,6,3.0093574691016007e-15
7.39,0.024208003392322392,77.50000000000007,0,60,3.0,6,1.6718652606120004e-15
7.395,0.0500971897335304,77.50000000000004,0,60,3.0,6,1.0031191563672002e-15
7.4,0.09582894921774403,77.50000000000003,0,60,3.0,6,6.687461042448002e-16
7.405,0.16937896721820658,77.50000000000001,0,60,3.0,6,3.343730521224001e-16
7.41,0.27661303008991756,77.50000000000001,0,60,3.0,6,3.343730521224001e-16
7.415,0.4173782800009149,77.5,0,60,3.0,6,0.0
7.42,0.5818720934538056,77.5,0,60,3.0,6,0.0
7.425,0.7494718801585675,77.5,0,60,3.0,6,0.0
7.43,0.891813020752378,77.5,0,60,3.0,6,0.0
7.435,0.9800361632936612,77.5,0,60,3.0,6,0.0
7.44,0.993574479225126,77.50000249000622,1,60,3.0,6,5.858838174871754e-08
7.445,0.9263438449375362,77.50000389248275,0,60,3.0,6,9.15878294616799e-08
7.45,0.7873015962290536,77.50000622788357,0,60,3.0,6,1.4653843703961362e-07
7.455,0.5959516244629897,77.50001032445374,0,60,3.0,6,2.429283232927179e-07
7.46,0.376910120078773,77.50001793601348,0,60,3.0,6,4.220238465410041e-07
7.465,0.15739335672107918,77.50003284604738,0,60,3.0,6,7.72848173536498e-07
7.47,-0.033361226269301235,77.50006322959007,0,60,3.0,6,1.4877550604390254e-06
7.475,-0.1680180840843834,77.50012656627284,0,60,3.0,6,2.978029949177011e-06
7.48,-0.23069703190837854,77.50025954907927,0,60,3.0,6,6.10703715939481e-06
7.485,-0.22587267821131068,77.50053742037096,0,60,3.0,6,1.26451851990757e-05
7.49,-0.17718181630665902,77.50111041975664,0,60,3.0,6,2.6127523685705883e-05
7.495,-0.11494332516451301,77.50227004615842,0,60,3.0,6,5.341285078623728e-05
7.5,-0.061810214049552864,77.50456505519409,0,60,3.0,6,0.00010741306339040795
7.505,-0.026546104631500547,77.50899663500942,0,60,3.0,6,0.00021168552963351484
7.51,-0.00719600351942686,77.51733334782944,0,60,3.0,6,0.00040784347833965404
7.515,0.0022072757983807078,77.53259711175801,0,60,3.0,6,0.0007669908648943099
7.52,0.006917199873730717,77.5597775885197,0,60,3.0,6,0.0014065314945810314
7.525,0.01004859748264829,77.60682720154375,0,60,3.0,6,0.002513581212794152
7.53,0.013037082251128167,77.68596373563713,0,60,3.0,6,0.0043756173091089616
7.535,0.01645163937690478,77.81525235617987,0,60,3.0,6,0.007417702498349854
7.54,0.020526639934696615,78.02034654369058,0,60,3.0,6,0.012243448086837147
7.545,0.02539629541761738,78.33613763083831,0,60,3.0,6,0.0196738266079602
7.55,0.031171612185577933,78.80790801230718,0,60,3.0,6,0.030774306171933656
7.555,0.03795853426638131,79.49143402196233,0,60,3.0,6,0.046857271104996094
7.56,0.0458588961882057,80.45138998325675,0,60,3.0,6,0.06944447019427638
7.565,0.054966995891435555,81.75742693681694,0,60,3.0,6,0.10017475145451626
7.57,0.06536491004445595,83.47749814853324,0,60,3.0,6,0.1406470152596057
7.575,0.07711726085088699,85.66841448846296,0,60,3.0,6,0.1921979879638343
7.58,0.09026570629555215,88.36422212653916,0,60,3.0,6,0.2556287559185685
7.585,0.10482339848670268,91.56371947194285,0,60,3.0,6,0.3309110463986552
7.59,0.12076968927580028,95.21911490992028,0,60,3.0,6,0.41692035082165363
7.595,0.13804539501007884,99.22826790633349,0,60,3.0,6,0.5112533625019644
7.6,0.15654895051787066,103.43295067098154,0,60,3.0,6,0.6101870746113304
7.605,0.17613378141900526,107.62498105812116,0,60,3.0,6,0.708823083720498
7.61,0.19660720058055794,111.56090743751355,0,60,3.0,6,0.8014331161767894
7.615,0.21773108748496234,114.9843394518642,0,60,3.0,6,0.8819844576909224
7.62,0.23922453870058807,117.65333760501063,0,60,3.0,6,0.9447844142355444
7.625,0.2607685857914563,119.36890970084326,0,60,3.0,6,0.9851508164904297
7.63,0.2820129681603682,120.0,0,60,3.0,6,1.0
7.635,0.30258482867153996,119.5006402542718,0,60,3.0,6,0.9882503589240423
7.64,0.3220990771751686,117.91617040818592,0,60,3.0,6,0.9509687154867276
7.645,0.3401700499968971,115.37738557396011,0,60,3.0,6,0.8912326017402379
7.65,0.3564239911198326,112.08368211089038,0,60,3.0,6,0.8137336967268325
7.655,0.3705118017738417,108.27824070530876,0,60,3.0,6,0.7241938989484414
7.66,0.3821214567925213,104.21955090304075,0,60,3.0,6,0.6286953153656648
7.665,0.39098947374066967,100.15389681309367,0,60,3.0,6,0.5330328661904392
7.67,0.3969108472035567,96.29278932965357,0,60,3.0,6,0.44218327834478993
7.675,0.3997469255491936,92.79798252281299,0,60,3.0,6,0.3599525299485409
7.68,0.3994308076379137,89.77503474095302,0,60,3.0,6,0.2888243468459534
7.685,0.3959699661768434,87.27477976068862,0,60,3.0,6,0.2299948178985557
7.69,0.38944595408114946,85.30088686693217,0,60,3.0,6,0.1835502792219335
7.695,0.38001120995358023,83.82108308582723,0,60,3.0,6,0.14873136672534648
7.7,0.3678831374098315,82.77958866801355,0,60,3.0,6,0.12422561571796577
7.705,0.35333577933796634,82.1087468967927,0,60,3.0,6,0.10844110345394577
7.71,0.33668953221163944,81.7385096637752,0,60,3.0,6,0.09972963914765186
7.715,0.3182994390982644,81.60316637149273,0,60,3.0,6,0.09654509109394667
7.72,0.29854265738230645,81.64531852817903,0,60,3.0,6,0.097536906545389
7.725,0.2778057157821067,81.81752026347644,0,60,3.0,6,0.10158871208179857
7.73,0.2564721553719815,82.08220991158747,0,60,3.0,6,0.1078167038020581
7.735,0.23491109433464996,82.41058435809306,0,60,3.0,6,0.11554316136689555
7.74,0.21346717185309805,82.78097574839373,0,60,3.0,6,0.12425825290338186
7.745,0.19245222055656455,83.17714153356428,0,60,3.0,6,0.1335798007897478
7.75,0.17213889801761392,83.58672328897565,0,60,3.0,6,0.14321701856413288
7.755,0.15275638501270183,83.99999826166315,0,60,3.0,6,0.15294113556854474
7.76,0.13448814019607322,84.40895337124233,0,60,3.0,6,0.16256360873511372
7.765,0.11747159495449566,84.80665451989769,0,60,3.0,6,0.17192128282112215
7.77,0.10179958433370105,85.1868573489393,0,60,3.0,6,0.1808672317397482
7.775,0.08752324394101413,85.54379935372675,0,60,3.0,6,0.18926586714651186
7.78,0.07465606047174059,85.87211861230374,0,60,3.0,6,0.19699102617185263
7.785,0.0631787448609295,86.16685460853626,0,60,3.0,6,0.20392599078908835
7.79,0.05304460019959574,86.42349754884363,0,60,3.0,6,0.20996464820808536
7.795,0.044185078305849994,86.63806206698814,0,60,3.0,6,0.2150132251056033
7.8,0.03651525513023255,86.80716857960022,0,60,3.0,6,0.21899220187294624
7.805,0.0299390014708757,86.92812088388769,0,60,3.0,6,0.22183813844441616
7.81,0.024353677220580638,86.99897230219709,0,60,3.0,6,0.2235052306399315
7.815,0.01965423034339045,87.0185752592566,0,60,3.0,6,0.22396647668839043
7.82,0.015736632374757337,86.98661103599359,0,60,3.0,6,0.22321437731749624
7.825,0.012500627640593535,86.90359787095856,0,60,3.0,6,0.2212611263754956
7.83,0.009851811652115898,86.77087675820192,0,60,3.0,6,0.21813827666357463
7.835,0.007703084175428559,86.59057531515485,0,60,3.0,6,0.21389588976834945
7.84,0.005975544002062424,86.36555100430262,0,60,3.0,6,0.20860120010123803
7.845,0.004598905818663047,86.0993157926329,0,60,3.0,6,0.2023368421795975
7.85,0.0035115256454839104,85.79594501028039,0,60,3.0,6,0.1951987061242445
7.855,0.002660121266303676,85.45997370609123,0,60,3.0,6,0.18729349896685255
7.86,0.0019992692560877024,85.0962841761263,0,60,3.0,6,0.17873609826179537
7.865,0.0014907520044639367,84.70998855024048,0,60,3.0,6,0.1696467894174231
7.87,0.0011028178277539807,84.3063103584825,0,60,3.0,6,0.1601484790231178
7.875,0.0008094059938923333,83.89046886840002,0,60,3.0,6,0.15036397337411814
7.88,0.0005893771793717645,83.4675696999641,0,60,3.0,6,0.1404134047050377
7.885,0.0004257792353490551,83.04250480764743,0,60,3.0,6,0.13041187782699842
7.89,0.0003051686392901525,82.61986439594673,0,60,3.0,6,0.12046739755168788
7.895,0.00021699992642659966,82.203862736115,0,60,3.0,6,0.11067912320270586
7.9,0.00015308884054097838,81.79827921088489,0,60,3.0,6,0.10113598143258554
7.905,0.00010714989329311098,81.4064152633843,0,60,3.0,6,0.09191565325610127
7.91,7.440535854020571e-05,81.0310672972994,0,60,3.0,6,0.08308393640704474
7.915,5.1260276743925106e-05,80.67451499519211,0,60,3.0,6,0.07469447047510852
7.92,3.503659887882241e-05,80.338524013543,0,60,3.0,6,0.06678880031865868
7.925,2.375894748103639e-05,80.02436159372127,0,60,3.0,6,0.059396743381676866
7.93,1.5984413869232557e-05,79.73282330872932,0,60,3.0,6,0.05253701902892524
7.935,1.0669166579899869e-05,79.4642689510973,0,60,3.0,6,0.046218092966995195
7.94,7.06526633560511e-06,79.21866545674996,0,60,3.0,6,0.040439187217646125
7.945,4.641847214699205e-06,78.99563474688391,0,60,3.0,6,0.03519140580903314
7.95,3.025641074479182e-06,78.79450444444629,0,60,3.0,6,0.030458928104618574
7.955,1.9566278676921314e-06,78.61435957004821,0,60,3.0,6,0.026220225177604896
7.96,1.2553456560008793e-06,78.45409352834312,0,60,3.0,6,0.02244925949042641
7.965,7.990660428214668e-07,78.31245694336336,0,60,3.0,6,0.01911663396149078
7.97,5.046221251618276e-07,78.18810317343045,0,60,3.0,6,0.01619066290424585
7.975,3.1616527078858815e-07,78.07962961742325,0,60,3.0,6,0.01363834393937061
7.98,1.9652884407760343e-07,77.98561420049717,0,60,3.0,6,0.01142621648228629
7.985,1.2120002189836396e-07,77.90464668712917,0,60,3.0,6,0.009521098520686418
7.99,7.415549848886236e-08,77.83535470349312,0,60,3.0,6,0.007890698905720563
7.995,4.501406988770349e-08,77.77642455318359,0,60,3.0,6,0.006504107133731489
8.0,0.0,77.72661707634573,0,60,3.0,6,0.005332166502252529
8.005,0.0,77.68477893086524,0,60,3.0,6,0.00434773954977024
8.01,0.0,77.6498497660474,0,60,3.0,6,0.0035258768481740204
8.015,0.0,77.62086581648374,0,60,3.0,6,0.002843901564323366
8.02,0.0,77.59696047016833,0,60,3.0,6,0.0022814228274900387
8.025,0.0,77.57736236484402,0,60,3.0,6,0.0018202909375063694
8.03,0.0,77.56139154495807,0,60,3.0,6,0.001444506940189887
8.035,0.0,77.54845417352878,0,60,3.0,6,0.0011400982006772237
8.04,0.0,77.53803624353917,0,60,3.0,6,0.0008949704362157049
8.045,0.0,77.52969667664992,0,60,3.0,6,0.0006987453329392846
8.05,0.0,77.52306013697444,0,60,3.0,6,0.000542591458222031
8.055,0.0,77.51780982764838,0,60,3.0,6,0.00041905476819712985
8.06,0.0,77.51368048053044,0,60,3.0,6,0.0003218936595397495
8.065,0.0,77.51045169649136,0,60,3.0,6,0.00024592227038490764
8.07,0.0,77.5079417466527,0,60,3.0,6,0.00018686462712246474
8.075,0.0,77.50600190434021,0,60,3.0,6,0.00014122127859316017
8.08,0.0,77.50451134365947,0,60,3.0,6,0.0001061492625758413
8.085,0.0,77.50337261335471,0,60,3.0,6,7.93556083461975e-05
8.09,0.0,77.50250767355982,0,60,3.0,6,5.9004083760448657e-05
8.095,0.0,77.50185446759158,0,60,3.0,6,4.363453156670135e-05
8.1,0.0,77.50136399034713,0,60,3.0,6,3.209389052070786e-05
8.105,0.0,77.50099780838069,0,60,3.0,6,2.347784425149471e-05
8.11,0.0,77.5007259835821,0,60,3.0,6,1.708196663765407e-05
8.115,0.0,77.50052535183445,0,60,3.0,6,1.2361219634225135e-05
8.12,0.0,77.50037810942973,0,60,3.0,6,8.896692464291204e-06
8.125,0.0,77.50027066279699,0,60,3.0,6,6.368536399831475e-06
8.13,0.0,77.50019270075849,0,60,3.0,6,4.53413549387412e-06
8.135,0.0,77.50013645268456,0,60,3.0,6,3.2106514013588928e-06
8.14,0.0,77.50009610025637,0,60,3.0,6,2.2611825028541394e-06
8.145,0.0,77.50006731483874,0,60,3.0,6,1.5838785587033378e-06
8.15,0.0,77.50004689654789,0,60,3.0,6,1.103448185551101e-06
8.155,0.0,77.50003249486535,0,60,3.0,6,7.645850670916629e-07
8.16,0.0,77.50002239403797,0,60,3.0,6,5.269185404652971e-07
8.165,0.001684486749771458,77.50001534948753,0,60,3.0,6,3.6116441238471665e-07
8.17,0.003097557930867117,77.50001046403425,0,60,3.0,6,2.4621257051983453e-07
8.175,0.005475106668887023,77.5000070949318,0,60,3.0,6,1.6693957183419758e-07
8.18,0.00930222931468658,77.50000478455003,0,60,3.0,6,1.125776477425354e-07
8.185,0.01519157517868857,77.50000320905956,0,60,3.0,6,7.550728368829262e-08
8.19,0.023847336626128316,77.50000214071206,0,60,3.0,6,5.036969542636464e-08
8.195,0.0359830743700859,77.50000142030801,0,60,3.0,6,3.3419011996931445e-08
8.2,0.05218887796857759,77.50000093723958,0,60,3.0,6,2.2052695920351922e-08
8.205,0.0727577001223134,77.50000061512375,0,60,3.0,6,1.447350006642142e-08
8.21,0.0974992498694751,77.50000040153017,0,60,3.0,6,9.447768768629483e-09
8.215,0.12558706050443358,77.50000026068598,0,60,3.0,6,6.133787752225865e-09
8.22,0.15549263588878245,77.50000016832978,0,60,3.0,6,3.960700630212908e-09
8.225,0.1850529723539114,77.50000010810557,0,60,3.0,6,2.5436604038772846e-09
8.23,0.21169159439317053,77.50000006905242,0,60,3.0,6,1.6247627975056221e-09
8.235,0.23277292922115492,77.50000004386858,0,60,3.0,6,1.0322019213216502e-09
8.24,0.24602692519491282,77.50000002771866,0,60,3.0,6,6.522036662371487e-10
8.245,0.24995056064839283,77.50000001741945,0,60,3.0,6,4.098694716958562e-10
8.25,0.24408826520424054,77.5000000108878,0,60,3.0,6,2.5618359198715016e-10
8.255,0.22911894216865275,77.50000000676847,0,60,3.0,6,1.592582066223258e-10
8.26,0.20672661788705934,77.50000000418488,0,60,3.0,6,9.846784825426499e-11
8.265,0.17928878030241233,77.50000000257349,0,60,3.0,6,6.05526191280018e-11
8.27,0.14946211903866036,77.500000001574,0,60,3.0,6,3.703515925307703e-11
8.275,0.1197651512573837,77.50000000095747,0,60,3.0,6,2.2528718759798827e-11
8.28,0.09224675744988023,77.50000000057929,0,60,3.0,6,1.3630383096717517e-11
8.285,0.06829565320281596,77.50000000034858,0,60,3.0,6,8.201836595510351e-12
8.29,0.04860224607515734,77.50000000020863,0,60,3.0,6,4.908930778208956e-12
8.295,0.03324612389699793,77.50000000012419,0,60,3.0,6,2.9220861024976544e-12
8.3,0.021859876340472782,77.50000000007353,0,60,3.0,6,1.730046171681298e-12
8.305,0.01381595518554205,77.50000000004329,0,60,3.0,6,1.0185003167648307e-12
8.31,0.008394095110402422,77.50000000002535,0,60,3.0,6,5.965215249863618e-13
8.315,0.0049052535271608,77.50000000001477,0,60,3.0,6,3.4741360115517367e-13
8.32,0.0027671663551903634,77.50000000000855,0,60,3.0,6,2.0129257737768484e-13
8.325,0.0015425553464444616,77.50000000000493,0,60,3.0,6,1.1602744908647282e-13
8.33,0.0009638206637011801,77.50000000000283,0,60,3.0,6,6.654023737235762e-14
8.335,0.0009804935156568228,77.5000000000016,0,60,3.0,6,3.778415488983121e-14
8.34,0.0018793744894085216,77.50000000000091,0,60,3.0,6,2.1399875335833605e-14
8.345,0.004535525206900863,77.50000000000051,0,60,3.0,6,1.2037429876406403e-14
8.35,0.010832767979632273,77.50000000000028,0,60,3.0,6,6.687461042448002e-15
8.355,0.024208003392322392,77.50000000000016,0,60,3.0,6,3.678103573346401e-15
8.36,0.0500971897335304,77.50000000000009,0,60,3.0,6,2.0062383127344005e-15
8.365,0.09582894921774403,77.50000000000004,0,60,3.0,6,1.0031191563672002e-15
8.37,0.16937896721820658,77.50000000000003,0,60,3.0,6,6.687461042448002e-16
8.375,0.27661303008991756,77.50000000000001,0,60,3.0,6,3.343730521224001e-16
8.38,0.4173782800009149,77.50000000000001,0,60,3.0,6,3.343730521224001e-16
8.385,0.5818720934538056,77.5,0,60,3.0,6,0.0
8.39,0.7494718801585675,77.5,0,60,3.0,6,0.0
8.395,0.891813020752378,77.5,0,60,3.0,6,0.0
8.4,0.9800361632936612,77.5,0,60,3.0,6,0.0
8.405,0.993574479225126,77.50000249065474,1,60,3.0,6,5.860364086295115e-08
8.41,0.9263438449375362,77.50000381481783,0,60,3.0,6,8.976041954156244e-08
8.415,0.7873015962290536,77.50000596523532,0,60,3.0,6,1.4035847805323155e-07
8.42,0.5959516244629897,77.50000962503476,0,60,3.0,6,2.2647140620874244e-07
8.425,0.376910120078773,77.50001618917643,0,60,3.0,6,3.809217984700594e-07
8.43,0.15739335672107918,77.5000285614158,0,60,3.0,6,6.720333130140395e-07
8.435,-0.033361226269301235,77.50005280883279,0,60,3.0,7,1.2425607715559796e-06
8.44,-0.1680180840843834,77.50010151190543,0,60,3.0,7,2.388515421818524e-06
8.445,-0.23069703190837854,77.50020036214238,0,60,3.0,7,4.714403350108649e-06
8.45,-0.22587267821131068,77.50040077561245,0,60,3.0,7,9.430014410541202e-06
8.455,-0.17718181630665902,77.50080326727193,0,60,3.0,7,1.8900406398442475e-05
8.46,-0.11494332516451301,77.50159937912407,0,60,3.0,7,3.763244997819182e-05
8.465,-0.061810214049552864,77.50314438198903,0,60,3.0,7,7.398545856544308e-05
8.47,-0.026546104631500547,77.5060789517361,0,60,3.0,7,0.00014303415849647481
8.475,-0.00719600351942686,77.5115253796782,0,60,3.0,7,0.00027118540419304043
8.48,0.0022072757983807078,77.5213917627598,0,60,3.0,7,0.0005033355943483537
8.485,0.006917199873730717,77.53882411894206,0,60,3.0,7,0.0009135086809896406
8.49,0.01004859748264829,77.56884815932884,0,60,3.0,7,0.0016199566900902884
8.495,0.013037082251128167,77.6192346558676,0,60,3.0,7,0.002805521314531782
8.5,0.01645163937690478,77.70159894500465,0,60,3.0,7,0.004743504588344649
8.505,0.020526639934696615,77.83270008287926,0,60,3.0,7,0.007828237244217797
8.51,0.02539629541761738,78.03583465142736,0,60,3.0,7,0.012607874151232115
8.515,0.031171612185577933,78.34212553437393,0,60,3.0,7,0.019814718455857288
8.52,0.03795853426638131,78.79139701937089,0,60,3.0,7,0.030385812220491543
8.525,0.0458588961882057,79.43222533468237,0,60,3.0,7,0.045464125521938153
8.53,0.054966995891435555,80.32069048739088,0,60,3.0,7,0.06636918793860887
8.535,0.06536491004445595,81.5173707975343,0,60,3.0,7,0.09452637170668936
8.54,0.07711726085088699,83.08225427174436,0,60,3.0,7,0.13134715933516145
8.545,0.09026570629555215,85.06751487992965,0,60,3.0,7,0.17805917364540344
8.55,0.10482339848670268,87.50851138218808,0,60,3.0,7,0.23549438546324883
8.555,0.12076968927580028,90.41386466435996,0,60,3.0,7,0.3038556391614109
8.56,0.13804539501007884,93.75596504105044,0,60,3.0,7,0.38249329508353985
8.565,0.15654895051787066,97.4636280918179,0,60,3.0,7,0.4697324256898328
8.57,0.17613378141900526,101.41872257270964,0,60,3.0,7,0.5627934722990504
8.575,0.19660720058055794,105.45833242352343,0,60,3.0,7,0.6578431158476101
8.58,0.21773108748496234,109.38335163215552,0,60,3.0,7,0.7501965089918947
8.585,0.23922453870058807,112.9734084393601,0,60,3.0,7,0.8346684338672965
8.59,0.2607685857914563,116.00683982528938,0,60,3.0,7,0.9060432900068088
8.595,0.2820129681603682,118.28333120453613,0,60,3.0,7,0.9596077930479089
8.6,0.30258482867153996,119.646064803065,0,60,3.0,7,0.9916721130132942
8.605,0.3220990771751686,120.0,0,60,3.0,7,1.0
8.61,0.3401700499968971,119.32334270778719,0,60,3.0,7,0.9840786519479339
8.615,0.3564239911198326,117.6702984466819,0,60,3.0,7,0.9451834928631034
8.62,0.3705118017738417,115.1646448291192,0,60,3.0,7,0.8862269371557459
8.625,0.3821214567925213,111.9851997850634,0,60,3.0,7,0.8114164655309035
8.63,0.39098947374066967,108.34557221481842,0,60,3.0,7,0.7257781697604334
8.635,0.3969108472035567,104.47139174943496,0,60,3.0,7,0.634620982339646
8.64,0.3997469255491936,100.57838099842344,0,60,3.0,7,0.5430207293746692
8.645,0.3994308076379137,96.85417087272945,0,60,3.0,7,0.45539225582892834
8.65,0.3959699661768434,93.44582268957237,0,60,3.0,7,0.37519582798993806
8.655,0.38944595408114946,90.45385471397468,0,60,3.0,7,0.30479658150528655
8.66,0.38001120995358023,87.93243962502166,0,60,3.0,7,0.24546916764756843
8.665,0.3678831374098315,85.89455992933536,0,60,3.0,7,0.19751905716083196
8.67,0.35333577933796634,84.32040601189054,0,60,3.0,7,0.160480141456248
8.675,0.33668953221163944,83.16719725117376,0,60,3.0,7,0.13334581767467674
8.68,0.3182994390982644,82.37883285219493,0,60,3.0,7,0.114796067110469
8.685,0.29854265738230645,81.89421459224894,0,60,3.0,7,0.10339328452350455
8.69,0.2778057157821067,81.65359406235096,0,60,3.0,7,0.09773162499649321
8.695,0.2564721553719815,81.60276811068044,0,60,3.0,7,0.09653572025130455
8.7,0.23491109433464996,81.6953041114732,0,60,3.0,7,0.0987130379170166
8.705,0.21346717185309805,81.89319219750705,0,60,3.0,7,0.10336922817663642
8.71,0.19245222055656455,82.16640283127366,0,60,3.0,7,0.10979771367702724
8.715,0.17213889801761392,82.49180664386697,0,60,3.0,7,0.11745427397334036
8.72,0.15275638501270183,82.85182970057085,0,60,3.0,7,0.12592540471931402
8.725,0.13448814019607322,83.23310877819486,0,60,3.0,7,0.13489667713399672
8.73,0.11747159495449566,83.62530580186197,0,60,3.0,7,0.14412484239675222
8.735,0.10179958433370105,84.02015461343919,0,60,3.0,7,0.15341540266915737
8.74,0.08752324394101413,84.41075278688982,0,60,3.0,7,0.1626059479268192
8.745,0.07465606047174059,84.79107511020709,0,60,3.0,7,0.17155470847546092
8.75,0.0631787448609295,85.15566858139451,0,60,3.0,7,0.18013337838575313
8.755,0.05304460019959574,85.49948511358731,0,60,3.0,7,0.18822317914323086
8.76,0.044185078305849994,85.81781198508382,0,60,3.0,7,0.19571322317844286
8.765,0.03651525513023255,86.1062671685372,0,60,3.0,7,0.2025004039655812
8.77,0.0299390014708757,86.36083432317702,0,60,3.0,7,0.20849021936887097
8.775,0.024353677220580638,86.57791901100559,0,60,3.0,7,0.21359809437660213
8.78,0.01965423034339045,86.75441307651025,0,60,3.0,7,0.21775089591788815
8.785,0.015736632374757337,86.88775811124916,0,60,3.0,7,0.22088842614703896
8.79,0.012500627640593535,86.97600175641713,0,60,3.0,7,0.2229647472098149
8.795,0.009851811652115898,87.017842589161,0,60,3.0,7,0.2239492373920237
8.8,0.007703084175428559,87.012660771883,0,60,3.0,7,0.22382731227960015
8.805,0.005975544002062424,86.96053273007563,0,60,3.0,7,0.22260077011942653
8.81,0.004598905818663047,86.86222900437889,0,60,3.0,7,0.2202877412795033
8.815,0.0035115256454839104,86.719195178689,0,60,3.0,7,0.21692223949856484
8.82,0.002660121266303676,86.53351645798008,0,60,3.0,7,0.21255332842306082
8.825,0.0019992692560877024,86.30786706938648,0,60,3.0,7,0.20724393104438765
8.83,0.0014907520044639367,86.04544618487417,0,60,3.0,7,0.2010693219970392
8.835,0.0011028178277539807,85.74990250322291,0,60,3.0,7,0.19411535301700972
8.84,0.0008094059938923333,85.42524997119911,0,60,3.0,7,0.18647646991056724
8.845,0.0005893771793717645,85.0757773587906,0,60,3.0,7,0.17825358491272006
8.85,0.0004257792353490551,84.70595452519278,0,60,3.0,7,0.1695518711810066
8.855,0.0003051686392901525,84.32033821979824,0,60,3.0,7,0.160478546348194
