Time,ECG,Pressure,R_Peaks,mean_hr,hrv_scale,Phase_Bin,Normalized_Pressure
0.0,0.001684486749771458,77.5,0,60,3.0,0,0.0
0.005,0.003097557930867117,77.5,0,60,3.0,0,0.0
0.01,0.005475106668887023,77.5,0,60,3.0,0,0.0
0.015,0.00930222931468658,77.5,0,60,3.0,0,0.0
0.02,0.01519157517868857,77.5,0,60,3.0,0,0.0
0.025,0.023847336626128316,77.5,0,60,3.0,0,0.0
0.03,0.0359830743700859,77.5,0,60,3.0,0,0.0
0.035,0.05218887796857759,77.5,0,60,3.0,0,0.0
0.04,0.0727577001223134,77.5,0,60,3.0,0,0.0
0.045,0.0974992498694751,77.5,0,60,3.0,0,0.0
0.05,0.12558706050443358,77.5,0,60,3.0,0,0.0
0.055,0.15549263588878245,77.5,0,60,3.0,0,0.0
0.06,0.1850529723539114,77.5,0,60,3.0,0,0.0
0.065,0.21169159439317053,77.5,0,60,3.0,0,0.0
0.07,0.23277292922115492,77.5,0,60,3.0,0,0.0
0.075,0.24602692519491282,77.5,0,60,3.0,0,0.0
0.08,0.24995056064839283,77.5,0,60,3.0,0,0.0
0.085,0.24408826520424054,77.5,0,60,3.0,0,0.0
0.09,0.22911894216865275,77.5,0,60,3.0,0,0.0
0.095,0.20672661788705934,77.5,0,60,3.0,0,0.0
0.1,0.17928878030241233,77.5,0,60,3.0,0,0.0
0.105,0.14946211903866036,77.5,0,60,3.0,0,0.0
0.11,0.1197651512573837,77.5,0,60,3.0,0,0.0
0.115,0.09224675744988023,77.5,0,60,3.0,0,0.0
0.12,0.06829565320281596,77.5,0,60,3.0,0,0.0
0.125,0.04860224607515734,77.5,0,60,3.0,0,0.0
0.13,0.03324612389699793,77.5,0,60,3.0,0,0.0
0.135,0.021859876340472782,77.5,0,60,3.0,0,0.0
0.14,0.01381595518554205,77.5,0,60,3.0,0,0.0
0.145,0.008394095110402422,77.5,0,60,3.0,0,0.0
0.15,0.0049052535271608,77.5,0,60,3.0,0,0.0
0.155,0.0027671663551903634,77.5,0,60,3.0,0,0.0
0.16,0.0015425553464444616,77.5,0,60,3.0,0,0.0
0.165,0.0009638206637011801,77.5,0,60,3.0,0,0.0
0.17,0.0009804935156568228,77.5,0,60,3.0,0,0.0
0.175,0.0018793744894085216,77.5,0,60,3.0,0,0.0
0.18,0.004535525206900863,77.5,0,60,3.0,0,0.0
0.185,0.010832767979632273,77.5,0,60,3.0,0,0.0
0.19,0.024208003392322392,77.5,0,60,3.0,0,0.0
0.195,0.0500971897335304,77.5,0,60,3.0,0,0.0
0.2,0.09582894921774403,77.5,0,60,3.0,0,0.0
0.205,0.16937896721820658,77.5,0,60,3.0,0,0.0
0.21,0.27661303008991756,77.5,0,60,3.0,0,0.0
0.215,0.4173782800009149,77.5,0,60,3.0,0,0.0
0.22,0.5818720934538056,77.5,0,60,3.0,0,0.0
0.225,0.7494718801585675,77.5,0,60,3.0,0,0.0
0.23,0.891813020752378,77.5,0,60,3.0,0,0.0
0.235,0.9800361632936612,77.5,0,60,3.0,0,0.0
0.24,0.993574479225126,77.5,0,60,3.0,0,0.0
0.245,0.9263438449375362,77.5,0,60,3.0,0,0.0
0.25,0.7873015962290536,77.5,0,60,3.0,0,0.0
0.255,0.5959516244629897,77.5,0,60,3.0,0,0.0
0.26,0.376910120078773,77.5,0,60,3.0,0,0.0
0.265,0.15739335672107918,77.5,0,60,3.0,0,0.0
0.27,-0.033361226269301235,77.5,0,60,3.0,0,0.0
0.275,-0.1680180840843834,77.5,0,60,3.0,0,0.0
0.28,-0.23069703190837854,77.5,0,60,3.0,0,0.0
0.285,-0.22587267821131068,77.5,0,60,3.0,0,0.0
0.29,-0.17718181630665902,77.5,0,60,3.0,0,0.0
0.295,-0.11494332516451301,77.5,0,60,3.0,0,0.0
0.3,-0.061810214049552864,77.5,0,60,3.0,0,0.0
0.305,-0.026546104631500547,77.5,0,60,3.0,0,0.0
0.31,-0.00719600351942686,77.5,0,60,3.0,0,0.0
0.315,0.0022072757983807078,77.5,0,60,3.0,0,0.0
0.32,0.006917199873730717,77.5,0,60,3.0,0,0.0
0.325,0.01004859748264829,77.5,0,60,3.0,0,0.0
0.33,0.013037082251128167,77.5,0,60,3.0,0,0.0
0.335,0.01645163937690478,77.5,0,60,3.0,0,0.0
0.34,0.020526639934696615,77.5,0,60,3.0,0,0.0
0.345,0.02539629541761738,77.5,0,60,3.0,0,0.0
0.35,0.031171612185577933,77.5,0,60,3.0,0,0.0
0.355,0.03795853426638131,77.5,0,60,3.0,0,0.0
0.36,0.0458588961882057,77.5,0,60,3.0,0,0.0
0.365,0.054966995891435555,77.5,0,60,3.0,0,0.0
0.37,0.06536491004445595,77.5,0,60,3.0,0,0.0
0.375,0.07711726085088699,77.5,0,60,3.0,0,0.0
0.38,0.09026570629555215,77.5,0,60,3.0,0,0.0
0.385,0.10482339848670268,77.5,0,60,3.0,0,0.0
0.39,0.12076968927580028,77.5,0,60,3.0,0,0.0
0.395,0.13804539501007884,77.5,0,60,3.0,0,0.0
0.4,0.15654895051787066,77.5,0,60,3.0,0,0.0
0.405,0.17613378141900526,77.5,0,60,3.0,0,0.0
0.41,0.19660720058055794,77.5,0,60,3.0,0,0.0
0.415,0.21773108748496234,77.5,0,60,3.0,0,0.0
0.42,0.23922453870058807,77.5,0,60,3.0,0,0.0
0.425,0.2607685857914563,77.5,0,60,3.0,0,0.0
0.43,0.2820129681603682,77.5,0,60,3.0,0,0.0
0.435,0.30258482867153996,77.5,0,60,3.0,0,0.0
0.44,0.3220990771751686,77.5,0,60,3.0,0,0.0
0.445,0.3401700499968971,77.5,0,60,3.0,0,0.0
0.45,0.3564239911198326,77.5,0,60,3.0,0,0.0
0.455,0.3705118017738417,77.5,0,60,3.0,0,0.0
0.46,0.3821214567925213,77.5,0,60,3.0,0,0.0
0.465,0.39098947374066967,77.5,0,60,3.0,0,0.0
0.47,0.3969108472035567,77.5,0,60,3.0,0,0.0
0.475,0.3997469255491936,77.5,0,60,3.0,0,0.0
0.48,0.3994308076379137,77.5,0,60,3.0,0,0.0
0.485,0.3959699661768434,77.5,0,60,3.0,0,0.0
0.49,0.38944595408114946,77.5,0,60,3.0,0,0.0
0.495,0.38001120995358023,77.5,0,60,3.0,0,0.0
0.5,0.3678831374098315,77.5,0,60,3.0,0,0.0
0.505,0.35333577933796634,77.5,0,60,3.0,0,0.0
0.51,0.33668953221163944,77.5,0,60,3.0,0,0.0
0.515,0.3182994390982644,77.5,0,60,3.0,0,0.0
0.52,0.29854265738230645,77.5,0,60,3.0,0,0.0
0.525,0.2778057157821067,77.5,0,60,3.0,0,0.0
0.53,0.2564721553719815,77.5,0,60,3.0,0,0.0
0.535,0.23491109433464996,77.5,0,60,3.0,0,0.0
0.54,0.21346717185309805,77.5,0,60,3.0,0,0.0
0.545,0.19245222055656455,77.5,0,60,3.0,0,0.0
0.55,0.17213889801761392,77.5,0,60,3.0,0,0.0
0.555,0.15275638501270183,77.5,0,60,3.0,0,0.0
0.56,0.13448814019607322,77.5,0,60,3.0,0,0.0
0.565,0.11747159495449566,77.5,0,60,3.0,0,0.0
0.57,0.10179958433370105,77.5,0,60,3.0,0,0.0
0.575,0.08752324394101413,77.5,0,60,3.0,0,0.0
0.58,0.07465606047174059,77.5,0,60,3.0,0,0.0
0.585,0.0631787448609295,77.5,0,60,3.0,0,0.0
0.59,0.05304460019959574,77.5,0,60,3.0,0,0.0
0.595,0.044185078305849994,77.5,0,60,3.0,0,0.0
0.6,0.03651525513023255,77.5,0,60,3.0,0,0.0
0.605,0.0299390014708757,77.5,0,60,3.0,0,0.0
0.61,0.024353677220580638,77.5,0,60,3.0,0,0.0
0.615,0.01965423034339045,77.5,0,60,3.0,0,0.0
0.62,0.015736632374757337,77.5,0,60,3.0,0,0.0
0.625,0.012500627640593535,77.5,0,60,3.0,0,0.0
0.63,0.009851811652115898,77.5,0,60,3.0,0,0.0
0.635,0.007703084175428559,77.5,0,60,3.0,0,0.0
0.64,0.005975544002062424,77.5,0,60,3.0,0,0.0
0.645,0.004598905818663047,77.5,0,60,3.0,0,0.0
0.65,0.0035115256454839104,77.5,0,60,3.0,0,0.0
0.655,0.002660121266303676,77.5,0,60,3.0,0,0.0
0.66,0.0019992692560877024,77.5,0,60,3.0,0,0.0
0.665,0.0014907520044639367,77.5,0,60,3.0,0,0.0
0.67,0.0011028178277539807,77.5,0,60,3.0,0,0.0
0.675,0.0008094059938923333,77.5,0,60,3.0,0,0.0
0.68,0.0005893771793717645,77.5,0,60,3.0,0,0.0
0.685,0.0004257792353490551,77.5,0,60,3.0,0,0.0
0.69,0.0003051686392901525,77.5,0,60,3.0,0,0.0
0.695,0.00021699992642659966,77.5,0,60,3.0,0,0.0
0.7,0.00015308884054097838,77.5,0,60,3.0,0,0.0
0.705,0.00010714989329311098,77.5,0,60,3.0,0,0.0
0.71,7.440535854020571e-05,77.5,0,60,3.0,0,0.0
0.715,5.1260276743925106e-05,77.5,0,60,3.0,0,0.0
0.72,3.503659887882241e-05,77.5,0,60,3.0,0,0.0
0.725,2.375894748103639e-05,77.5,0,60,3.0,0,0.0
0.73,1.5984413869232557e-05,77.5,0,60,3.0,0,0.0
0.735,1.0669166579899869e-05,77.5,0,60,3.0,0,0.0
0.74,7.06526633560511e-06,77.5,0,60,3.0,0,0.0
0.745,4.641847214699205e-06,77.5,0,60,3.0,0,0.0
0.75,3.025641074479182e-06,77.5,0,60,3.0,0,0.0
0.755,1.9566278676921314e-06,77.5,0,60,3.0,0,0.0
0.76,1.2553456560008793e-06,77.5,0,60,3.0,0,0.0
0.765,7.990660428214668e-07,77.5,0,60,3.0,0,0.0
0.77,5.046221251618276e-07,77.5,0,60,3.0,0,0.0
0.775,3.1616527078858815e-07,77.5,0,60,3.0,0,0.0
0.78,1.9652884407760343e-07,77.5,0,60,3.0,0,0.0
0.785,1.2120002189836396e-07,77.5,0,60,3.0,0,0.0
0.79,7.415549848886236e-08,77.5,0,60,3.0,0,0.0
0.795,4.501406988770349e-08,77.5,0,60,3.0,0,0.0
0.8,0.0,77.5,0,60,3.0,0,0.0
0.805,0.0,77.5,0,60,3.0,0,0.0
0.81,0.0,77.5,0,60,3.0,0,0.0
0.815,0.0,77.5,0,60,3.0,0,0.0
0.82,0.0,77.5,0,60,3.0,0,0.0
0.825,0.0,77.5,0,60,3.0,0,0.0
0.83,0.0,77.5,0,60,3.0,0,0.0
0.835,0.0,77.5,0,60,3.0,0,0.0
0.84,0.0,77.5,0,60,3.0,0,0.0
0.845,0.0,77.5,0,60,3.0,0,0.0
0.85,0.0,77.5,0,60,3.0,0,0.0
0.855,0.0,77.5,0,60,3.0,0,0.0
0.86,0.0,77.5,0,60,3.0,0,0.0
0.865,0.0,77.5,0,60,3.0,0,0.0
0.87,0.0,77.5,0,60,3.0,0,0.0
0.875,0.0,77.5,0,60,3.0,0,0.0
0.88,0.0,77.5,0,60,3.0,0,0.0
0.885,0.0,77.5,0,60,3.0,0,0.0
0.89,0.0,77.5,0,60,3.0,0,0.0
0.895,0.0,77.5,0,60,3.0,0,0.0
0.9,0.0,77.5,0,60,3.0,0,0.0
0.905,0.0,77.5,0,60,3.0,0,0.0
0.91,0.0,77.5,0,60,3.0,0,0.0
0.915,0.0,77.5,0,60,3.0,0,0.0
0.92,0.0,77.5,0,60,3.0,0,0.0
0.925,0.0,77.5,0,60,3.0,0,0.0
0.93,0.0,77.5,0,60,3.0,0,0.0
0.935,0.0,77.5,0,60,3.0,0,0.0
0.94,0.0,77.5,0,60,3.0,0,0.0
0.945,0.0,77.5,0,60,3.0,0,0.0
0.95,0.0,77.5,0,60,3.0,0,0.0
0.955,0.0,77.5,0,60,3.0,0,0.0
0.96,0.0,77.5,0,60,3.0,0,0.0
0.965,0.0,77.5,0,60,3.0,0,0.0
0.97,0.0,77.5,0,60,3.0,0,0.0
0.975,0.0,77.5,0,60,3.0,0,0.0
0.98,0.0,77.5,0,60,3.0,0,0.0
0.985,0.0,77.5,0,60,3.0,0,0.0
0.99,0.0,77.5,0,60,3.0,0,0.0
0.995,0.0,77.5,0,60,3.0,0,0.0
1.0,0.0,77.5,0,60,3.0,0,0.0
1.005,0.0,77.5,0,60,3.0,0,0.0
1.01,0.0,77.5,0,60,3.0,0,0.0
1.015,0.0,77.5,0,60,3.0,0,0.0
1.02,0.0,77.5,0,60,3.0,0,0.0
1.025,0.0,77.5,0,60,3.0,0,0.0
1.03,0.0,77.5,0,60,3.0,0,0.0
1.035,0.0,77.5,0,60,3.0,0,0.0
1.04,0.0,77.5,0,60,3.0,0,0.0
1.045,0.0,77.5,0,60,3.0,0,0.0
1.05,0.001684486749771458,77.5,0,60,3.0,0,0.0
1.055,0.003097557930867117,77.5,0,60,3.0,0,0.0
1.06,0.005475106668887023,77.5,0,60,3.0,0,0.0
1.065,0.00930222931468658,77.5,0,60,3.0,0,0.0
1.07,0.01519157517868857,77.5,0,60,3.0,0,0.0
1.075,0.023847336626128316,77.5,0,60,3.0,0,0.0
1.08,0.0359830743700859,77.5,0,60,3.0,0,0.0
1.085,0.05218887796857759,77.5,0,60,3.0,0,0.0
1.09,0.0727577001223134,77.5,0,60,3.0,0,0.0
1.095,0.0974992498694751,77.5,0,60,3.0,0,0.0
1.1,0.12558706050443358,77.5,0,60,3.0,0,0.0
1.105,0.15549263588878245,77.5,0,60,3.0,0,0.0
1.11,0.1850529723539114,77.5,0,60,3.0,0,0.0
1.115,0.21169159439317053,77.5,0,60,3.0,0,0.0
1.12,0.23277292922115492,77.5,0,60,3.0,0,0.0
1.125,0.24602692519491282,77.5,0,60,3.0,0,0.0
1.13,0.24995056064839283,77.5,0,60,3.0,0,0.0
1.135,0.24408826520424054,77.5,0,60,3.0,0,0.0
1.14,0.22911894216865275,77.5,0,60,3.0,0,0.0
1.145,0.20672661788705934,77.5,0,60,3.0,0,0.0
1.15,0.17928878030241233,77.5,0,60,3.0,0,0.0
1.155,0.14946211903866036,77.5,0,60,3.0,0,0.0
1.16,0.1197651512573837,77.5,0,60,3.0,0,0.0
1.165,0.09224675744988023,77.5,0,60,3.0,0,0.0
1.17,0.06829565320281596,77.5,0,60,3.0,0,0.0
1.175,0.04860224607515734,77.5,0,60,3.0,0,0.0
1.18,0.03324612389699793,77.5,0,60,3.0,0,0.0
1.185,0.021859876340472782,77.5,0,60,3.0,0,0.0
1.19,0.01381595518554205,77.5,0,60,3.0,0,0.0
1.195,0.008394095110402422,77.5,0,60,3.0,0,0.0
1.2,0.0049052535271608,77.5,0,60,3.0,0,0.0
1.205,0.0027671663551903634,77.5,0,60,3.0,1,0.0
1.21,0.0015425553464444616,77.5,0,60,3.0,1,0.0
1.215,0.0009638206637011801,77.5,0,60,3.0,1,0.0
1.22,0.0009804935156568228,77.5,0,60,3.0,1,0.0
1.225,0.0018793744894085216,77.5,0,60,3.0,1,0.0
1.23,0.004535525206900863,77.5,0,60,3.0,1,0.0
1.235,0.010832767979632273,77.5,0,60,3.0,1,0.0
1.24,0.024208003392322392,77.5,0,60,3.0,1,0.0
1.245,0.0500971897335304,77.5,0,60,3.0,1,0.0
1.25,0.09582894921774403,77.5,0,60,3.0,1,0.0
1.255,0.16937896721820658,77.5,0,60,3.0,1,0.0
1.26,0.27661303008991756,77.5,0,60,3.0,1,0.0
1.265,0.4173782800009149,77.5,0,60,3.0,1,0.0
1.27,0.5818720934538056,77.5,0,60,3.0,1,0.0
1.275,0.7494718801585675,77.5,0,60,3.0,1,0.0
1.28,0.891813020752378,77.5,0,60,3.0,1,0.0
1.285,0.9800361632936612,77.5,0,60,3.0,1,0.0
1.29,0.993574479225126,77.50000248994282,1,60,3.0,1,5.8586889776158976e-08
1.295,0.9263438449375362,77.50000380552395,0,60,3.0,1,8.954173989984744e-08
1.3,0.7873015962290536,77.50000593638781,0,60,3.0,1,1.39679713129226e-07
1.305,0.5959516244629897,77.50000955146527,0,60,3.0,1,2.2474035925851614e-07
1.31,0.376910120078773,77.50001601150335,0,60,3.0,1,3.7674125524865623e-07
1.315,0.15739335672107918,77.50002813833666,0,60,3.0,1,6.62078509642871e-07
1.32,-0.033361226269301235,77.50005180683414,0,60,3.0,1,1.2189843326215102e-06
1.325,-0.1680180840843834,77.50009915896051,0,60,3.0,1,2.3331520119828543e-06
1.33,-0.23069703190837854,77.5001949173451,0,60,3.0,1,4.586290472897257e-06
1.335,-0.22587267821131068,77.50038842890842,0,60,3.0,1,9.13950372759085e-06
1.34,-0.17718181630665902,77.50077594134726,0,60,3.0,1,1.8257443464870662e-05
1.345,-0.11494332516451301,77.50154050202146,0,60,3.0,1,3.6247106387196145e-05
1.35,-0.061810214049552864,77.50302106429805,0,60,3.0,1,7.108386583655267e-05
1.355,-0.026546104631500547,77.50582806699363,0,60,3.0,1,0.00013713098808539945
1.36,-0.00719600351942686,77.5110297722934,0,60,3.0,1,0.00025952405396230247
1.365,0.0022072757983807078,77.52044123887686,0,60,3.0,1,0.00048097032651425893
1.37,0.006917199873730717,77.53705421595274,0,60,3.0,1,0.0008718639047702602
1.375,0.01004859748264829,77.5656483921687,0,60,3.0,1,0.0015446680510281647
1.38,0.013037082251128167,77.61361778133262,0,60,3.0,1,0.002673359560767561
1.385,0.01645163937690478,77.69202488768812,0,60,3.0,1,0.004518232651485184
1.39,0.020526639934696615,77.81685387265462,0,60,3.0,1,0.007455385238932208
1.395,0.02539629541761738,78.01036829501618,0,60,3.0,1,0.012008665765086548
1.4,0.031171612185577933,78.30238982620193,0,60,3.0,1,0.018879760616516035
1.405,0.03795853426638131,78.73121019613063,0,60,3.0,1,0.02896965167366194
1.41,0.0458588961882057,79.34374842619829,0,60,3.0,1,0.043382315910547975
1.415,0.054966995891435555,80.19449891225777,0,60,3.0,1,0.0633999744060652
1.42,0.06536491004445595,81.34282055819683,0,60,3.0,1,0.09041930725169021
1.425,0.07711726085088699,82.84823024479076,0,60,3.0,1,0.12584071164213542
1.43,0.09026570629555215,84.76361058293982,0,60,3.0,1,0.17090848430446634
1.435,0.10482339848670268,87.12662098861364,0,60,3.0,1,0.2265087291438503
1.44,0.12076968927580028,89.95007326204762,0,60,3.0,1,0.29294290028347353
1.445,0.13804539501007884,93.21251614850307,0,60,3.0,1,0.3697062623177193
1.45,0.15654895051787066,96.85065144980784,0,60,3.0,1,0.45530944587783156
1.455,0.17613378141900526,100.75534889717845,0,60,3.0,1,0.5471846799336106
1.46,0.19660720058055794,104.77283232444243,0,60,3.0,1,0.6417137017515867
1.465,0.21773108748496234,108.71203014349793,0,60,3.0,1,0.7344007092587748
1.47,0.23922453870058807,112.35816304783853,0,60,3.0,1,0.8201920717138478
1.475,0.2607685857914563,115.49152435431921,0,60,3.0,1,0.8939182201016285
1.48,0.2820129681603682,117.90931557476307,0,60,3.0,1,0.9508074252885428
1.485,0.30258482867153996,119.44758504432397,0,60,3.0,1,0.987002001042917
1.49,0.3220990771751686,120.0,0,60,3.0,1,1.0
1.495,0.3401700499968971,119.53048331157143,0,60,3.0,1,0.9889525485075631
1.5,0.3564239911198326,118.07764512178605,0,60,3.0,1,0.954768120512613
1.505,0.3705118017738417,115.75027089627324,0,60,3.0,1,0.9000063740299585
1.51,0.3821214567925213,112.71461532107598,0,60,3.0,1,0.8285791840253173
1.515,0.39098947374066967,109.17558029645926,0,60,3.0,1,0.7453077716813943
1.52,0.3969108472035567,105.35475009686118,0,60,3.0,1,0.6554058846320278
1.525,0.3997469255491936,101.46855261644002,0,60,3.0,1,0.5639659439162358
1.53,0.3994308076379137,97.70949370222844,0,60,3.0,1,0.47551749887596334
1.535,0.3959699661768434,94.23259379733645,0,60,3.0,1,0.3937080893490929
1.54,0.38944595408114946,91.14806229054459,0,60,3.0,1,0.3211308774245785
1.545,0.38001120995358023,88.5201284436027,0,60,3.0,1,0.25929713984947533
1.55,0.3678831374098315,86.37103019757335,0,60,3.0,1,0.20873012229584345
1.555,0.35333577933796634,84.68858588314299,0,60,3.0,1,0.16914319725042332
1.56,0.33668953221163944,83.43558240598455,0,60,3.0,1,0.13966076249375406
1.565,0.3182994390982644,82.5593606642362,0,60,3.0,1,0.11904378033496929
1.57,0.29854265738230645,82.00035857665452,0,60,3.0,1,0.10589079003892989
1.575,0.2778057157821067,81.69885586979706,0,60,3.0,1,0.09879660870110724
1.58,0.2564721553719815,81.59963653358932,0,60,3.0,1,0.09646203608445456
1.585,0.23491109433464996,81.65466301792299,0,60,3.0,1,0.09775677689230552
1.59,0.21346717185309805,81.82410177142309,0,60,3.0,1,0.10174357109230794
1.595,0.19245222055656455,82.07615171988677,0,60,3.0,1,0.10767415811498274
1.6,0.17213889801761392,82.3861310312197,0,60,3.0,1,0.1149677889698754
1.605,0.15275638501270183,82.73521037592705,0,60,3.0,1,0.12318142061004832
1.61,0.13448814019607322,83.10908026135901,0,60,3.0,1,0.13197835909080027
1.615,0.11747159495449566,83.4967355800674,0,60,3.0,1,0.1410996607074681
1.62,0.10179958433370105,83.8894711137067,0,60,3.0,1,0.15034049679309894
1.625,0.08752324394101413,84.28011585858825,0,60,3.0,1,0.1595321378491352
1.63,0.07465606047174059,84.66249236323388,0,60,3.0,1,0.1685292320760913
1.635,0.0631787448609295,85.03106583868113,0,60,3.0,1,0.17720154914543834
1.64,0.05304460019959574,85.38074083876755,0,60,3.0,1,0.1854291962062953
1.645,0.044185078305849994,85.70676514941869,0,60,3.0,1,0.19310035645691026
1.65,0.03651525513023255,86.00470666351954,0,60,3.0,1,0.20011074502398923
1.655,0.0299390014708757,86.27047640104377,0,60,3.0,1,0.20636415061279448
1.66,0.024353677220580638,86.50037773141064,0,60,3.0,1,0.21177359368025028
1.665,0.01965423034339045,86.69116751454428,0,60,3.0,1,0.2162627650481006
1.67,0.015736632374757337,86.84011916090118,0,60,3.0,1,0.2197675096682631
1.675,0.012500627640593535,86.94508069587606,0,60,3.0,1,0.22223719284414253
1.68,0.009851811652115898,87.00452308891684,0,60,3.0,1,0.2236358373862786
1.685,0.007703084175428559,87.01757565612239,0,60,3.0,1,0.22394295661464445
1.69,0.005975544002062424,86.98404649438511,0,60,3.0,1,0.22315403516200263
1.695,0.004598905818663047,86.9044268139302,0,60,3.0,1,0.22128063091600472
1.7,0.0035115256454839104,86.77987880203669,0,60,3.0,1,0.21835008945968687
1.705,0.002660121266303676,86.61220732526297,0,60,3.0,1,0.2144048782414817
1.71,0.0019992692560877024,86.40381638099026,0,60,3.0,1,0.20950156190565328
1.715,0.0014907520044639367,86.15765174322021,0,60,3.0,1,0.2037094527816521
1.72,0.0011028178277539807,85.87713170445551,0,60,3.0,1,0.19710898128130605
1.725,0.0008094059938923333,85.56606818397677,0,60,3.0,1,0.18978983962298276
1.73,0.0005893771793717645,85.22858074240006,0,60,3.0,1,0.18184895864470718
1.735,0.0004257792353490551,84.86900620562017,0,60,3.0,1,0.17338838130870982
1.74,0.0003051686392901525,84.49180665504765,0,60,3.0,1,0.16451309776582715
1.745,0.00021699992642659966,84.10147848725309,0,60,3.0,1,0.15532890558242562
1.75,0.00015308884054097838,83.70246509143067,0,60,3.0,1,0.1459403550924863
1.755,0.00010714989329311098,83.29907544860849,0,60,3.0,1,0.13644883408490566
1.76,7.440535854020571e-05,82.89541063710034,0,60,3.0,1,0.12695083852000802
1.765,5.1260276743925106e-05,82.49529985192366,0,60,3.0,1,0.11753646710408615
1.77,3.503659887882241e-05,82.10224713113755,0,60,3.0,1,0.10828816779147166
1.775,2.375894748103639e-05,81.71938954924038,0,60,3.0,1,0.09927975409977353
1.78,1.5984413869232557e-05,81.34946720642466,0,60,3.0,1,0.09057569897469794
1.785,1.0669166579899869e-05,80.99480493070575,0,60,3.0,1,0.0822307042519001
1.79,7.06526633560511e-06,80.65730523356406,0,60,3.0,1,0.07428953490738964
1.795,4.641847214699205e-06,80.33845173171007,0,60,3.0,1,0.06678709956964861
1.8,3.025641074479182e-06,80.03932197752341,0,60,3.0,1,0.059748752412315635
1.805,1.9566278676921314e-06,79.7606084347192,0,60,3.0,1,0.05319078669927535
1.81,1.2553456560008793e-06,79.50264619642017,0,60,3.0,1,0.0471210869745923
1.815,7.990660428214668e-07,79.26544596930036,0,60,3.0,1,0.04153990516000844
1.82,5.046221251618276e-07,79.04873083608925,0,60,3.0,1,0.03644072555504114
1.825,3.1616527078858815e-07,78.85197535329688,0,60,3.0,1,0.03181118478345598
1.83,1.9652884407760343e-07,78.67444563345711,0,60,3.0,1,0.027634014904873203
1.835,1.2120002189836396e-07,78.51523919213612,0,60,3.0,1,0.023887980991438153
1.84,7.415549848886236e-08,78.37332349940569,0,60,3.0,1,0.020548788221310253
1.845,4.501406988770349e-08,78.24757235335397,0,60,3.0,1,0.01758993772597585
1.85,0.0,78.13679937985393,0,60,3.0,1,0.014983514820092376
1.855,0.0,78.03978814945174,0,60,3.0,1,0.012700897634158537
1.86,0.0,77.95531858127889,0,60,3.0,1,0.010713378383032665
1.865,0.0,77.88218946913811,0,60,3.0,1,0.008992693391484983
1.87,0.0,77.81923711168028,0,60,3.0,1,0.007511461451300714
1.875,0.0,77.7653501537141,0,60,3.0,1,0.006243533028566952
1.88,0.0,77.71948084745911,0,60,3.0,1,0.005164255234331998
1.885,0.0,77.68065302056385,0,60,3.0,1,0.004250659307384761
1.89,0.0,77.647967092686,0,60,3.0,1,0.0034815786514353505
1.895,0.0,77.62060251599861,0,60,3.0,1,0.0028377062587908847
1.9,0.0,77.59781802945105,0,60,3.0,1,0.0023016006929658353
1.905,0.0,77.57895011472735,0,60,3.0,1,0.0018576497582905498
1.91,0.0,77.56341002660088,0,60,3.0,1,0.001492000625902994
1.915,0.0,77.55067974482027,0,60,3.0,1,0.0011924645840063958
1.92,0.0,77.54030716171373,0,60,3.0,1,0.0009484038050288745
1.925,0.0,77.53190078207007,0,60,3.0,1,0.0007506066369427679
1.93,0.0,77.52512417193833,0,60,3.0,1,0.0005911569867842392
1.935,0.0,77.51969035280118,0,60,3.0,1,0.0004633024188512322
1.94,0.0,77.515356298754,0,60,3.0,1,0.00036132467656470373
1.945,0.0,77.5119176580947,0,60,3.0,1,0.0002804154845812397
1.95,0.0,77.50920378796964,0,60,3.0,1,0.00021655971693268624
1.955,0.0,77.50707316196097,0,60,3.0,1,0.0001664273402582239
1.96,0.0,77.5054091859877,0,60,3.0,1,0.00012727496441651537
1.965,0.0,77.50411643763564,0,60,3.0,1,9.685735613281983e-05
1.97,0.0,77.50311732785518,0,60,3.0,1,7.334889071009511e-05
1.975,0.0,77.50234917155994,0,60,3.0,1,5.527462493981094e-05
1.98,0.0,77.50176164462405,0,60,3.0,1,4.1450461742442714e-05
1.985,0.0,77.50131459866044,0,60,3.0,1,3.0931733186889686e-05
1.99,0.0,77.50097620130107,0,60,3.0,1,2.296944237815189e-05
1.995,0.0,77.50072136803325,0,60,3.0,1,1.6973365488330967e-05
2.0,0.0,77.50053045154435,0,60,3.0,1,1.2481212808231303e-05
2.005,0.0,77.50038815560109,0,60,3.0,1,9.133072966746756e-06
2.01,0.0,77.50028264239916,0,60,3.0,1,6.650409391915994e-06
2.015,0.0,77.50020480477525,0,60,3.0,1,4.818935888258292e-06
2.02,0.0,77.50014767744172,0,60,3.0,1,3.4747633345191655e-06
2.025,0.0,77.50010596429578,0,60,3.0,1,2.4932775478619614e-06
2.03,0.0,77.50007566172987,0,60,3.0,1,1.7802759968537216e-06
2.035,0.0,77.50005376062273,0,60,3.0,1,1.2649558290350423e-06
2.04,0.0,77.50003801225458,0,60,3.0,1,8.94405990065399e-07
2.045,0.0,77.50002674571927,0,60,3.0,1,6.293110415941449e-07
2.05,0.0,77.50001872648421,0,60,3.0,1,4.4062315797579207e-07
2.055,0.0,77.50001304756682,0,60,3.0,1,3.070015723364229e-07
2.06,0.0,77.50000904636538,0,60,3.0,1,2.128556559455319e-07
2.065,0.001684486749771458,77.50000624151522,0,60,3.0,1,1.4685918171487762e-07
2.07,0.003097557930867117,77.5000042852608,0,60,3.0,1,1.0082966589246045e-07
2.075,0.005475106668887023,77.50000292776217,0,60,3.0,1,6.888852159564147e-08
2.08,0.00930222931468658,77.50000199051588,0,60,3.0,1,4.683566785120895e-08
2.085,0.01519157517868857,77.50000134668745,0,60,3.0,1,3.168676364432887e-08
2.09,0.023847336626128316,77.50000090664922,0,60,3.0,1,2.133292281648798e-08
2.095,0.0359830743700859,77.50000060741161,0,60,3.0,1,1.4292037817272906e-08
2.1,0.05218887796857759,77.50000040494702,0,60,3.0,1,9.528165090908741e-09
2.105,0.0727577001223134,77.50000026864862,0,60,3.0,1,6.32114399516414e-09
2.11,0.0974992498694751,77.50000017735456,0,60,3.0,1,4.173048583812916e-09
2.115,0.12558706050443358,77.5000001165122,0,60,3.0,1,2.74146346408302e-09
2.12,0.15549263588878245,77.50000007616786,0,60,3.0,1,1.7921850565685685e-09
2.125,0.1850529723539114,77.50000004954998,0,60,3.0,1,1.1658819269488209e-09
2.13,0.21169159439317053,77.50000003207646,0,60,3.0,1,7.547401657896391e-10
2.135,0.23277292922115492,77.50000002066335,0,60,3.0,1,4.861964739307843e-10
2.14,0.24602692519491282,77.50000001324605,0,60,3.0,1,3.116717968677061e-10
2.145,0.24995056064839283,77.50000000844973,0,60,3.0,1,1.9881721367282272e-10
2.15,0.24408826520424054,77.50000000536379,0,60,3.0,1,1.2620676791223507e-10
2.155,0.22911894216865275,77.50000000338821,0,60,3.0,1,7.972256057923112e-11
2.16,0.20672661788705934,77.50000000212981,0,60,3.0,1,5.011315806768835e-11
2.165,0.17928878030241233,77.50000000133224,0,60,3.0,1,3.1346804890370766e-11
2.17,0.14946211903866036,77.50000000082927,0,60,3.0,1,1.9512339456602656e-11
2.175,0.1197651512573837,77.50000000051367,0,60,3.0,1,1.2086248342016274e-11
2.18,0.09224675744988023,77.50000000031662,0,60,3.0,1,7.449831601287074e-12
2.185,0.06829565320281596,77.5000000001942,0,60,3.0,1,4.56954213030472e-12
2.19,0.04860224607515734,77.50000000011853,0,60,3.0,1,2.789005627752939e-12
2.195,0.03324612389699793,77.500000000072,0,60,3.0,1,1.6942682551042012e-12
2.2,0.021859876340472782,77.50000000004351,0,60,3.0,1,1.023850285598789e-12
2.205,0.01381595518554205,77.50000000002618,0,60,3.0,1,6.15915162009461e-13
2.21,0.008394095110402422,77.50000000001566,0,60,3.0,1,3.684791034388849e-13
2.215,0.0049052535271608,77.50000000000934,0,60,3.0,1,2.1968309524441686e-13
2.22,0.0027671663551903634,77.50000000000553,0,60,3.0,1,1.3007111727561363e-13
2.225,0.0015425553464444616,77.50000000000325,0,60,3.0,1,7.657142893602963e-14
2.23,0.0009638206637011801,77.50000000000192,0,60,3.0,1,4.514036203652401e-14
2.235,0.0009804935156568228,77.50000000000112,0,60,3.0,1,2.6415471117669608e-14
2.24,0.0018793744894085216,77.50000000000065,0,60,3.0,1,1.5381160397630403e-14
2.245,0.004535525206900863,77.50000000000037,0,60,3.0,1,8.693699355182403e-15
2.25,0.010832767979632273,77.50000000000021,0,60,3.0,1,5.015595781836002e-15
2.255,0.024208003392322392,77.50000000000013,0,60,3.0,1,3.0093574691016007e-15
2.26,0.0500971897335304,77.50000000000007,0,60,3.0,1,1.6718652606120004e-15
2.265,0.09582894921774403,77.50000000000004,0,60,3.0,1,1.0031191563672002e-15
2.27,0.16937896721820658,77.50000000000003,0,60,3.0,1,6.687461042448002e-16
2.275,0.27661303008991756,77.50000000000001,0,60,3.0,1,3.343730521224001e-16
2.28,0.4173782800009149,77.5,0,60,3.0,1,0.0
2.285,0.5818720934538056,77.5,0,60,3.0,1,0.0
2.29,0.7494718801585675,77.5,0,60,3.0,1,0.0
2.295,0.891813020752378,77.5,0,60,3.0,1,0.0
2.3,0.9800361632936612,77.5,0,60,3.0,1,0.0
2.305,0.993574479225126,77.50000248997046,1,60,3.0,1,5.8587540131745354e-08
2.31,0.9263438449375362,77.50000384762257,0,60,3.0,1,9.053229565752725e-08
2.315,0.7873015962290536,77.50000607642373,0,60,3.0,1,1.4297467600954406e-07
2.32,0.5959516244629897,77.5000099193542,0,60,3.0,1,2.3339656937584068e-07
2.325,0.376910120078773,77.50001691763335,0,60,3.0,1,3.9806196107693883e-07
2.33,0.15739335672107918,77.50003032958121,0,60,3.0,1,7.13637204880262e-07
2.335,-0.033361226269301235,77.50005706326723,0,60,3.0,1,1.3426651114112996e-06
2.34,-0.1680180840843834,77.50011163602987,0,60,3.0,1,2.6267301146109436e-06
2.345,-0.23069703190837854,77.50022405397121,0,60,3.0,1,5.271858146095516e-06
2.35,-0.22587267821131068,77.50045501243203,0,60,3.0,1,1.0706174871235335e-05
2.355,-0.17718181630665902,77.50092427728828,0,60,3.0,1,2.17477009006389e-05
2.36,-0.11494332516451301,77.50186190043328,0,60,3.0,1,4.3809421959608964e-05
2.365,-0.061810214049552864,77.5036974124983,0,60,3.0,1,8.699794113641367e-05
2.37,-0.026546104631500547,77.50720948330502,0,60,3.0,1,0.00016963490129455748
2.375,-0.00719600351942686,77.51376740494521,0,60,3.0,1,0.00032393893988736473
2.38,0.0022072757983807078,77.52570486126365,0,60,3.0,1,0.0006048202650270147
2.385,0.006917199873730717,77.54687310100944,0,60,3.0,1,0.0011028964943397355
2.39,0.01004859748264829,77.58342030040448,0,60,3.0,1,0.0019628305977525597
2.395,0.013037082251128167,77.64483019563318,0,60,3.0,1,0.0034077693090159085
2.4,0.01645163937690478,77.74521845683252,0,60,3.0,1,0.00576984604311807
2.405,0.020526639934696615,77.90482292278939,0,60,3.0,1,0.009525245242103358
2.41,0.02539629541761738,78.15153067952627,0,60,3.0,2,0.015330133635912341
2.415,0.031171612185577933,78.52216589770399,0,60,3.0,2,0.024050962298917296
2.42,0.03795853426638131,79.06313417566034,0,60,3.0,2,0.03677962766259618
2.425,0.0458588961882057,79.82991303787692,0,60,3.0,2,0.05482148324416284
2.43,0.054966995891435555,80.88483816617295,0,60,3.0,2,0.0796432509687754
2.435,0.06536491004445595,82.29271025083777,0,60,3.0,2,0.11276965296088874
2.44,0.07711726085088699,84.1139790420912,0,60,3.0,2,0.15562303628449886
2.445,0.09026570629555215,86.39566362124735,0,60,3.0,2,0.20930973226464356
2.45,0.10482339848670268,89.16071083043977,0,60,3.0,2,0.2743696665985828
2.455,0.12076968927580028,92.39709175659418,0,60,3.0,2,0.3505198060375101
2.46,0.13804539501007884,96.04845287733258,0,60,3.0,2,0.43643418534900186
2.465,0.15654895051787066,100.00841066564702,0,60,3.0,2,0.5296096627211063
2.47,0.17613378141900526,104.12045778604747,0,60,3.0,2,0.6263637126128816
2.475,0.19660720058055794,108.18485302700304,0,60,3.0,2,0.7219965418118364
2.48,0.21773108748496234,111.9728233716453,0,60,3.0,2,0.811125255803419
2.485,0.23922453870058807,115.2470723582789,0,60,3.0,2,0.8881664084300918
2.49,0.2607685857914563,117.78623296545425,0,60,3.0,2,0.9479113638930411
2.495,0.2820129681603682,119.40984825503094,0,60,3.0,2,0.9861140765889632
2.5,0.30258482867153996,120.0,0,60,3.0,2,1.0
2.505,0.3220990771751686,119.5160061135284,0,60,3.0,2,0.9886119085536096
2.51,0.3401700499968971,117.99966259133913,0,60,3.0,2,0.9529332374432736
2.515,0.3564239911198326,115.57011308967998,0,60,3.0,2,0.8957673668159994
2.52,0.3705118017738417,112.40924080138602,0,60,3.0,2,0.8213939012090828
2.525,0.3821214567925213,108.74008947923315,0,60,3.0,2,0.7350609289231329
2.53,0.39098947374066967,104.80188363205593,0,60,3.0,2,0.6423972619307279
2.535,0.3969108472035567,100.82552814904717,0,60,3.0,2,0.5488359564481687
2.54,0.3997469255491936,97.0130132410624,0,60,3.0,2,0.45912972331911517
2.545,0.3994308076379137,93.5231013335713,0,60,3.0,2,0.37701414902520713
2.55,0.3959699661768434,90.4643185404905,0,60,3.0,2,0.30504278918801164
2.555,0.38944595408114946,87.89493732644314,0,60,3.0,2,0.24458676062219156
2.56,0.38001120995358023,85.82858881956196,0,60,3.0,2,0.19596679575439901
2.565,0.3678831374098315,84.24354173369385,0,60,3.0,2,0.15867157020456107
2.57,0.35333577933796634,83.09355905991723,0,60,3.0,2,0.13161315435099355
2.575,0.33668953221163944,82.31851219968635,0,60,3.0,2,0.11337675763967889
2.58,0.3182994390982644,81.8534471763782,0,60,3.0,2,0.10243405120889874
2.585,0.29854265738230645,81.63539558810754,0,60,3.0,2,0.0973034256025304
2.59,0.2778057157821067,81.60776725230997,0,60,3.0,2,0.09665334711317575
2.595,0.2564721553719815,81.7225659161887,0,60,3.0,2,0.09935449214561645
2.6,0.23491109433464996,81.94090307100727,0,60,3.0,2,0.10449183696487693
2.605,0.21346717185309805,82.23236173414895,0,60,3.0,2,0.1113496878623283
2.61,0.19245222055656455,82.5737228448738,0,60,3.0,2,0.11938171399703057
2.615,0.17213889801761392,82.94746101237237,0,60,3.0,2,0.1281755532322911
2.62,0.15275638501270183,83.34028784104275,0,60,3.0,2,0.13741853743630003
2.625,0.13448814019607322,83.74190129408117,0,60,3.0,2,0.14686826574308645
2.63,0.11747159495449566,84.14400555542274,0,60,3.0,2,0.156329542480535
2.635,0.10179958433370105,84.53960260488017,0,60,3.0,2,0.1656377083501217
2.64,0.08752324394101413,84.9225212845037,0,60,3.0,2,0.17464755963538123
2.645,0.07465606047174059,85.28713521594845,0,60,3.0,2,0.18322671096349302
2.65,0.0631787448609295,85.62822001971128,0,60,3.0,2,0.19125223575791245
2.655,0.05304460019959574,85.94090650370732,0,60,3.0,2,0.19860956479311354
2.66,0.044185078305849994,86.22069530027292,0,60,3.0,2,0.20519283059465698
2.665,0.03651525513023255,86.46350713588414,0,60,3.0,2,0.2109060502560975
2.67,0.0299390014708757,86.66575024332924,0,60,3.0,2,0.21566471160774686
2.675,0.024353677220580638,86.82439202975053,0,60,3.0,2,0.2193974595235418
2.68,0.01965423034339045,86.93702615390892,0,60,3.0,2,0.22204767420962157
2.685,0.015736632374757337,87.00192899594394,0,60,3.0,2,0.22357479990456333
2.69,0.012500627640593535,87.0181014934289,0,60,3.0,2,0.22395532925715061
2.695,0.009851811652115898,86.98529377288109,0,60,3.0,2,0.22318338289131984
2.7,0.007703084175428559,86.90401114067697,0,60,3.0,2,0.2212708503688699
2.705,0.005975544002062424,86.77550094420542,0,60,3.0,2,0.2182470810401275
2.71,0.004598905818663047,86.60172064316458,0,60,3.0,2,0.21415813278034312
2.715,0.0035115256454839104,86.38528817010885,0,60,3.0,2,0.2090656040025612
2.72,0.002660121266303676,86.12941631144672,0,60,3.0,2,0.20304508968109924
2.725,0.0019992692560877024,85.8378333951069,0,60,3.0,2,0.19618431517898585
2.73,0.0014907520044639367,85.5146930147361,0,60,3.0,2,0.18858101211143755
2.735,0.0011028178277539807,85.16447583928647,0,60,3.0,2,0.180340607983211
2.74,0.0008094059938923333,84.79188674208152,0,60,3.0,2,0.17157380569603567
2.745,0.0005893771793717645,84.40175053163802,0,60,3.0,2,0.1623941301561886
2.75,0.0004257792353490551,83.99890948084484,0,60,3.0,2,0.15291551719634927
2.755,0.0003051686392901525,83.58812564108673,0,60,3.0,2,0.14325001508439372
2.76,0.00021699992642659966,83.17399060876907,0,60,3.0,2,0.13350566138280173
2.765,0.00015308884054097838,82.76084500333593,0,60,3.0,2,0.1237845883137866
2.77,0.00010714989329311098,82.35270944151372,0,60,3.0,2,0.11418139862385233
2.775,7.440535854020571e-05,81.95322827731624,0,60,3.0,2,0.1047818418192057
2.78,5.1260276743925106e-05,81.5656268469004,0,60,3.0,2,0.09566180816236236
2.785,3.503659887882241e-05,81.19268243627361,0,60,3.0,2,0.08688664555937915
2.79,2.375894748103639e-05,80.83670870048552,0,60,3.0,2,0.07851079295260038
2.795,1.5984413869232557e-05,80.49955282436576,0,60,3.0,2,0.07057771351448858
2.8,1.0669166579899869e-05,80.18260434212327,0,60,3.0,2,0.06312010216760634
2.805,7.06526633560511e-06,79.88681423671093,0,60,3.0,2,0.05616033498143371
2.81,4.641847214699205e-06,79.61272272561617,0,60,3.0,2,0.049711122955674494
2.815,3.025641074479182e-06,79.3604940089418,0,60,3.0,2,0.043776329622159986
2.82,1.9566278676921314e-06,79.12995620540356,0,60,3.0,2,0.03835191071537786
2.825,1.2553456560008793e-06,78.92064472570667,0,60,3.0,2,0.03342693472250978
2.83,7.990660428214668e-07,78.73184742133546,0,60,3.0,2,0.028984645207893154
2.835,5.046221251618276e-07,78.56264998870968,0,60,3.0,2,0.025003529146110114
2.84,3.1616527078858815e-07,78.41198029133812,0,60,3.0,2,0.021458359796191175
2.845,1.9652884407760343e-07,78.27865047304697,0,60,3.0,2,0.018321187601105078
2.85,1.2120002189836396e-07,78.16139596092438,0,60,3.0,2,0.015562257904103075
2.855,7.415549848886236e-08,78.05891068560801,0,60,3.0,2,0.013150839661364992
2.86,4.501406988770349e-08,77.96987806868721,0,60,3.0,2,0.011055954557346079
2.865,0.0,77.89299753381259,0,60,3.0,2,0.009247000795590352
2.87,0.0,77.8270064830745,0,60,3.0,2,0.007694270189988201
2.875,0.0,77.77069783881038,0,60,3.0,2,0.00636936091318536
2.88,0.0,77.72293338065182,0,60,3.0,2,0.005245491309454685
2.885,0.0,77.6826532075086,0,60,3.0,2,0.004297722529613967
2.89,0.0,77.64888172502401,0,60,3.0,2,0.0035030994123296886
2.895,0.0,77.62073060277085,0,60,3.0,2,0.0028407200651964317
2.9,0.0,77.59739916496626,0,60,3.0,2,0.002291745058029699
2.905,0.0,77.57817267726432,0,60,3.0,2,0.0018393571121016388
2.91,0.0,77.56241897406092,0,60,3.0,2,0.0014686817426098407
2.915,0.0,77.54958383962341,0,60,3.0,2,0.0011666785793743337
2.92,0.0,77.53918551600158,0,60,3.0,2,0.0009220121412136665
2.925,0.0,77.53080866455502,0,60,3.0,2,0.000724909754235876
2.93,0.0,77.52409805909379,0,60,3.0,2,0.0005670131551479538
2.935,0.0,77.51875223963577,0,60,3.0,2,0.0004412291679005541
2.94,0.0,77.51451730867906,0,60,3.0,2,0.0003415837336249564
2.945,0.0,77.51118100820227,0,60,3.0,2,0.00026308254593579797
2.95,0.0,77.50856717638953,0,60,3.0,2,0.000201580620930198
2.955,0.0,77.506530648948,0,60,3.0,2,0.0001536623281882545
2.96,0.0,77.50495264109921,0,60,3.0,2,0.00011653273174608651
2.965,0.0,77.50373662283334,0,60,3.0,2,8.792053725515228e-05
2.97,0.0,77.50280468154695,0,60,3.0,2,6.599250698701219e-05
2.975,0.0,77.50209435230339,0,60,3.0,2,4.927887772677262e-05
2.98,0.0,77.50155588612591,0,60,3.0,2,3.660908531561718e-05
2.985,0.0,77.50114992036497,0,60,3.0,2,2.705694976391308e-05
2.99,0.0,77.50084551167804,0,60,3.0,2,1.989439242439563e-05
2.995,0.0,77.50061849094135,0,60,3.0,2,1.4552728031744396e-05
3.0,0.0,77.50045009994905,0,60,3.0,2,1.0590587036444156e-05
3.005,0.0,77.5003258715694,0,60,3.0,2,7.667566338862825e-06
3.01,0.0,77.50023471771487,0,60,3.0,2,5.522769761763116e-06
3.015,0.0,77.50016819270388,0,60,3.0,2,3.95747538545145e-06
3.02,0.0,77.50011990307587,0,60,3.0,2,2.8212488439962992e-06
3.025,0.0,77.50008503845943,0,60,3.0,2,2.0009049278007082e-06
3.03,0.0,77.5000600015309,0,60,3.0,2,1.4118007270018793e-06
3.035,0.0,77.50004211833227,0,60,3.0,2,9.910195829246839e-07
3.04,0.0,77.50002941317382,0,60,3.0,2,6.920746781200732e-07
3.045,0.0,77.50002043499333,0,60,3.0,2,4.80823372500334e-07
3.05,0.0,77.50001412436717,0,60,3.0,2,3.3233805103972213e-07
3.055,0.001684486749771458,77.50000971237372,0,60,3.0,2,2.2852644058409221e-07
3.06,0.003097557930867117,77.50000664421472,0,60,3.0,2,1.5633446403572795e-07
3.065,0.005475106668887023,77.50000452192985,0,60,3.0,2,1.0639834947730432e-07
3.07,0.00930222931468658,77.50000306172282,0,60,3.0,2,7.204053698681973e-08
3.075,0.01519157517868857,77.50000206238532,0,60,3.0,2,4.8526713418836795e-08
3.08,0.023847336626128316,77.5000013820878,0,60,3.0,2,3.2519712998263834e-08
3.085,0.0359830743700859,77.50000092143212,0,60,3.0,2,2.1680755721450518e-08
3.09,0.05218887796857759,77.50000061115722,0,60,3.0,2,1.4380169860113015e-08
3.095,0.0727577001223134,77.50000040327791,0,60,3.0,2,9.48889197281781e-09
3.1,0.0974992498694751,77.50000026473893,0,60,3.0,2,6.229151281064225e-09
3.105,0.12558706050443358,77.50000017289923,0,60,3.0,2,4.068217282003709e-09
3.11,0.15549263588878245,77.50000011233891,0,60,3.0,2,2.643268464239287e-09
3.115,0.1850529723539114,77.50000007261549,0,60,3.0,2,1.7085998184912194e-09
3.12,0.21169159439317053,77.50000004669712,0,60,3.0,2,1.0987558679891449e-09
3.125,0.23277292922115492,77.50000002987535,0,60,3.0,2,7.029494581194526e-10
3.13,0.24602692519491282,77.50000001901506,0,60,3.0,2,4.474132123612114e-10
3.135,0.24995056064839283,77.50000001204049,0,60,3.0,2,2.833055933639544e-10
3.14,0.24408826520424054,77.50000000758494,0,60,3.0,2,1.7846927595896618e-10
3.145,0.22911894216865275,77.5000000047536,0,60,3.0,2,1.1184945780020345e-10
3.15,0.20672661788705934,77.50000000296384,0,60,3.0,2,6.9737512496752e-11
3.155,0.17928878030241233,77.50000000183844,0,60,3.0,2,4.325750738002278e-11
3.16,0.14946211903866036,77.5000000011345,0,60,3.0,2,2.6694003870087567e-11
3.165,0.1197651512573837,77.5000000006965,0,60,3.0,2,1.6388292030623073e-11
3.17,0.09224675744988023,77.5000000004254,0,60,3.0,2,1.0009457315284047e-11
3.175,0.06829565320281596,77.5000000002585,0,60,3.0,2,6.0822458181064576e-12
3.18,0.04860224607515734,77.50000000015626,0,60,3.0,2,3.676766081137912e-12
3.185,0.03324612389699793,77.50000000009398,0,60,3.0,2,2.2112089936854317e-12
3.19,0.021859876340472782,77.50000000005623,0,60,3.0,2,1.3231141672483372e-12
3.195,0.01381595518554205,77.50000000003347,0,60,3.0,2,7.874485377482522e-13
3.2,0.008394095110402422,77.50000000001982,0,60,3.0,2,4.664504077107481e-13
3.205,0.0049052535271608,77.50000000001168,0,60,3.0,2,2.7485464884461285e-13
3.21,0.0027671663551903634,77.50000000000685,0,60,3.0,2,1.6116781112299685e-13
3.215,0.0015425553464444616,77.500000000004,0,60,3.0,2,9.395882764639442e-14
3.22,0.0009638206637011801,77.50000000000232,0,60,3.0,2,5.4502807495951216e-14
3.225,0.0009804935156568228,77.50000000000134,0,60,3.0,2,3.143106689950561e-14
3.23,0.0018793744894085216,77.50000000000077,0,60,3.0,2,1.8056144814609604e-14
3.235,0.004535525206900863,77.50000000000044,0,60,3.0,2,1.0365564615794402e-14
3.24,0.010832767979632273,77.50000000000024,0,60,3.0,2,5.684341886080802e-15
3.245,0.024208003392322392,77.50000000000014,0,60,3.0,2,3.343730521224001e-15
3.25,0.0500971897335304,77.50000000000009,0,60,3.0,2,2.0062383127344005e-15
3.255,0.09582894921774403,77.50000000000004,0,60,3.0,2,1.0031191563672002e-15
3.26,0.16937896721820658,77.50000000000003,0,60,3.0,2,6.687461042448002e-16
3.265,0.27661303008991756,77.50000000000001,0,60,3.0,2,3.343730521224001e-16
3.27,0.4173782800009149,77.5,0,60,3.0,2,0.0
3.275,0.5818720934538056,77.5,0,60,3.0,2,0.0
3.28,0.7494718801585675,77.5,0,60,3.0,2,0.0
3.285,0.891813020752378,77.5,0,60,3.0,2,0.0
3.29,0.9800361632936612,77.5,0,60,3.0,2,0.0
3.295,0.993574479225126,77.50000248990796,1,60,3.0,2,5.858606955906212e-08
3.3,0.9263438449375362,77.5000037286574,0,60,3.0,2,8.773311539217128e-08
3.305,0.7873015962290536,77.50000568588439,0,60,3.0,2,1.337855150375296e-07
3.31,0.5959516244629897,77.50000890930662,0,60,3.0,2,2.0963074388526044e-07
3.315,0.376910120078773,77.50001447339277,0,60,3.0,2,3.4055041804576296e-07
3.32,0.15739335672107918,77.50002452750309,0,60,3.0,2,5.771177196787475e-07
3.325,-0.033361226269301235,77.5000433960668,0,60,3.0,2,1.021083924717245e-06
3.33,-0.1680180840843834,77.50007973898661,0,60,3.0,2,1.8762114497322353e-06
3.335,-0.23069703190837854,77.50015069162811,0,60,3.0,2,3.5456853672311648e-06
3.34,-0.22587267821131068,77.50028959295834,0,60,3.0,2,6.813951960914303e-06
3.345,-0.17718181630665902,77.50056001888449,0,60,3.0,2,1.3176914929063595e-05
3.35,-0.11494332516451301,77.50108054165499,0,60,3.0,2,2.542450952907583e-05
3.355,-0.061810214049552864,77.5020671248821,0,60,3.0,2,4.863823252007398e-05
3.36,-0.026546104631500547,77.50390348912202,0,60,3.0,2,9.184680287115256e-05
3.365,-0.00719600351942686,77.50725416478957,0,60,3.0,2,0.00017068623034286728
3.37,0.0022072757983807078,77.51324002953402,0,60,3.0,2,0.0003115301066827669
3.375,0.006917199873730717,77.52370117791926,0,60,3.0,2,0.0005576747745709219
3.38,0.01004859748264829,77.54157558450754,0,60,3.0,2,0.0009782490472362577
3.385,0.013037082251128167,77.57142194911829,0,60,3.0,2,0.0016805164498420895
3.39,0.01645163937690478,77.62010826221689,0,60,3.0,2,0.002826076758044431
3.395,0.020526639934696615,77.69767035157514,0,60,3.0,2,0.004651067095885671
3.4,0.02539629541761738,77.81831348778191,0,60,3.0,2,0.007489729124280168
3.405,0.031171612185577933,78.0014829477885,0,60,3.0,2,0.011799598771494188
3.41,0.03795853426638131,78.27286722650334,0,60,3.0,2,0.018185111211843217
3.415,0.0458588961882057,78.66512616122492,0,60,3.0,2,0.027414733205292204
3.42,0.054966995891435555,79.21806764054246,0,60,3.0,2,0.040425120953940186
3.425,0.06536491004445595,79.97794929382763,0,60,3.0,2,0.05830468926653259
3.43,0.07711726085088699,80.99557875484656,0,60,3.0,2,0.08224891187874264
3.435,0.09026570629555215,82.3229513271192,0,60,3.0,2,0.11348120769692233
3.44,0.10482339848670268,84.00831448173156,0,60,3.0,2,0.15313681133486023
3.445,0.12076968927580028,86.08978772150972,0,60,3.0,2,0.202112652270817
3.45,0.13804539501007884,88.5879756289421,0,60,3.0,2,0.26089354421040245
3.455,0.15654895051787066,91.49834781306552,0,60,3.0,2,0.32937288971918877
3.46,0.17613378141900526,94.78445551284759,0,60,3.0,2,0.4066930708905314
3.465,0.19660720058055794,98.37323150417649,0,60,3.0,2,0.4911348589217997
3.47,0.21773108748496234,102.15360288262184,0,60,3.0,2,0.5800847737087492
3.475,0.23922453870058807,105.97938632685833,0,60,3.0,2,0.6701032076907842
3.48,0.2607685857914563,109.67692951344652,0,60,3.0,2,0.7571042238458006
3.485,0.2820129681603682,113.05726517729511,0,60,3.0,2,0.8366415335834143
3.49,0.30258482867153996,115.93176672692951,0,60,3.0,2,0.9042768641630473
3.495,0.3220990771751686,118.12958552231964,0,60,3.0,2,0.9559902475839916
3.5,0.3401700499968971,119.51466594770267,0,60,3.0,2,0.9885803752400628
3.505,0.3564239911198326,120.0,0,60,3.0,2,1.0
3.51,0.3705118017738417,119.55705719463694,0,60,3.0,2,0.9895778163443986
3.515,0.3821214567925213,118.21898088329543,0,60,3.0,2,0.9580936678422454
3.52,0.39098947374066967,116.0770659251651,0,60,3.0,2,0.9076956688274141
3.525,0.3969108472035567,113.27105027643492,0,60,3.0,2,0.8416717712102334
3.53,0.3997469255491936,109.9746676782558,0,60,3.0,2,0.7641098277236659
3.535,0.3994308076379137,106.37854761648535,0,60,3.0,2,0.6794952380349494
3.54,0.3959699661768434,102.67280317329086,0,60,3.0,2,0.5923012511362555
3.545,0.38944595408114946,99.03149431203465,0,60,3.0,2,0.506623395577286
3.55,0.38001120995358023,95.60065623329429,0,60,3.0,2,0.4258977937245715
3.555,0.3678831374098315,92.49086680927319,0,60,3.0,2,0.35272627786525146
3.56,0.35333577933796634,89.77455031193628,0,60,3.0,2,0.2888129485161478
3.565,0.33668953221163944,87.48752467500061,0,60,3.0,2,0.23500058058824974
3.57,0.3182994390982644,85.63380478482745,0,60,3.0,2,0.19138364199593993
3.575,0.29854265738230645,84.19242663892466,0,60,3.0,2,0.1574688620923449
3.58,0.2778057157821067,83.1250509994629,0,60,3.0,2,0.13235414116383293
3.585,0.2564721553719815,82.38328973340646,0,60,3.0,2,0.11490093490368133
3.59,0.23491109433464996,81.91499786241418,0,60,3.0,2,0.10388230264503959
3.595,0.21346717185309805,81.66911041111341,0,60,3.0,2,0.0980967155556096
3.6,0.19245222055656455,81.59890989899148,0,60,3.0,2,0.09644493879979951
3.605,0.17213889801761392,81.66384541412548,0,60,3.0,2,0.0979728332735406
3.61,0.15275638501270183,81.8301704676645,0,60,3.0,2,0.1018863639450471
3.615,0.13448814019607322,82.07072824798924,0,60,3.0,3,0.10754654701151146
3.62,0.11747159495449566,82.36420728122273,0,60,3.0,3,0.11445193602877018
3.625,0.10179958433370105,82.69414154053058,0,60,3.0,3,0.12221509507130777
3.63,0.08752324394101413,83.04785974110723,0,60,3.0,3,0.13053787626134664
3.635,0.07465606047174059,83.41551711443385,0,60,3.0,3,0.1391886379866789
3.64,0.0631787448609295,83.78928111297144,0,60,3.0,3,0.14798308501109264
3.645,0.05304460019959574,84.16269580806126,0,60,3.0,3,0.15676931313085313
3.65,0.044185078305849994,84.53021899571937,0,60,3.0,3,0.16541691754633803
3.655,0.03651525513023255,84.88690903872194,0,60,3.0,3,0.1738096244405162
3.66,0.0299390014708757,85.22823174845027,0,60,3.0,3,0.18184074702235928
3.665,0.024353677220580638,85.5499575253136,0,60,3.0,3,0.1894107653014965
3.67,0.01965423034339045,85.84812248803348,0,60,3.0,3,0.19642641148314074
3.675,0.015736632374757337,86.1190322345129,0,60,3.0,3,0.20280075845912707
3.68,0.012500627640593535,86.35929182872866,0,60,3.0,3,0.20845392538185079
3.685,0.009851811652115898,86.56584990520606,0,60,3.0,3,0.2133141154166133
3.69,0.007703084175428559,86.73604818882806,0,60,3.0,3,0.21731878091360152
3.695,0.005975544002062424,86.86767027325033,0,60,3.0,3,0.22041577113530178
3.7,0.004598905818663047,86.95898533950358,0,60,3.0,3,0.2225643609294961
3.705,0.0035115256454839104,87.00878381221912,0,60,3.0,3,0.22373608969927344
3.71,0.002660121266303676,87.01640291098104,0,60,3.0,3,0.22391536261131867
3.715,0.0019992692560877024,86.98174078734127,0,60,3.0,3,0.2230997832315592
3.72,0.0014907520044639367,86.90525853242433,0,60,3.0,3,0.22130020076292534
3.725,0.0011028178277539807,86.78796984983194,0,60,3.0,3,0.21854046705486915
3.73,0.0008094059938923333,86.63141864206983,0,60,3.0,3,0.2148569092251725
3.735,0.0005893771793717645,86.4376451669792,0,60,3.0,3,0.21029753334068693
3.74,0.0004257792353490551,86.20914178417182,0,60,3.0,3,0.20492098315698398
3.745,0.0003051686392901525,85.94879962528395,0,60,3.0,3,0.1987952853007989
3.75,0.00021699992642659966,85.65984777902564,0,60,3.0,3,0.19199641833001505
3.755,0.00015308884054097838,85.34578677584746,0,60,3.0,3,0.184606747666999
3.76,0.00010714989329311098,85.0103182826044,0,60,3.0,3,0.1767133713553977
3.765,7.440535854020571e-05,84.65727297238483,0,60,3.0,3,0.16840642287964308
3.77,5.1260276743925106e-05,84.29053851906718,0,60,3.0,3,0.15977737691922786
3.775,3.503659887882241e-05,83.91398958343785,0,60,3.0,3,0.1509174019632436
3.78,2.375894748103639e-05,83.53142151384404,0,60,3.0,3,0.14191580032574205
3.785,1.5984413869232557e-05,83.14648928771153,0,60,3.0,3,0.13285857147556546
3.79,1.0669166579899869e-05,82.76265298104968,0,60,3.0,3,0.1238271289658749
3.795,7.06526633560511e-06,82.38313078282027,0,60,3.0,3,0.1148971948898888
3.8,4.641847214699205e-06,82.01086028197936,0,60,3.0,3,0.10613788898774969
3.805,3.025641074479182e-06,81.64846845941109,0,60,3.0,3,0.09761102257437863
3.81,1.9566278676921314e-06,81.29825052665099,0,60,3.0,3,0.08937060062708209
3.815,1.2553456560008793e-06,80.9621574790163,0,60,3.0,3,0.08146252891803055
3.82,7.990660428214668e-07,80.64179198183254,0,60,3.0,3,0.07392451721958918
3.825,5.046221251618276e-07,80.33841199240204,0,60,3.0,3,0.06678616452710691
3.83,3.1616527078858815e-07,80.05294134273204,0,60,3.0,3,0.06006920806428331
3.835,1.9652884407760343e-07,79.78598637227384,0,60,3.0,3,0.053787914641737405
3.84,1.2120002189836396e-07,79.53785760739456,0,60,3.0,3,0.04794959076222486
3.845,7.415549848886236e-08,79.30859543443712,0,60,3.0,3,0.04255518669263819
3.85,4.501406988770349e-08,79.09799870371573,0,60,3.0,3,0.03759996949919368
3.855,0.0,78.90565522887344,0,60,3.0,3,0.03307424067937511
3.86,0.0,78.73097320479162,0,60,3.0,3,0.028964075406861745
3.865,0.0,78.57321265199117,0,60,3.0,3,0.02525206239979224
3.87,0.0,78.43151610006214,0,60,3.0,3,0.021918025883815064
3.875,0.0,78.30493784085115,0,60,3.0,3,0.01893971390238007
3.88,0.0,78.19247120785805,0,60,3.0,3,0.016293440184895255
3.885,0.0,78.09307346591976,0,60,3.0,3,0.013954669786347254
3.89,0.0,78.00568801980442,0,60,3.0,3,0.011898541642457036
3.895,0.0,77.9292637675988,0,60,3.0,3,0.010100323943501119
3.9,0.0,77.86277153141357,0,60,3.0,3,0.008535800739142854
3.905,0.0,77.8052175915188,0,60,3.0,3,0.007181590388677585
3.91,0.0,77.75565442900356,0,60,3.0,3,0.006015398329495437
3.915,0.0,77.71318884570155,0,60,3.0,3,0.005016208134154166
3.92,0.0,77.67698767844453,0,60,3.0,3,0.004164415963400776
3.925,0.0,77.64628135832652,0,60,3.0,3,0.0034419143135651477
3.93,0.0,77.62036558570827,0,60,3.0,3,0.0028321314284299017
3.935,0.0,77.59860139965794,0,60,3.0,3,0.002320032933127938
3.94,0.0,77.5804139181414,0,60,3.0,3,0.001892092191562423
3.945,0.0,77.56529001440353,0,60,3.0,3,0.0015362356330242352
3.95,0.0,77.55277517749663,0,60,3.0,3,0.0012417688822735913
3.955,0.0,77.54246978262495,0,60,3.0,3,0.0009992890029399645
3.96,0.0,77.53402497156353,0,60,3.0,3,0.000800587566200594
3.965,0.0,77.52713831636724,0,60,3.0,3,0.0006385486204057062
3.97,0.0,77.5215494121934,0,60,3.0,3,0.0005070449927857493
3.975,0.0,77.51703551836333,0,60,3.0,3,0.0004008357261959779
3.98,0.0,77.51340734160578,0,60,3.0,3,0.00031546686131257636
3.985,0.0,77.51050503234966,0,60,3.0,3,0.0002471772317566025
3.99,0.0,77.50819444435803,0,60,3.0,3,0.00019281045548295343
3.995,0.0,77.50636369013327,0,60,3.0,3,0.00014973388548870548
4.0,0.0,77.5049200094337,0,60,3.0,3,0.00011576492785185538
4.005,0.0,77.50378695586653,0,60,3.0,3,8.91048439183685e-05
4.01,0.0,77.50290189670585,0,60,3.0,3,6.827992249060009e-05
4.015,0.0,77.50221381360679,0,60,3.0,3,5.208973192439129e-05
4.02,0.0,77.5016813864866,0,60,3.0,3,3.956203497871095e-05
4.025,0.0,77.50127133923534,0,60,3.0,3,2.991386436105238e-05
4.03,0.0,77.50095702381466,0,60,3.0,3,2.2518207403851086e-05
4.035,0.0,77.5007172184236,0,60,3.0,3,1.687572761417922e-05
4.04,0.0,77.50053511549454,0,60,3.0,3,1.2590952812776296e-05
4.045,0.0,77.5003974760937,0,60,3.0,3,9.352378675189624e-06
4.05,0.0,77.50029392863442,0,60,3.0,3,6.915967868708857e-06
4.055,0.0,77.50021639149041,0,60,3.0,3,5.091564480273839e-06
4.06,0.0,77.5001586009764,0,60,3.0,3,3.7317876801272872e-06
4.065,0.0,77.50011572812916,0,60,3.0,3,2.7230148037581195e-06
4.07,0.0,77.50008406968217,0,60,3.0,3,1.978110168800092e-06
4.075,0.0,77.50006080051752,0,60,3.0,3,1.4306004121568977e-06
4.08,0.0,77.50004377665195,0,60,3.0,3,1.0300388694036776e-06
4.085,0.0,77.50003137944141,0,60,3.0,3,7.383397978762386e-07
4.09,0.0,77.5000223931542,0,60,3.0,3,5.268977458051856e-07
4.095,0.0,77.50001590936077,0,60,3.0,3,3.743379004524339e-07
4.1,0.0,77.50001125272193,0,60,3.0,3,2.6476992783339964e-07
4.105,0.0,77.50000792373315,0,60,3.0,3,1.8644078001189509e-07
4.11,0.0,77.50000555481363,0,60,3.0,3,1.3070149708148486e-07
4.115,0.0,77.50000387682807,0,60,3.0,3,9.121948410746187e-08
4.12,0.001684486749771458,77.50000269371093,0,60,3.0,3,6.338143353947516e-08
4.125,0.003097557930867117,77.5000018633431,0,60,3.0,3,4.384336708586916e-08
4.13,0.005475106668887023,77.50000128322282,0,60,3.0,3,3.019347800278304e-08
4.135,0.00930222931468658,77.50000087978937,0,60,3.0,3,2.0700926316909745e-08
4.14,0.01519157517868857,77.50000060051346,0,60,3.0,3,1.4129728456549962e-08
4.145,0.023847336626128316,77.50000040806954,0,60,3.0,3,9.601636212905492e-09
4.15,0.0359830743700859,77.50000027606605,0,60,3.0,3,6.495671681584688e-09
4.155,0.05218887796857759,77.50000018593418,0,60,3.0,3,4.374921967182137e-09
4.16,0.0727577001223134,77.50000012467312,0,60,3.0,3,2.933485214217559e-09
4.165,0.0974992498694751,77.50000008322502,0,60,3.0,3,1.958235717371709e-09
4.17,0.12558706050443358,77.50000005530983,0,60,3.0,3,1.3014076718237073e-09
4.175,0.15549263588878245,77.5000000365947,0,60,3.0,3,8.610517371005913e-10
4.18,0.1850529723539114,77.50000002410468,0,60,3.0,3,5.67168920978849e-10
4.185,0.21169159439317053,77.50000001580709,0,60,3.0,3,3.719315052020487e-10
4.19,0.23277292922115492,77.50000001031977,0,60,3.0,3,2.428180323477136e-10
4.195,0.24602692519491282,77.50000000670742,0,60,3.0,3,1.57821739990408e-10
4.2,0.24995056064839283,77.50000000434018,0,60,3.0,3,1.0212187696785858e-10
4.205,0.24408826520424054,77.50000000279594,0,60,3.0,3,6.578689488592585e-11
4.21,0.22911894216865275,77.50000000179314,0,60,3.0,3,4.2191526089856566e-11
4.215,0.20672661788705934,77.50000000114491,0,60,3.0,3,2.6939099317293286e-11
4.22,0.17928878030241233,77.50000000072777,0,60,3.0,3,1.7123912745292353e-11
4.225,0.14946211903866036,77.50000000046056,0,60,3.0,3,1.0836696246234865e-11
4.23,0.1197651512573837,77.50000000029016,0,60,3.0,3,6.827228978235165e-12
4.235,0.09224675744988023,77.500000000182,0,60,3.0,3,4.2823156785315775e-12
4.24,0.06829565320281596,77.50000000011364,0,60,3.0,3,2.6739812978228334e-12
4.245,0.04860224607515734,77.50000000007066,0,60,3.0,3,1.6625028151525732e-12
4.25,0.03324612389699793,77.50000000004373,0,60,3.0,3,1.0288658813806251e-12
4.255,0.021859876340472782,77.50000000002694,0,60,3.0,3,6.339713068240705e-13
4.26,0.01381595518554205,77.50000000001653,0,60,3.0,3,3.888758596183513e-13
4.265,0.008394095110402422,77.50000000001009,0,60,3.0,3,2.374048670069041e-13
4.27,0.0049052535271608,77.50000000000614,0,60,3.0,3,1.4444915851687683e-13
4.275,0.0027671663551903634,77.50000000000371,0,60,3.0,3,8.727136660394643e-14
4.28,0.0015425553464444616,77.50000000000223,0,60,3.0,3,5.2496569183216817e-14
4.285,0.0009638206637011801,77.50000000000134,0,60,3.0,3,3.143106689950561e-14
4.29,0.0009804935156568228,77.5000000000008,0,60,3.0,3,1.8724890918854405e-14
4.295,0.0018793744894085216,77.50000000000048,0,60,3.0,3,1.1368683772161604e-14
4.3,0.004535525206900863,77.50000000000028,0,60,3.0,3,6.687461042448002e-15
4.305,0.010832767979632273,77.50000000000017,0,60,3.0,3,4.012476625468801e-15
4.31,0.024208003392322392,77.5000000000001,0,60,3.0,3,2.3406113648568006e-15
4.315,0.0500971897335304,77.50000000000006,0,60,3.0,3,1.3374922084896003e-15
4.32,0.09582894921774403,77.50000000000003,0,60,3.0,3,6.687461042448002e-16
4.325,0.16937896721820658,77.50000000000001,0,60,3.0,3,3.343730521224001e-16
4.33,0.27661303008991756,77.50000000000001,0,60,3.0,3,3.343730521224001e-16
4.335,0.4173782800009149,77.5,0,60,3.0,3,0.0
4.34,0.5818720934538056,77.5,0,60,3.0,3,0.0
4.345,0.7494718801585675,77.5,0,60,3.0,3,0.0
4.35,0.891813020752378,77.5,0,60,3.0,3,0.0
4.355,0.9800361632936612,77.5,0,60,3.0,3,0.0
4.36,0.993574479225126,77.50000249233909,1,60,3.0,3,5.864327276332701e-08
4.365,0.9263438449375362,77.50000393417172,0,60,3.0,3,9.256874624738617e-08
4.37,0.7873015962290536,77.5000063640856,0,60,3.0,3,1.4974319075169179e-07
4.375,0.5959516244629897,77.50001068889715,0,60,3.0,3,2.5150346232294397e-07
4.38,0.376910120078773,77.500018862235,0,60,3.0,3,4.438172940059731e-07
4.385,0.15739335672107918,77.50003517035837,0,60,3.0,3,8.275378440751357e-07
4.39,-0.033361226269301235,77.5000690217564,0,60,3.0,3,1.6240413271241457e-06
4.395,-0.1680180840843834,77.50014082332336,0,60,3.0,3,3.3134899614892407e-06
4.4,-0.23069703190837854,77.50029396273561,0,60,3.0,3,6.916770249678366e-06
4.405,-0.22587267821131068,77.5006184111326,0,60,3.0,3,1.4550850178974382e-05
4.41,-0.17718181630665902,77.50129555570794,0,60,3.0,3,3.0483663716254607e-05
4.415,-0.11494332516451301,77.50268018361174,0,60,3.0,3,6.30631438057475e-05
4.42,-0.061810214049552864,77.50544456390197,0,60,3.0,3,0.0001281073859288159
4.425,-0.026546104631500547,77.51082130963708,0,60,3.0,3,0.00025461905028424447
4.43,-0.00719600351942686,77.52099502457159,0,60,3.0,3,0.0004940005781550634
4.435,0.0022072757983807078,77.53970458895728,0,60,3.0,3,0.0009342256225241887
4.44,0.006917199873730717,77.57312250061958,0,60,3.0,3,0.0017205294263429576
4.445,0.01004859748264829,77.63106598202572,0,60,3.0,3,0.0030839054594286393
4.45,0.013037082251128167,77.72855510062294,0,60,3.0,3,0.005377767073480968
4.455,0.01645163937690478,77.88765436303515,0,60,3.0,3,0.009121279130238904
4.46,0.020526639934696615,78.13940920963522,0,60,3.0,3,0.015044922579652193
4.465,0.02539629541761738,78.52552201584362,0,60,3.0,3,0.02412992978455577
4.47,0.031171612185577933,79.09922671308908,0,60,3.0,3,0.03762886383739014
4.475,0.03795853426638131,79.9246635323784,0,60,3.0,3,0.05705090664419773
4.48,0.0458588961882057,81.07399391584457,0,60,3.0,3,0.08409397449046042
4.485,0.054966995891435555,82.6216083176575,0,60,3.0,3,0.12050843100370598
4.49,0.06536491004445595,84.63513056756528,0,60,3.0,3,0.16788542511918314
4.495,0.07711726085088699,87.16353032455919,0,60,3.0,3,0.22737718410727506
4.5,0.09026570629555215,90.22346244534107,0,60,3.0,3,0.29937558694920163
4.505,0.10482339848670268,93.78580951149479,0,60,3.0,3,0.3831955179175245
4.51,0.12076968927580028,97.76508286953606,0,60,3.0,3,0.4768254792832014
4.515,0.13804539501007884,102.01457924490444,0,60,3.0,3,0.5768136292918692
4.52,0.15654895051787066,106.32978301415727,0,60,3.0,3,0.6783478356272299
4.525,0.17613378141900526,110.46137267563913,0,60,3.0,3,0.7755617100150383
4.53,0.19660720058055794,114.13745816212113,0,60,3.0,3,0.8620578391087326
4.535,0.21773108748496234,117.09267748946532,0,60,3.0,3,0.9315924115168309
4.54,0.23922453870058807,119.09999799759018,0,60,3.0,3,0.9788234822962395
4.545,0.2607685857914563,120.0,0,60,3.0,3,1.0
4.55,0.2820129681603682,119.72243372512452,0,60,3.0,3,0.9934690288264593
4.555,0.30258482867153996,118.29603160172158,0,60,3.0,3,0.9599066259228607
4.56,0.3220990771751686,115.84470275181431,0,60,3.0,3,0.9022283000426896
4.565,0.3401700499968971,112.57083642722209,0,60,3.0,3,0.8251961512287551
4.57,0.3564239911198326,108.72886356162313,0,60,3.0,3,0.7347967896852501
4.575,0.3705118017738417,104.59389055380377,0,60,3.0,3,0.6375033071483241
4.58,0.3821214567925213,100.43076744786238,0,60,3.0,3,0.5395474693614678
4.585,0.39098947374066967,96.46833802487183,0,60,3.0,3,0.4463138358793371
4.59,0.3969108472035567,92.88209965938944,0,60,3.0,3,0.3619317566915162
4.595,0.3997469255491936,89.78653510091544,0,60,3.0,3,0.2890949435509516
4.6,0.3994308076379137,87.23647516247385,0,60,3.0,3,0.22909353323467888
4.605,0.3959699661768434,85.23542274613382,0,60,3.0,3,0.1820099469678546
4.61,0.38944595408114946,83.7480359009732,0,60,3.0,3,0.14701260943466368
4.615,0.38001120995358023,82.71393906157272,0,60,3.0,3,0.12268091909582862
4.62,0.3678831374098315,82.0605463396646,0,60,3.0,3,0.10730697269799053
4.625,0.35333577933796634,81.71339014822254,0,60,3.0,3,0.09913859172288339
4.63,0.33668953221163944,81.60330224871552,0,60,3.0,3,0.09654828820507111
4.635,0.3182994390982644,81.67050408627944,0,60,3.0,3,0.09812950791245732
4.64,0.29854265738230645,81.86613091207013,0,60,3.0,3,0.10273249204870902
4.645,0.2778057157821067,82.1519274595226,0,60,3.0,3,0.10945711669464933
4.65,0.2564721553719815,82.49885971724305,0,60,3.0,3,0.11762022864101294
4.655,0.23491109433464996,82.88526295110748,0,60,3.0,3,0.126712069437823
4.66,0.21346717185309805,83.29496538915102,0,60,3.0,3,0.13635212680355333
4.665,0.19245222055656455,83.7156469530013,0,60,3.0,3,0.146250516541207
4.67,0.17213889801761392,84.13754643739647,0,60,3.0,3,0.15617756323285803
4.675,0.15275638501270183,84.5525306173559,0,60,3.0,3,0.16594189687896232
4.68,0.13448814019607322,84.95348219733201,0,60,3.0,3,0.1753760517019296
4.685,0.11747159495449566,85.33394014028497,0,60,3.0,3,0.18432800330082272
4.69,0.10179958433370105,85.68792381231977,0,60,3.0,3,0.19265703087811215
4.695,0.08752324394101413,86.00988131489132,0,60,3.0,3,0.2002325015268545
4.7,0.07465606047174059,86.29471515826697,0,60,3.0,3,0.20693447431216394
4.705,0.0631787448609295,86.53785088067508,0,60,3.0,3,0.21265531483941366
4.71,0.05304460019959574,86.73532447507341,0,60,3.0,3,0.21730175235466853
4.715,0.044185078305849994,86.88387214505582,0,60,3.0,3,0.2207969916483722
4.72,0.03651525513023255,86.98101130529216,0,60,3.0,3,0.22308261894805073
4.725,0.0299390014708757,87.02510545252406,0,60,3.0,3,0.22412012829468375
4.73,0.024353677220580638,87.01540812527156,0,60,3.0,3,0.22389195588874267
4.735,0.01965423034339045,86.95208308020867,0,60,3.0,3,0.22240195482843922
4.74,0.015736632374757337,86.8361993292412,0,60,3.0,3,0.219675278335087
4.745,0.012500627640593535,86.66970096816668,0,60,3.0,3,0.215757669839216
4.75,0.009851811652115898,86.4553528615175,0,60,3.0,3,0.21071418497688227
4.755,0.007703084175428559,86.19666424964625,0,60,3.0,3,0.20462739410932346
4.76,0.005975544002062424,85.8977932043951,0,60,3.0,3,0.19759513422106117
4.765,0.004598905818663047,85.5634355576622,0,60,3.0,3,0.18972789547440477
4.77,0.0035115256454839104,85.19870244066831,0,60,3.0,3,0.1811459397804309
4.775,0.002660121266303676,84.80899088419606,0,60,3.0,3,0.1719762560987309
4.78,0.0019992692560877024,84.39985203416522,0,60,3.0,3,0.16234945962741695
4.785,0.0014907520044639367,83.97686143592856,0,60,3.0,3,0.15239673966890718
4.79,0.0011028178277539807,83.54549554860398,0,60,3.0,3,0.14224695408479954
4.795,0.0008094059938923333,83.11101819122497,0,60,3.0,3,0.13202395744058756
4.8,0.0005893771793717645,82.67838002700184,0,60,3.0,3,0.12184423592945497
4.805,0.0004257792353490551,82.25213349766712,0,60,3.0,3,0.11181490582746158
4.81,0.0003051686392901525,81.83636486694634,0,60,3.0,3,0.10203211451638447
4.815,0.00021699992642659966,81.43464426137449,0,60,3.0,3,0.09257986497351733
4.82,0.00015308884054097838,81.04999384673864,0,60,3.0,4,0.08352926698208575
4.825,0.00010714989329311098,80.68487358404445,0,60,3.0,4,0.07493820197751655
4.83,7.440535854020571e-05,80.34118339892207,0,60,3.0,4,0.06685137409228399
4.835,5.1260276743925106e-05,80.02028009462396,0,60,3.0,4,0.05930070810879897
4.84,3.503659887882241e-05,79.72300695535046,0,60,3.0,4,0.05230604600824603
4.845,2.375894748103639e-05,79.4497337299169,0,60,3.0,4,0.045876087762750595
4.85,1.5984413869232557e-05,79.20040455471387,0,60,3.0,4,0.040009518934444
4.855,1.0669166579899869e-05,78.97459136193396,0,60,3.0,4,0.0346962673396226
4.86,7.06526633560511e-06,78.77155041118107,0,60,3.0,4,0.02991883320426041
4.865,4.641847214699205e-06,78.59027976286526,0,60,3.0,4,0.025653641479182705
4.87,3.025641074479182e-06,78.42957576068818,0,60,3.0,4,0.0218723708397219
4.875,1.9566278676921314e-06,78.28808688740368,0,60,3.0,4,0.018543220880086572
4.88,1.2553456560008793e-06,78.16436368248169,0,60,3.0,4,0.015632086646628053
4.885,7.990660428214668e-07,78.05690374325727,0,60,3.0,4,0.013103617488406251
4.89,5.046221251618276e-07,77.9641911558218,0,60,3.0,4,0.010922144842865744
4.895,3.1616527078858815e-07,77.88473000441364,0,60,3.0,4,0.009052470692085656
4.9,1.9652884407760343e-07,77.8170718777431,0,60,3.0,4,0.007460514770425962
4.905,1.2120002189836396e-07,77.75983752025475,0,60,3.0,4,0.0061138240059940875
4.91,7.415549848886236e-08,77.71173296173248,0,60,3.0,4,0.004981952040764233
4.915,4.501406988770349e-08,77.67156059876946,0,60,3.0,4,0.004036719971046121
4.92,0.0,77.63822579784403,0,60,3.0,4,0.003252371713977161
4.925,0.0,77.61073964544266,0,60,3.0,4,0.0026056387162979636
4.93,0.0,77.5882184906858,0,60,3.0,4,0.002075729192607161
4.935,0.0,77.56988091599175,0,60,3.0,4,0.0016442568468646105
4.94,0.0,77.55504273763573,0,60,3.0,4,0.0012951232384877773
4.945,0.0,77.54311058680572,0,60,3.0,4,0.0010143667483699867
4.95,0.0,77.53357455876296,0,60,3.0,4,0.0007899896179521072
4.955,0.0,77.52600034823041,0,60,3.0,4,0.0006117728995390922
4.96,0.0,77.52002121764062,0,60,3.0,4,0.00047108747389690026
4.965,0.0,77.51533007501172,0,60,3.0,4,0.00036070764733454674
4.97,0.0,77.51167187275792,0,60,3.0,4,0.0002746323001862466
4.975,0.0,77.50883647961976,0,60,3.0,4,0.00020791716752375364
4.98,0.0,77.50665212631242,0,60,3.0,4,0.00015652061911570106
4.985,0.0,77.50497948198337,0,60,3.0,4,0.00011716428196163018
4.99,0.0,77.50370638316724,0,60,3.0,4,8.720901569979426e-05
4.995,0.0,77.50274320924372,0,60,3.0,4,6.454609985218989e-05
5.0,0.0,77.50201887777688,0,60,3.0,4,4.7503006514743364e-05
5.005,0.0,77.50147741869665,0,60,3.0,4,3.476279286239921e-05
5.01,0.0,77.50107507713466,0,60,3.0,4,2.529593258018662e-05
5.015,0.0,77.50077788989661,0,60,3.0,4,1.830329168496171e-05
5.02,0.0,77.50055967912361,0,60,3.0,4,1.3168920555565766e-05
5.025,0.0,77.50040040782481,0,60,3.0,4,9.421360583834992e-06
5.03,0.0,77.5002848449179,0,60,3.0,4,6.70223336234866e-06
5.035,0.0,77.5002014915631,0,60,3.0,4,4.740977955380539e-06
5.04,0.0,77.50014172541191,0,60,3.0,4,3.334715574296484e-06
5.045,0.0,77.50009912451172,0,60,3.0,4,2.3323414522484895e-06
5.05,0.0,77.50006893771202,0,60,3.0,4,1.6220638121253347e-06
5.055,0.0,77.50004767329185,0,60,3.0,4,1.121724514017414e-06
5.06,0.0,77.50003278203336,0,60,3.0,4,7.713419613671302e-07
5.065,0.001684486749771458,77.50002241501873,0,60,3.0,4,5.274122054957201e-07
5.07,0.003097557930867117,77.50001523999399,0,60,3.0,4,3.5858809376483857e-07
5.075,0.005475106668887023,77.5000103032196,0,60,3.0,4,2.4242869639077554e-07
5.08,0.00930222931468658,77.50000692633651,0,60,3.0,4,1.6297262377787882e-07
5.085,0.01519157517868857,77.50000462995416,0,60,3.0,4,1.0894009793606956e-07
5.09,0.023847336626128316,77.50000307745893,0,60,3.0,4,7.241079829862642e-08
5.095,0.0359830743700859,77.500002033997,0,60,3.0,4,4.785875309126448e-08
5.1,0.05218887796857759,77.50000133675195,0,60,3.0,4,3.145298705931055e-08
5.105,0.0727577001223134,77.50000087356216,0,60,3.0,4,2.055440371109666e-08
5.11,0.0974992498694751,77.50000056764821,0,60,3.0,4,1.3356428580129217e-08
5.115,0.12558706050443358,77.50000036678132,0,60,3.0,4,8.63014874726907e-09
5.12,0.15549263588878245,77.50000023565552,0,60,3.0,4,5.5448357643934505e-09
5.125,0.1850529723539114,77.50000015055338,0,60,3.0,4,3.5424323761938413e-09
5.13,0.21169159439317053,77.50000009564138,0,60,3.0,4,2.2503854779643005e-09
5.135,0.23277292922115492,77.50000006041483,0,60,3.0,4,1.4215255064567934e-09
5.14,0.24602692519491282,77.50000003794757,0,60,3.0,4,8.928840516626438e-10
5.145,0.24995056064839283,77.500000023701,0,60,3.0,4,5.576707200602601e-10
5.15,0.24408826520424054,77.50000001471946,0,60,3.0,4,3.463402636578608e-10
5.155,0.22911894216865275,77.50000000908992,0,60,3.0,4,2.1388038529788472e-10
5.16,0.20672661788705934,77.50000000558174,0,60,3.0,4,1.313350474126363e-10
5.165,0.17928878030241233,77.50000000340818,0,60,3.0,4,8.019235471746309e-11
5.17,0.14946211903866036,77.50000000206927,0,60,3.0,4,4.868872886564692e-11
5.175,0.1197651512573837,77.50000000124926,0,60,3.0,4,2.939440063902807e-11
5.18,0.09224675744988023,77.50000000074995,0,60,3.0,4,1.764586907965542e-11
5.185,0.06829565320281596,77.50000000044767,0,60,3.0,4,1.0533419887959848e-11
5.19,0.04860224607515734,77.50000000026571,0,60,3.0,4,6.252107328584637e-12
5.195,0.03324612389699793,77.50000000015683,0,60,3.0,4,3.6901410032228076e-12
5.2,0.021859876340472782,77.50000000009204,0,60,3.0,4,2.1657342585967854e-12
5.205,0.01381595518554205,77.50000000005372,0,60,3.0,4,1.2639301370226723e-12
5.21,0.008394095110402422,77.50000000003116,0,60,3.0,4,7.332801033044234e-13
5.215,0.0049052535271608,77.50000000001798,0,60,3.0,4,4.229819109348361e-13
5.22,0.0027671663551903634,77.50000000001032,0,60,3.0,4,2.4275483584086246e-13
5.225,0.0015425553464444616,77.50000000000588,0,60,3.0,4,1.3843044357867362e-13
5.23,0.0009638206637011801,77.50000000000334,0,60,3.0,4,7.857766724876402e-14
5.235,0.0009804935156568228,77.50000000000189,0,60,3.0,4,4.447161593227921e-14
5.24,0.0018793744894085216,77.50000000000105,0,60,3.0,4,2.4743605857057607e-14
5.245,0.004535525206900863,77.50000000000058,0,60,3.0,4,1.3709295137018404e-14
5.25,0.010832767979632273,77.50000000000033,0,60,3.0,4,7.690580198815202e-15
5.255,0.024208003392322392,77.50000000000018,0,60,3.0,4,4.3468496775912015e-15
5.26,0.0500971897335304,77.5000000000001,0,60,3.0,4,2.3406113648568006e-15
5.265,0.09582894921774403,77.50000000000006,0,60,3.0,4,1.3374922084896003e-15
5.27,0.16937896721820658,77.50000000000003,0,60,3.0,4,6.687461042448002e-16
5.275,0.27661303008991756,77.50000000000001,0,60,3.0,4,3.343730521224001e-16
5.28,0.4173782800009149,77.50000000000001,0,60,3.0,4,3.343730521224001e-16
5.285,0.5818720934538056,77.5,0,60,3.0,4,0.0
5.29,0.7494718801585675,77.5,0,60,3.0,4,0.0
5.295,0.891813020752378,77.5,0,60,3.0,4,0.0
5.3,0.9800361632936612,77.5,0,60,3.0,4,0.0
5.305,0.993574479225126,77.50000249158927,1,60,3.0,4,5.8625629903604824e-08
5.31,0.9263438449375362,77.50000379993156,0,60,3.0,4,8.941015440701877e-08
5.315,0.7873015962290536,77.50000591356006,0,60,3.0,4,1.3914258963321865e-07
5.32,0.5959516244629897,77.50000948821413,0,60,3.0,4,2.232520972377054e-07
5.325,0.376910120078773,77.50001585275675,0,60,3.0,4,3.730060410923804e-07
5.33,0.15739335672107918,77.50002775258693,0,60,3.0,4,6.530020454299708e-07
5.335,-0.033361226269301235,77.50005088320476,0,60,3.0,4,1.1972518768074865e-06
5.34,-0.1680180840843834,77.50009697753961,0,60,3.0,4,2.2818244614801885e-06
5.345,-0.23069703190837854,77.50018985514251,0,60,3.0,4,4.4671798237312244e-06
5.35,-0.22587267821131068,77.50037693597443,0,60,3.0,4,8.86908175128637e-06
5.355,-0.17718181630665902,77.5007504971461,0,60,3.0,4,1.7658756378830946e-05
5.36,-0.11494332516451301,77.50148568815435,0,60,3.0,4,3.495736833756649e-05
5.365,-0.061810214049552864,77.5029063011008,0,60,3.0,4,6.838355531278787e-05
5.37,-0.026546104631500547,77.50559469328022,0,60,3.0,4,0.0001316398418874301
5.375,-0.00719600351942686,77.51056896157553,0,60,3.0,4,0.00024868144883598953
5.38,0.0022072757983807078,77.51955777873579,0,60,3.0,4,0.00046018302907735713
5.385,0.006917199873730717,77.53540961162948,0,60,3.0,4,0.0008331673324582479
5.39,0.01004859748264829,77.56267550080591,0,60,3.0,4,0.0014747176660213936
5.395,0.013037082251128167,77.60839895060144,0,60,3.0,4,0.0025505635435633047
5.4,0.01645163937690478,77.68312739222574,0,60,3.0,4,0.004308879817076291
5.405,0.020526639934696615,77.80212156747965,0,60,3.0,4,0.007108742764226944
5.41,0.02539629541761738,77.98667804053113,0,60,3.0,4,0.011451248012497217
5.415,0.031171612185577933,78.2653960540608,0,60,3.0,4,0.018009318919077675
5.42,0.03795853426638131,78.67512045415272,0,60,3.0,4,0.0276498930388875
5.425,0.0458588961882057,79.26119444970924,0,60,3.0,4,0.04143986940492322
5.43,0.054966995891435555,80.07658695093733,0,60,3.0,4,0.060625575316172374
5.435,0.06536491004445595,81.17945433275491,0,60,3.0,4,0.08657539606482152
5.44,0.07711726085088699,82.62879178438199,0,60,3.0,4,0.12067745375016443
5.445,0.09026570629555215,84.47805091356526,0,60,3.0,4,0.16418943326035895
5.45,0.10482339848670268,86.76695055985479,0,60,3.0,4,0.2180458955259951
5.455,0.12076968927580028,89.51215426574176,0,60,3.0,4,0.28263892389980605
5.46,0.13804539501007884,92.69795756330784,0,60,3.0,4,0.35759900148959617
5.465,0.15654895051787066,96.26851367759303,0,60,3.0,4,0.44161208653160083
5.47,0.17613378141900526,100.12330495994888,0,60,3.0,4,0.5323130578811501
5.475,0.19660720058055794,104.11743307542135,0,60,3.0,4,0.6262925429510905
5.48,0.21773108748496234,108.0677995687299,0,60,3.0,4,0.7192423427936446
5.485,0.23922453870058807,111.76540786080702,0,60,3.0,4,0.806244890842518
5.49,0.2607685857914563,114.99296001198383,0,60,3.0,4,0.8821872943996194
5.495,0.2820129681603682,117.54584870617109,0,60,3.0,4,0.9422552636746138
5.5,0.30258482867153996,119.2537975193284,0,60,3.0,4,0.9824422945724329
5.505,0.3220990771751686,120.0,0,60,3.0,4,1.0
5.51,0.3401700499968971,119.73478616852705,0,60,3.0,4,0.9937596745535777
5.515,0.3564239911198326,118.48161074436288,0,60,3.0,4,0.964273193985009
5.52,0.3705118017738417,116.33437700317083,0,60,3.0,4,0.9137500471334312
5.525,0.3821214567925213,113.44653664567393,0,60,3.0,4,0.8458008622511513
5.53,0.39098947374066967,110.0137397798626,0,60,3.0,4,0.7650291712908848
5.535,0.3969108472035567,106.25277411123389,0,60,3.0,4,0.6765358614407975
5.54,0.3997469255491936,102.379945660435,0,60,3.0,4,0.5854104861278823
5.545,0.3994308076379137,98.59186644889243,0,60,3.0,4,0.4962792105621749
5.55,0.3959699661768434,95.05091722544557,0,60,3.0,4,0.4129627582457782
5.555,0.38944595408114946,91.87663925411117,0,60,3.0,4,0.33827386480261573
5.56,0.38001120995358023,89.14321850764775,0,60,3.0,4,0.2739580825328881
5.565,0.3678831374098315,86.88228150405848,0,60,3.0,4,0.22075956480137607
5.57,0.35333577933796634,85.08958077085171,0,60,3.0,4,0.1785783710788638
5.575,0.33668953221163944,83.73387384780025,0,60,3.0,4,0.1466793846541236
5.58,0.3182994390982644,82.76636774511343,0,60,3.0,4,0.12391453517913947
5.585,0.29854265738230645,82.12942061521238,0,60,3.0,4,0.10892754388735017
5.59,0.2778057157821067,81.76364371168687,0,60,3.0,4,0.10032102851027924
5.595,0.2564721553719815,81.61301314306044,0,60,3.0,4,0.09677677983671629
5.6,0.23491109433464996,81.62799466338542,0,60,3.0,4,0.09712928619730406
5.605,0.21346717185309805,81.76695761370226,0,60,3.0,4,0.10039900267534729
5.61,0.19245222055656455,81.99629623494059,0,60,3.0,4,0.10579520552801382
5.615,0.17213889801761392,82.28970640800449,0,60,3.0,4,0.11269897430598803
5.62,0.15275638501270183,82.62701710307833,0,60,3.0,4,0.12063569654301953
5.625,0.13448814019607322,82.99288504130256,0,60,3.0,4,0.12924435391300135
5.63,0.11747159495449566,83.37555924692441,0,60,3.0,4,0.13824845286880966
5.635,0.10179958433370105,83.76583043233612,0,60,3.0,4,0.14743130429026158
5.64,0.08752324394101413,84.15620940218066,0,60,3.0,4,0.15661669181601562
5.645,0.07465606047174059,84.54033150564439,0,60,3.0,4,0.16565485895633855
5.65,0.0631787448609295,84.91255790226458,0,60,3.0,4,0.1744131271121078
5.655,0.05304460019959574,85.26773383409369,0,60,3.0,4,0.182770207861028
5.66,0.044185078305849994,85.60106363445495,0,60,3.0,4,0.19061326198717518
5.665,0.03651525513023255,85.90806713082313,0,60,3.0,4,0.19783687366642652
5.67,0.0299390014708757,86.18458904516632,0,60,3.0,4,0.2043432716509722
5.675,0.024353677220580638,86.42683991565524,0,60,3.0,4,0.21004329213306439
5.68,0.01965423034339045,86.63145296320879,0,60,3.0,4,0.2148577167813832
5.685,0.015736632374757337,86.79554590696114,0,60,3.0,4,0.218718727222615
5.69,0.012500627640593535,86.91678008455858,0,60,3.0,4,0.22157129610726076
5.695,0.009851811652115898,86.9934116100258,0,60,3.0,4,0.22337439082413652
5.7,0.007703084175428559,87.0243309843258,0,60,3.0,4,0.22410190551354825
5.705,0.005975544002062424,87.00908880101858,0,60,3.0,4,0.2237432659063195
5.71,0.004598905818663047,86.94790613701386,0,60,3.0,4,0.22230367381209082
5.715,0.0035115256454839104,86.84166899981275,0,60,3.0,4,0.21980397646618244
5.72,0.002660121266303676,86.6919068819151,0,60,3.0,4,0.21628016192741417
5.725,0.0019992692560877024,86.50075607951777,0,60,3.0,4,0.21178249598865342
5.73,0.0014907520044639367,86.27090897359844,0,60,3.0,4,0.20637432879055148
5.735,0.0011028178277539807,86.00555094222749,0,60,3.0,4,0.20013061040535263
5.74,0.0008094059938923333,85.7082869635257,0,60,3.0,4,0.19313616384766338
5.745,0.0005893771793717645,85.38306026845892,0,60,3.0,4,0.1854837710225628
5.75,0.0004257792353490551,85.03406560313258,0,60,3.0,4,0.17727213183841353
5.755,0.0003051686392901525,84.66565975665422,0,60,3.0,4,0.16860375898009933
5.76,0.00021699992642659966,84.2822720027081,0,60,3.0,4,0.15958287065195523
5.765,0.00015308884054097838,83.88831699514871,0,60,3.0,4,0.15031334106232266
5.77,0.00010714989329311098,83.48811245900696,0,60,3.0,4,0.14089676374134014
5.775,7.440535854020571e-05,83.0858037409954,0,60,3.0,4,0.13143067625871535
5.78,5.1260276743925106e-05,82.68529694362411,0,60,3.0,4,0.12200698690880259
5.785,3.503659887882241e-05,82.29020198220566,0,60,3.0,4,0.11271063487542726
5.79,2.375894748103639e-05,81.90378649321408,0,60,3.0,4,0.10361850572268436
5.795,1.5984413869232557e-05,81.52894110457248,0,60,3.0,4,0.09479861422523486
5.8,1.0669166579899869e-05,81.16815617144748,0,60,3.0,4,0.08630955697523478
5.805,7.06526633560511e-06,80.82350970120721,0,60,3.0,4,0.07820022826369917
5.81,4.641847214699205e-06,80.49666585205212,0,60,3.0,4,0.07050978475416748
5.815,3.025641074479182e-06,80.18888310217035,0,60,3.0,4,0.06326783769812591
5.82,1.9566278676921314e-06,79.90103095754084,0,60,3.0,4,0.05649484605978447
5.825,1.2553456560008793e-06,79.63361390077021,0,60,3.0,4,0.05020268001812269
5.83,7.990660428214668e-07,79.38680118140502,0,60,3.0,4,0.04439532191541221
5.835,5.046221251618276e-07,79.16046100780952,0,60,3.0,4,0.03906967077198862
5.84,3.1616527078858815e-07,78.95419771716094,0,60,3.0,4,0.034216416874375
5.845,1.9652884407760343e-07,78.76739056652946,0,60,3.0,4,0.029820954506575455
5.85,1.2120002189836396e-07,78.59923289601649,0,60,3.0,4,0.02586430343568208
5.855,7.415549848886236e-08,78.44877055523571,0,60,3.0,4,0.022324013064369676
5.86,4.501406988770349e-08,78.31493864740304,0,60,3.0,4,0.019175026997718572
5.865,0.0,78.19659582148978,0,60,3.0,4,0.01639048991740658
5.87,0.0,78.09255552344018,0,60,3.0,4,0.013942482904474886
5.875,0.0,78.00161379448677,0,60,3.0,4,0.011802677517335818
5.88,0.0,77.92257337147358,0,60,3.0,4,0.009942902858201772
5.885,0.0,77.85426399556034,0,60,3.0,4,0.00833562342494929
5.89,0.0,77.79555896792559,0,60,3.0,4,0.006954328657072625
5.895,0.0,77.74538810172116,0,60,3.0,4,0.005773837687556739
5.9,0.0,77.70274730749595,0,60,3.0,4,0.004770524882257753
5.905,0.0,77.66670511470362,0,60,3.0,4,0.003922473287143943
5.91,0.0,77.63640647582612,0,60,3.0,4,0.003209564137085194
5.915,0.0,77.61107422393171,0,60,3.0,4,0.002613511151334331
5.92,0.0,77.59000856154358,0,60,3.0,4,0.0021178485069078628
5.925,0.0,77.57258495126403,0,60,3.0,4,0.0017078812062125588
5.93,0.0,77.55825075956768,0,60,3.0,4,0.001370606107474928
5.935,0.0,77.54652097741523,0,60,3.0,4,0.001094611233299461
5.94,0.0,77.53697330756953,0,60,3.0,4,0.0008699601781064731
5.945,0.0,77.52924287118194,0,60,3.0,4,0.000688067557222011
5.95,0.0,77.52301674750609,0,60,3.0,4,0.0005415705295550812
5.955,0.0,77.51802852227003,0,60,3.0,4,0.00042420052400068606
5.96,0.0,77.51405298370467,0,60,3.0,4,0.00033065844010994784
5.965,0.0,77.51090107153125,0,60,3.0,4,0.00025649580073531175
5.97,0.0,77.50841515405568,0,60,3.0,4,0.00019800362483960379
5.975,0.0,77.50646468230802,0,60,3.0,4,0.00015211017195343522
5.98,0.0,77.50494224804716,0,60,3.0,4,0.00011628818934488716
5.985,0.0,77.50376005436644,0,60,3.0,4,8.847186744560531e-05
5.99,0.0,77.50284679336629,0,60,3.0,4,6.698337332442647e-05
5.995,0.0,77.50214491457672,0,60,3.0,4,5.046857827571383e-05
6.0,0.0,77.50160826011297,0,60,3.0,4,3.7841414422914834e-05
6.005,0.0,77.50120003749603,0,60,3.0,4,2.823617637726356e-05
6.01,0.0,77.50089109821971,0,60,3.0,4,2.0967016934371393e-05
6.015,0.0,77.50065848907005,0,60,3.0,4,1.5493860471719124e-05
6.02,0.0,77.50048424350034,0,60,3.0,4,1.1393964713841556e-05
6.025,0.0,77.5003543816815,0,60,3.0,5,8.338392505974673e-06
6.03,0.0,77.5002580898728,0,60,3.0,5,6.072702889442178e-06
6.035,0.0,77.50018705223314,0,60,3.0,5,4.401229015162672e-06
6.04,0.0,77.50013491090827,0,60,3.0,5,3.1743743122928316e-06
6.045,0.0,77.5000968330184,0,60,3.0,5,2.2784239624396672e-06
6.05,0.0,77.50006916591201,0,60,3.0,5,1.627433223749155e-06
6.055,0.0,77.50004916465329,0,60,3.0,5,1.1568153715469474e-06
6.06,0.0,77.50003477811896,0,60,3.0,5,8.183086813861497e-07
6.065,0.0,77.50002448225581,0,60,3.0,5,5.760530778870281e-07
6.07,0.0,77.5000171509827,0,60,3.0,5,4.035525341136878e-07
6.075,0.0,77.50001195690616,0,60,3.0,5,2.81338968561078e-07
6.08,0.0,77.50000829546754,0,60,3.0,5,1.9518747147712395e-07
6.085,0.001684486749771458,77.5000057273688,0,60,3.0,5,1.3476161885752363e-07
6.09,0.003097557930867117,77.5000039351534,0,60,3.0,5,9.259184473782678e-08
6.095,0.005475106668887023,77.50000269066989,0,60,3.0,5,6.33098797125593e-08
6.1,0.00930222931468658,77.50000183084427,0,60,3.0,5,4.3078688684224345e-08
6.105,0.01519157517868857,77.50000123975146,0,60,3.0,5,2.917062247701431e-08
6.11,0.023847336626128316,77.50000083543003,0,60,3.0,5,1.96571771566061e-08
6.115,0.0359830743700859,77.50000056024471,0,60,3.0,5,1.3182228579299751e-08
6.12,0.05218887796857759,77.5000003738847,0,60,3.0,5,8.797287123610765e-09
6.125,0.0727577001223134,77.50000024830751,0,60,3.0,5,5.8425297645632836e-09
6.13,0.0974992498694751,77.5000001641097,0,60,3.0,5,3.861404539908536e-09
6.135,0.12558706050443358,77.50000010793714,0,60,3.0,5,2.53969741446353e-09
6.14,0.15549263588878245,77.50000007064799,0,60,3.0,5,1.662305535051821e-09
6.145,0.1850529723539114,77.50000004601726,0,60,3.0,5,1.082759126802557e-09
6.15,0.21169159439317053,77.50000002982868,0,60,3.0,5,7.018513770162827e-10
6.155,0.23277292922115492,77.50000001924154,0,60,3.0,5,4.5274211569288607e-10
6.16,0.24602692519491282,77.500000012352,0,60,3.0,5,2.906353850395295e-10
6.165,0.24995056064839283,77.50000000789092,0,60,3.0,5,1.856686621442136e-10
6.17,0.24408826520424054,77.5000000050166,0,60,3.0,5,1.180376998758327e-10
6.175,0.22911894216865275,77.50000000317384,0,60,3.0,5,7.467854308796471e-11
6.18,0.20672661788705934,77.50000000199826,0,60,3.0,5,4.701786672419129e-11
6.185,0.17928878030241233,77.50000000125202,0,60,3.0,5,2.9459269011139815e-11
6.19,0.14946211903866036,77.50000000078066,0,60,3.0,5,1.8368449245291926e-11
6.195,0.1197651512573837,77.5000000004844,0,60,3.0,5,1.1397774227696251e-11
6.2,0.09224675744988023,77.50000000029911,0,60,3.0,5,7.037884001072277e-12
6.205,0.06829565320281596,77.5000000001838,0,60,3.0,5,4.3247810561511225e-12
6.21,0.04860224607515734,77.50000000011241,0,60,3.0,5,2.6448908422881848e-12
6.215,0.03324612389699793,77.50000000006841,0,60,3.0,5,1.609671872917234e-12
6.22,0.021859876340472782,77.50000000004142,0,60,3.0,5,9.746974469367963e-13
6.225,0.01381595518554205,77.50000000002497,0,60,3.0,5,5.87493452579057e-13
6.23,0.008394095110402422,77.50000000001498,0,60,3.0,5,3.524291969370097e-13
6.235,0.0049052535271608,77.50000000000894,0,60,3.0,5,2.1032064978498967e-13
6.24,0.0027671663551903634,77.50000000000531,0,60,3.0,5,1.2505552149377764e-13
6.245,0.0015425553464444616,77.50000000000314,0,60,3.0,5,7.389644451905042e-14
6.25,0.0009638206637011801,77.50000000000185,0,60,3.0,5,4.346849677591201e-14
6.255,0.0009804935156568228,77.50000000000108,0,60,3.0,5,2.5412351961302408e-14
6.26,0.0018793744894085216,77.50000000000063,0,60,3.0,5,1.4712414293385605e-14
6.265,0.004535525206900863,77.50000000000037,0,60,3.0,5,8.693699355182403e-15
6.27,0.010832767979632273,77.50000000000021,0,60,3.0,5,5.015595781836002e-15
6.275,0.024208003392322392,77.50000000000011,0,60,3.0,5,2.6749844169792007e-15
6.28,0.0500971897335304,77.50000000000007,0,60,3.0,5,1.6718652606120004e-15
6.285,0.09582894921774403,77.50000000000004,0,60,3.0,5,1.0031191563672002e-15
6.29,0.16937896721820658,77.50000000000003,0,60,3.0,5,6.687461042448002e-16
6.295,0.27661303008991756,77.50000000000001,0,60,3.0,5,3.343730521224001e-16
6.3,0.4173782800009149,77.5,0,60,3.0,5,0.0
6.305,0.5818720934538056,77.5,0,60,3.0,5,0.0
6.31,0.7494718801585675,77.5,0,60,3.0,5,0.0
6.315,0.891813020752378,77.5,0,60,3.0,5,0.0
6.32,0.9800361632936612,77.5,0,60,3.0,5,0.0
6.325,0.993574479225126,77.50000249158927,1,60,3.0,5,5.8625629903604824e-08
6.33,0.9263438449375362,77.50000379993156,0,60,3.0,5,8.941015440701877e-08
6.335,0.7873015962290536,77.50000591356006,0,60,3.0,5,1.3914258963321865e-07
6.34,0.5959516244629897,77.50000948821413,0,60,3.0,5,2.232520972377054e-07
6.345,0.376910120078773,77.50001585275675,0,60,3.0,5,3.730060410923804e-07
6.35,0.15739335672107918,77.50002775258693,0,60,3.0,5,6.530020454299708e-07
6.355,-0.033361226269301235,77.50005088320476,0,60,3.0,5,1.1972518768074865e-06
6.36,-0.1680180840843834,77.50009697753961,0,60,3.0,5,2.2818244614801885e-06
6.365,-0.23069703190837854,77.50018985514251,0,60,3.0,5,4.4671798237312244e-06
6.37,-0.22587267821131068,77.50037693597443,0,60,3.0,5,8.86908175128637e-06
6.375,-0.17718181630665902,77.5007504971461,0,60,3.0,5,1.7658756378830946e-05
6.38,-0.11494332516451301,77.50148568815435,0,60,3.0,5,3.495736833756649e-05
6.385,-0.061810214049552864,77.5029063011008,0,60,3.0,5,6.838355531278787e-05
6.39,-0.026546104631500547,77.50559469328022,0,60,3.0,5,0.0001316398418874301
6.395,-0.00719600351942686,77.51056896157553,0,60,3.0,5,0.00024868144883598953
6.4,0.0022072757983807078,77.51955777873579,0,60,3.0,5,0.00046018302907735713
6.405,0.006917199873730717,77.53540961162948,0,60,3.0,5,0.0008331673324582479
6.41,0.01004859748264829,77.56267550080591,0,60,3.0,5,0.0014747176660213936
6.415,0.013037082251128167,77.60839895060144,0,60,3.0,5,0.0025505635435633047
6.42,0.01645163937690478,77.68312739222574,0,60,3.0,5,0.004308879817076291
6.425,0.020526639934696615,77.80212156747965,0,60,3.0,5,0.007108742764226944
6.43,0.02539629541761738,77.98667804053113,0,60,3.0,5,0.011451248012497217
6.435,0.031171612185577933,78.2653960540608,0,60,3.0,5,0.018009318919077675
6.44,0.03795853426638131,78.67512045415272,0,60,3.0,5,0.0276498930388875
6.445,0.0458588961882057,79.26119444970924,0,60,3.0,5,0.04143986940492322
6.45,0.054966995891435555,80.07658695093733,0,60,3.0,5,0.060625575316172374
6.455,0.06536491004445595,81.17945433275491,0,60,3.0,5,0.08657539606482152
6.46,0.07711726085088699,82.62879178438199,0,60,3.0,5,0.12067745375016443
6.465,0.09026570629555215,84.47805091356526,0,60,3.0,5,0.16418943326035895
6.47,0.10482339848670268,86.76695055985479,0,60,3.0,5,0.2180458955259951
6.475,0.12076968927580028,89.51215426574176,0,60,3.0,5,0.28263892389980605
6.48,0.13804539501007884,92.69795756330784,0,60,3.0,5,0.35759900148959617
6.485,0.15654895051787066,96.26851367759303,0,60,3.0,5,0.44161208653160083
6.49,0.17613378141900526,100.12330495994888,0,60,3.0,5,0.5323130578811501
6.495,0.19660720058055794,104.11743307542135,0,60,3.0,5,0.6262925429510905
6.5,0.21773108748496234,108.0677995687299,0,60,3.0,5,0.7192423427936446
6.505,0.23922453870058807,111.76540786080702,0,60,3.0,5,0.806244890842518
6.51,0.2607685857914563,114.99296001198383,0,60,3.0,5,0.8821872943996194
6.515,0.2820129681603682,117.54584870617109,0,60,3.0,5,0.9422552636746138
6.52,0.30258482867153996,119.2537975193284,0,60,3.0,5,0.9824422945724329
6.525,0.3220990771751686,120.0,0,60,3.0,5,1.0
6.53,0.3401700499968971,119.73478616852705,0,60,3.0,5,0.9937596745535777
6.535,0.3564239911198326,118.48161074436288,0,60,3.0,5,0.964273193985009
6.54,0.3705118017738417,116.33437700317083,0,60,3.0,5,0.9137500471334312
6.545,0.3821214567925213,113.44653664567393,0,60,3.0,5,0.8458008622511513
6.55,0.39098947374066967,110.0137397798626,0,60,3.0,5,0.7650291712908848
6.555,0.3969108472035567,106.25277411123389,0,60,3.0,5,0.6765358614407975
6.56,0.3997469255491936,102.379945660435,0,60,3.0,5,0.5854104861278823
6.565,0.3994308076379137,98.59186644889243,0,60,3.0,5,0.4962792105621749
6.57,0.3959699661768434,95.05091722544557,0,60,3.0,5,0.4129627582457782
6.575,0.38944595408114946,91.87663925411117,0,60,3.0,5,0.33827386480261573
6.58,0.38001120995358023,89.14321850764775,0,60,3.0,5,0.2739580825328881
6.585,0.3678831374098315,86.88228150405848,0,60,3.0,5,0.22075956480137607
6.59,0.35333577933796634,85.08958077085171,0,60,3.0,5,0.1785783710788638
6.595,0.33668953221163944,83.73387384780025,0,60,3.0,5,0.1466793846541236
6.6,0.3182994390982644,82.76636774511343,0,60,3.0,5,0.12391453517913947
6.605,0.29854265738230645,82.12942061521238,0,60,3.0,5,0.10892754388735017
6.61,0.2778057157821067,81.76364371168687,0,60,3.0,5,0.10032102851027924
6.615,0.2564721553719815,81.61301314306044,0,60,3.0,5,0.09677677983671629
6.62,0.23491109433464996,81.62799466338542,0,60,3.0,5,0.09712928619730406
6.625,0.21346717185309805,81.76695761370226,0,60,3.0,5,0.10039900267534729
6.63,0.19245222055656455,81.99629623494059,0,60,3.0,5,0.10579520552801382
6.635,0.17213889801761392,82.28970640800449,0,60,3.0,5,0.11269897430598803
6.64,0.15275638501270183,82.62701710307833,0,60,3.0,5,0.12063569654301953
6.645,0.13448814019607322,82.99288504130256,0,60,3.0,5,0.12924435391300135
6.65,0.11747159495449566,83.37555924692441,0,60,3.0,5,0.13824845286880966
6.655,0.10179958433370105,83.76583043233612,0,60,3.0,5,0.14743130429026158
6.66,0.08752324394101413,84.15620940218066,0,60,3.0,5,0.15661669181601562
6.665,0.07465606047174059,84.54033150564439,0,60,3.0,5,0.16565485895633855
6.67,0.0631787448609295,84.91255790226458,0,60,3.0,5,0.1744131271121078
6.675,0.05304460019959574,85.26773383409369,0,60,3.0,5,0.182770207861028
6.68,0.044185078305849994,85.60106363445495,0,60,3.0,5,0.19061326198717518
6.685,0.03651525513023255,85.90806713082313,0,60,3.0,5,0.19783687366642652
6.69,0.0299390014708757,86.18458904516632,0,60,3.0,5,0.2043432716509722
6.695,0.024353677220580638,86.42683991565524,0,60,3.0,5,0.21004329213306439
6.7,0.01965423034339045,86.63145296320879,0,60,3.0,5,0.2148577167813832
6.705,0.015736632374757337,86.79554590696114,0,60,3.0,5,0.218718727222615
6.71,0.012500627640593535,86.91678008455858,0,60,3.0,5,0.22157129610726076
6.715,0.009851811652115898,86.9934116100258,0,60,3.0,5,0.22337439082413652
6.72,0.007703084175428559,87.0243309843258,0,60,3.0,5,0.22410190551354825
6.725,0.005975544002062424,87.00908880101858,0,60,3.0,5,0.2237432659063195
6.73,0.004598905818663047,86.94790613701386,0,60,3.0,5,0.22230367381209082
6.735,0.0035115256454839104,86.84166899981275,0,60,3.0,5,0.21980397646618244
6.74,0.002660121266303676,86.6919068819151,0,60,3.0,5,0.21628016192741417
6.745,0.0019992692560877024,86.50075607951777,0,60,3.0,5,0.21178249598865342
6.75,0.0014907520044639367,86.27090897359844,0,60,3.0,5,0.20637432879055148
6.755,0.0011028178277539807,86.00555094222749,0,60,3.0,5,0.20013061040535263
6.76,0.0008094059938923333,85.7082869635257,0,60,3.0,5,0.19313616384766338
6.765,0.0005893771793717645,85.38306026845892,0,60,3.0,5,0.1854837710225628
6.77,0.0004257792353490551,85.03406560313258,0,60,3.0,5,0.17727213183841353
6.775,0.0003051686392901525,84.66565975665422,0,60,3.0,5,0.16860375898009933
6.78,0.00021699992642659966,84.2822720027081,0,60,3.0,5,0.15958287065195523
6.785,0.00015308884054097838,83.88831699514871,0,60,3.0,5,0.15031334106232266
6.79,0.00010714989329311098,83.48811245900696,0,60,3.0,5,0.14089676374134014
6.795,7.440535854020571e-05,83.0858037409954,0,60,3.0,5,0.13143067625871535
6.8,5.1260276743925106e-05,82.68529694362411,0,60,3.0,5,0.12200698690880259
6.805,3.503659887882241e-05,82.29020198220566,0,60,3.0,5,0.11271063487542726
6.81,2.375894748103639e-05,81.90378649321408,0,60,3.0,5,0.10361850572268436
6.815,1.5984413869232557e-05,81.52894110457248,0,60,3.0,5,0.09479861422523486
6.82,1.0669166579899869e-05,81.16815617144748,0,60,3.0,5,0.08630955697523478
6.825,7.06526633560511e-06,80.82350970120721,0,60,3.0,5,0.07820022826369917
6.83,4.641847214699205e-06,80.49666585205212,0,60,3.0,5,0.07050978475416748
6.835,3.025641074479182e-06,80.18888310217035,0,60,3.0,5,0.06326783769812591
6.84,1.9566278676921314e-06,79.90103095754084,0,60,3.0,5,0.05649484605978447
6.845,1.2553456560008793e-06,79.63361390077021,0,60,3.0,5,0.05020268001812269
6.85,7.990660428214668e-07,79.38680118140502,0,60,3.0,5,0.04439532191541221
6.855,5.046221251618276e-07,79.16046100780952,0,60,3.0,5,0.03906967077198862
6.86,3.1616527078858815e-07,78.95419771716094,0,60,3.0,5,0.034216416874375
6.865,1.9652884407760343e-07,78.76739056652946,0,60,3.0,5,0.029820954506575455
6.87,1.2120002189836396e-07,78.59923289601649,0,60,3.0,5,0.02586430343568208
6.875,7.415549848886236e-08,78.44877055523571,0,60,3.0,5,0.022324013064369676
6.88,4.501406988770349e-08,78.31493864740304,0,60,3.0,5,0.019175026997718572
6.885,0.0,78.19659582148978,0,60,3.0,5,0.01639048991740658
6.89,0.0,78.09255552344018,0,60,3.0,5,0.013942482904474886
6.895,0.0,78.00161379448677,0,60,3.0,5,0.011802677517335818
6.9,0.0,77.92257337147358,0,60,3.0,5,0.009942902858201772
6.905,0.0,77.85426399556034,0,60,3.0,5,0.00833562342494929
6.91,0.0,77.79555896792559,0,60,3.0,5,0.006954328657072625
6.915,0.0,77.74538810172116,0,60,3.0,5,0.005773837687556739
6.92,0.0,77.70274730749595,0,60,3.0,5,0.004770524882257753
6.925,0.0,77.66670511470362,0,60,3.0,5,0.003922473287143943
6.93,0.0,77.63640647582612,0,60,3.0,5,0.003209564137085194
6.935,0.0,77.61107422393171,0,60,3.0,5,0.002613511151334331
6.94,0.0,77.59000856154358,0,60,3.0,5,0.0021178485069078628
6.945,0.0,77.57258495126403,0,60,3.0,5,0.0017078812062125588
6.95,0.0,77.55825075956768,0,60,3.0,5,0.001370606107474928
6.955,0.0,77.54652097741523,0,60,3.0,5,0.001094611233299461
6.96,0.0,77.53697330756953,0,60,3.0,5,0.0008699601781064731
6.965,0.0,77.52924287118194,0,60,3.0,5,0.000688067557222011
6.97,0.0,77.52301674750609,0,60,3.0,5,0.0005415705295550812
6.975,0.0,77.51802852227003,0,60,3.0,5,0.00042420052400068606
6.98,0.0,77.51405298370467,0,60,3.0,5,0.00033065844010994784
6.985,0.0,77.51090107153125,0,60,3.0,5,0.00025649580073531175
6.99,0.0,77.50841515405568,0,60,3.0,5,0.00019800362483960379
6.995,0.0,77.50646468230802,0,60,3.0,5,0.00015211017195343522
7.0,0.0,77.50494224804716,0,60,3.0,5,0.00011628818934488716
7.005,0.0,77.50376005436644,0,60,3.0,5,8.847186744560531e-05
7.01,0.0,77.50284679336629,0,60,3.0,5,6.698337332442647e-05
7.015,0.0,77.50214491457672,0,60,3.0,5,5.046857827571383e-05
7.02,0.0,77.50160826011297,0,60,3.0,5,3.7841414422914834e-05
7.025,0.0,77.50120003749603,0,60,3.0,5,2.823617637726356e-05
7.03,0.0,77.50089109821971,0,60,3.0,5,2.0967016934371393e-05
7.035,0.0,77.50065848907005,0,60,3.0,5,1.5493860471719124e-05
7.04,0.0,77.50048424350034,0,60,3.0,5,1.1393964713841556e-05
7.045,0.0,77.5003543816815,0,60,3.0,5,8.338392505974673e-06
7.05,0.0,77.5002580898728,0,60,3.0,5,6.072702889442178e-06
7.055,0.0,77.50018705223314,0,60,3.0,5,4.401229015162672e-06
7.06,0.0,77.50013491090827,0,60,3.0,5,3.1743743122928316e-06
7.065,0.0,77.5000968330184,0,60,3.0,5,2.2784239624396672e-06
7.07,0.0,77.50006916591201,0,60,3.0,5,1.627433223749155e-06
7.075,0.0,77.50004916465329,0,60,3.0,5,1.1568153715469474e-06
7.08,0.0,77.50003477811896,0,60,3.0,5,8.183086813861497e-07
7.085,0.0,77.50002448225581,0,60,3.0,5,5.760530778870281e-07
7.09,0.0,77.5000171509827,0,60,3.0,5,4.035525341136878e-07
7.095,0.0,77.50001195690616,0,60,3.0,5,2.81338968561078e-07
7.1,0.0,77.50000829546754,0,60,3.0,5,1.9518747147712395e-07
7.105,0.001684486749771458,77.5000057273688,0,60,3.0,5,1.3476161885752363e-07
7.11,0.003097557930867117,77.5000039351534,0,60,3.0,5,9.259184473782678e-08
7.115,0.005475106668887023,77.50000269066989,0,60,3.0,5,6.33098797125593e-08
7.12,0.00930222931468658,77.50000183084427,0,60,3.0,5,4.3078688684224345e-08
7.125,0.01519157517868857,77.50000123975146,0,60,3.0,5,2.917062247701431e-08
7.13,0.023847336626128316,77.50000083543003,0,60,3.0,5,1.96571771566061e-08
7.135,0.0359830743700859,77.50000056024471,0,60,3.0,5,1.3182228579299751e-08
7.14,0.05218887796857759,77.5000003738847,0,60,3.0,5,8.797287123610765e-09
7.145,0.0727577001223134,77.50000024830751,0,60,3.0,5,5.8425297645632836e-09
7.15,0.0974992498694751,77.5000001641097,0,60,3.0,5,3.861404539908536e-09
7.155,0.12558706050443358,77.50000010793714,0,60,3.0,5,2.53969741446353e-09
7.16,0.15549263588878245,77.50000007064799,0,60,3.0,5,1.662305535051821e-09
7.165,0.1850529723539114,77.50000004601726,0,60,3.0,5,1.082759126802557e-09
7.17,0.21169159439317053,77.50000002982868,0,60,3.0,5,7.018513770162827e-10
7.175,0.23277292922115492,77.50000001924154,0,60,3.0,5,4.5274211569288607e-10
7.18,0.24602692519491282,77.500000012352,0,60,3.0,5,2.906353850395295e-10
7.185,0.24995056064839283,77.50000000789092,0,60,3.0,5,1.856686621442136e-10
7.19,0.24408826520424054,77.5000000050166,0,60,3.0,5,1.180376998758327e-10
7.195,0.22911894216865275,77.50000000317384,0,60,3.0,5,7.467854308796471e-11
7.2,0.20672661788705934,77.50000000199826,0,60,3.0,5,4.701786672419129e-11
7.205,0.17928878030241233,77.50000000125202,0,60,3.0,5,2.9459269011139815e-11
7.21,0.14946211903866036,77.50000000078066,0,60,3.0,5,1.8368449245291926e-11
7.215,0.1197651512573837,77.5000000004844,0,60,3.0,5,1.1397774227696251e-11
7.22,0.09224675744988023,77.50000000029911,0,60,3.0,5,7.037884001072277e-12
7.225,0.06829565320281596,77.5000000001838,0,60,3.0,5,4.3247810561511225e-12
7.23,0.04860224607515734,77.50000000011241,0,60,3.0,6,2.6448908422881848e-12
7.235,0.03324612389699793,77.50000000006841,0,60,3.0,6,1.609671872917234e-12
7.24,0.021859876340472782,77.50000000004142,0,60,3.0,6,9.746974469367963e-13
7.245,0.01381595518554205,77.50000000002497,0,60,3.0,6,5.87493452579057e-13
7.25,0.008394095110402422,77.50000000001498,0,60,3.0,6,3.524291969370097e-13
7.255,0.0049052535271608,77.50000000000894,0,60,3.0,6,2.1032064978498967e-13
7.26,0.0027671663551903634,77.50000000000531,0,60,3.0,6,1.2505552149377764e-13
7.265,0.0015425553464444616,77.50000000000314,0,60,3.0,6,7.389644451905042e-14
7.27,0.0009638206637011801,77.50000000000185,0,60,3.0,6,4.346849677591201e-14
7.275,0.0009804935156568228,77.50000000000108,0,60,3.0,6,2.5412351961302408e-14
7.28,0.0018793744894085216,77.50000000000063,0,60,3.0,6,1.4712414293385605e-14
7.285,0.004535525206900863,77.50000000000037,0,60,3.0,6,8.693699355182403e-15
7.29,0.010832767979632273,77.50000000000021,0,60,3.0,6,5.015595781836002e-15
7.295,0.024208003392322392,77.50000000000011,0,60,3.0,6,2.6749844169792007e-15
7.3,0.0500971897335304,77.50000000000007,0,60,3.0,6,1.6718652606120004e-15
7.305,0.09582894921774403,77.50000000000004,0,60,3.0,6,1.0031191563672002e-15
7.31,0.16937896721820658,77.50000000000003,0,60,3.0,6,6.687461042448002e-16
7.315,0.27661303008991756,77.50000000000001,0,60,3.0,6,3.343730521224001e-16
7.32,0.4173782800009149,77.5,0,60,3.0,6,0.0
7.325,0.5818720934538056,77.5,0,60,3.0,6,0.0
7.33,0.7494718801585675,77.5,0,60,3.0,6,0.0
7.335,0.891813020752378,77.5,0,60,3.0,6,0.0
7.34,0.9800361632936612,77.5,0,60,3.0,6,0.0
7.345,0.993574479225126,77.50000249379623,1,60,3.0,6,5.8677558372972485e-08
7.35,0.9263438449375362,77.50000374914603,0,60,3.0,6,8.821520074942621e-08
7.355,0.7873015962290536,77.50000574205839,0,60,3.0,6,1.3510725626902592e-07
7.36,0.5959516244629897,77.50000904290425,0,60,3.0,6,2.1277421771682224e-07
7.365,0.376910120078773,77.50001477842311,0,60,3.0,6,3.477276025290955e-07
7.37,0.15739335672107918,77.50002521824138,0,60,3.0,6,5.93370385318207e-07
7.375,-0.033361226269301235,77.50004495906866,0,60,3.0,6,1.0578604390582981e-06
7.38,-0.1680180840843834,77.5000832626602,0,60,3.0,6,1.9591214164152276e-06
7.385,-0.23069703190837854,77.50015855775519,0,60,3.0,6,3.730770710235982e-06
7.39,-0.22587267821131068,77.50030687962926,0,60,3.0,6,7.220697159147997e-06
7.395,-0.17718181630665902,77.50059725115638,0,60,3.0,6,1.4052968385372237e-05
7.4,-0.11494332516451301,77.50115890175013,0,60,3.0,6,2.726827647366543e-05
7.405,-0.061810214049552864,77.502227982956,0,60,3.0,6,5.242312837648409e-05
7.41,-0.026546104631500547,77.50422523134473,0,60,3.0,6,9.941720811137683e-05
7.415,-0.00719600351942686,77.50788085207563,0,60,3.0,6,0.00018543181354422868
7.42,0.0022072757983807078,77.51442842473308,0,60,3.0,6,0.0003394923466607773
7.425,0.006917199873730717,77.52589499534879,0,60,3.0,6,0.0006092940082068895
7.43,0.01004859748264829,77.54551806446773,0,60,3.0,6,0.0010710132815936102
7.435,0.013037082251128167,77.57831931533336,0,60,3.0,6,0.001842807419608468
7.44,0.01645163937690478,77.63185613703956,0,60,3.0,6,0.0031024973421073594
7.445,0.020526639934696615,77.71715124028381,0,60,3.0,6,0.005109440947854396
7.45,0.02539629541761738,77.84976424958334,0,60,3.0,6,0.008229747049019874
7.455,0.031171612185577933,78.05091521223822,0,60,3.0,6,0.012962710876193488
7.46,0.03795853426638131,78.34850034697884,0,60,3.0,6,0.0199647140465609
7.465,0.0458588961882057,78.77776263344921,0,60,3.0,6,0.030065003139981505
7.47,0.054966995891435555,79.38130867176919,0,60,3.0,6,0.04426608639456918
7.475,0.06536491004445595,80.20812022232984,0,60,3.0,6,0.06372047581952563
7.48,0.07711726085088699,81.31122000278289,0,60,3.0,6,0.08967576477136209
7.485,0.09026570629555215,82.74374175486754,0,60,3.0,6,0.12338215893805983
7.49,0.10482339848670268,84.5533405253622,0,60,3.0,6,0.16596095353793416
7.495,0.12076968927580028,86.77515893010619,0,60,3.0,6,0.21823903364955735
7.5,0.13804539501007884,89.42391197979815,0,60,3.0,6,0.28056263481877997
7.505,0.15654895051787066,92.48601184868365,0,60,3.0,6,0.3526120434984387
7.51,0.17613378141900526,95.91294646423091,0,60,3.0,6,0.4332457991583744
7.515,0.19660720058055794,99.61726401786359,0,60,3.0,6,0.5204062121850257
7.52,0.21773108748496234,103.4724229370135,0,60,3.0,6,0.6111158338120825
7.525,0.23922453870058807,107.317402683545,0,60,3.0,6,0.7015859454951764
7.53,0.2607685857914563,110.96635024110174,0,60,3.0,6,0.7874435350847467
7.535,0.2820129681603682,114.22274096962201,0,60,3.0,6,0.8640644934028708
7.54,0.30258482867153996,116.8966991332729,0,60,3.0,6,0.9269811560770095
7.545,0.3220990771751686,118.82342375535035,0,60,3.0,6,0.972315853067067
7.55,0.3401700499968971,119.88026396726374,0,60,3.0,6,0.9971826815826763
7.555,0.3564239911198326,120.0,0,60,3.0,6,1.0
7.56,0.3705118017738417,119.1783433081767,0,60,3.0,6,0.9806669013688634
7.565,0.3821214567925213,117.47450566886323,0,60,3.0,6,0.9405766039732525
7.57,0.39098947374066967,115.00474839088832,0,60,3.0,6,0.8824646680209017
7.575,0.3969108472035567,111.92990155349591,0,60,3.0,6,0.810115330670492
7.58,0.3997469255491936,108.43872783044789,0,60,3.0,6,0.7279700665987738
7.585,0.3994308076379137,104.7295305019311,0,60,3.0,6,0.6406948353395552
7.59,0.3959699661768434,100.99248893952765,0,60,3.0,6,0.5527644456359446
7.595,0.38944595408114946,97.39486371458231,0,60,3.0,6,0.4681144403431133
7.6,0.38001120995358023,94.07055139237116,0,60,3.0,6,0.3898953268793214
7.605,0.3678831374098315,91.1146454134743,0,60,3.0,6,0.3203445979641013
7.61,0.35333577933796634,88.5828469468639,0,60,3.0,6,0.260772869337974
7.615,0.33668953221163944,86.49491404388809,0,60,3.0,6,0.21164503632677853
7.62,0.3182994390982644,84.84092970825792,0,60,3.0,6,0.17272775784136277
7.625,0.29854265738230645,83.58903512890866,0,60,3.0,6,0.14327141479785088
7.63,0.2778057157821067,82.69338027079178,0,60,3.0,6,0.12219718284215948
7.635,0.2564721553719815,82.10131785759242,0,60,3.0,6,0.10826630253158635
7.64,0.23491109433464996,81.75922079911874,0,60,3.0,6,0.10021695997926439
7.645,0.21346717185309805,81.61665631936843,0,60,3.0,6,0.09686250163219838
7.65,0.19245222055656455,81.62894315447333,0,60,3.0,6,0.09715160363466667
7.655,0.17213889801761392,81.75831982609262,0,60,3.0,6,0.10019576061394392
7.66,0.15275638501270183,81.9740569196691,0,60,3.0,6,0.10527192752162577
7.665,0.13448814019607322,82.25186848048502,0,60,3.0,6,0.11180867012905918
7.67,0.11747159495449566,82.57294133248891,0,60,3.0,6,0.11936332547032728
7.675,0.10179958433370105,82.92283264526998,0,60,3.0,6,0.12759606224164652
7.68,0.08752324394101413,83.29040798078412,0,60,3.0,6,0.1362448936655088
7.685,0.07465606047174059,83.66692017809487,0,60,3.0,6,0.1451040041904675
7.69,0.0631787448609295,84.04527242910562,0,60,3.0,6,0.1540064100966029
7.695,0.05304460019959574,84.41946941505594,0,60,3.0,6,0.16281104506013983
7.7,0.044185078305849994,84.78423701164296,0,60,3.0,6,0.17139381203865783
7.705,0.03651525513023255,85.13478033273678,0,60,3.0,6,0.1796418901820419
7.71,0.0299390014708757,85.466647720412,0,60,3.0,6,0.18745053459792937
7.715,0.024353677220580638,85.77567108148466,0,60,3.0,6,0.19472167250552141
7.72,0.01965423034339045,86.05795797916235,0,60,3.0,6,0.20136371715676124
7.725,0.015736632374757337,86.30991632969506,0,60,3.0,6,0.20729214893400133
7.73,0.012500627640593535,86.52829745546912,0,60,3.0,6,0.2124305283639792
7.735,0.009851811652115898,86.71024721641409,0,60,3.0,6,0.21671169920974329
7.74,0.007703084175428559,86.85335794517667,0,60,3.0,6,0.22007901047474515
7.745,0.005975544002062424,86.95571609025774,0,60,3.0,6,0.22248743741782911
7.75,0.004598905818663047,87.0159420257872,0,60,3.0,6,0.2239045182538164
7.755,0.0035115256454839104,87.03321960866413,0,60,3.0,6,0.2243110496156265
7.76,0.002660121266303676,87.0073139066997,0,60,3.0,6,0.2237015036870516
7.765,0.0019992692560877024,86.938576193165,0,60,3.0,6,0.22208414572152954
7.77,0.0014907520044639367,86.82793587151944,0,60,3.0,6,0.2194808440357516
7.775,0.0011028178277539807,86.67687949596854,0,60,3.0,6,0.21592657637573023
7.78,0.0008094059938923333,86.4874175045347,0,60,3.0,6,0.21146864716552247
7.785,0.0005893771793717645,86.26203968403271,0,60,3.0,6,0.20616563962429918
7.79,0.0004257792353490551,86.00366073614138,0,60,3.0,6,0.20008613496803257
7.795,0.0003051686392901525,85.71555760321358,0,60,3.0,6,0.19330723772267253
7.8,0.00021699992642659966,85.40130043404575,0,60,3.0,6,0.1859129513893118
7.805,0.00015308884054097838,85.06467921767266,0,60,3.0,6,0.17799245218053322
7.81,0.00010714989329311098,84.70962818415443,0,60,3.0,6,0.16963831021539824
7.815,7.440535854020571e-05,84.34015006520161,0,60,3.0,6,0.16094470741650854
7.82,5.1260276743925106e-05,83.9602422274949,0,60,3.0,6,0.1520056994704683
7.825,3.503659887882241e-05,83.57382654391216,0,60,3.0,6,0.14291356573910968
7.83,2.375894748103639e-05,83.18468466146989,0,60,3.0,6,0.13375728615223265
7.835,1.5984413869232557e-05,82.79640007066425,0,60,3.0,6,0.12462117813327642
7.84,1.0669166579899869e-05,82.41230809162077,0,60,3.0,6,0.11558371980284171
7.845,7.06526633560511e-06,82.03545458144112,0,60,3.0,6,0.10671657838684977
7.85,4.641847214699205e-06,81.66856384791926,0,60,3.0,6,0.09808385524515903
7.855,3.025641074479182e-06,81.31401594043791,0,60,3.0,6,0.08974155153971558
7.86,1.9566278676921314e-06,80.97383319129152,0,60,3.0,6,0.08173725155980044
7.865,1.2553456560008793e-06,80.64967561027302,0,60,3.0,6,0.07411001435936522
7.87,7.990660428214668e-07,80.34284450049499,0,60,3.0,6,0.06689045883517625
7.875,5.046221251618276e-07,80.0542934702713,0,60,3.0,6,0.06010102282991304
7.88,3.1616527078858815e-07,79.78464586832229,0,60,3.0,6,0.05375637337228909
7.885,1.9652884407760343e-07,79.53421756914149,0,60,3.0,6,0.04786394280332916
7.89,1.2120002189836396e-07,79.30304398146892,0,60,3.0,6,0.04242456426985688
7.895,7.415549848886236e-08,79.09091014291228,0,60,3.0,6,0.03743317983323008
7.9,4.501406988770349e-08,78.89738279368821,0,60,3.0,6,0.032879595145604915
7.905,0.0,78.72184338679693,0,60,3.0,6,0.028749256159927856
7.91,0.0,78.56352108441183,0,60,3.0,6,0.025024025515572517
7.915,0.0,78.42152490408645,0,60,3.0,6,0.021682938919681257
7.92,0.0,78.29487430668186,0,60,3.0,6,0.01870292486310264
7.925,0.0,78.18252765403497,0,60,3.0,6,0.016059474212587542
7.93,0.0,78.08340810217774,0,60,3.0,6,0.013727249463005698
7.935,0.0,77.99642662994414,0,60,3.0,6,0.01168062658692092
7.94,0.0,77.92050202852263,0,60,3.0,6,0.009894165377003153
7.945,0.0,77.85457779134715,0,60,3.0,6,0.008343006855227151
7.95,0.0,77.79763594309105,0,60,3.0,6,0.00700319866096593
7.955,0.0,77.7487079298358,0,60,3.0,6,0.0058519512902541785
7.96,0.0,77.70688275903142,0,60,3.0,6,0.004867829624268605
7.965,0.0,77.67131262775425,0,60,3.0,6,0.004030885358923463
7.97,0.0,77.64121631177731,0,60,3.0,6,0.0033227367477014894
7.975,0.0,77.61588060740796,0,60,3.0,6,0.0027266025272461
7.98,0.0,77.59466012461155,0,60,3.0,6,0.0022272970496835433
7.985,0.0,77.57697572556901,0,60,3.0,6,0.0018111935428003242
7.99,0.0,77.56231188956468,0,60,3.0,6,0.0014661621074042962
7.995,0.0,77.5502132650315,0,60,3.0,6,0.0011814885889765158
8.0,0.0,77.54028064465962,0,60,3.0,6,0.0009477798743439374
8.005,0.0,77.53216657151289,0,60,3.0,6,0.0007568605061856167
8.01,0.0,77.52557075468849,0,60,3.0,6,0.0006016648161997129
8.015,0.0,77.52023544355008,0,60,3.0,6,0.0004761280835312471
8.02,0.0,77.5159408810574,0,60,3.0,6,0.0003750795542918481
8.025,0.0,77.51250093004288,0,60,3.0,6,0.0002941395304206066
8.03,0.0,77.50975894204335,0,60,3.0,6,0.00022962216572583363
8.035,0.0,77.50758391686,0,60,3.0,6,0.000178445102588231
8.04,0.0,77.505866982575,0,60,3.0,6,0.00013804664882353362
8.045,0.0,77.50451821032726,0,60,3.0,6,0.00010631083122970107
8.05,0.0,77.50346376564148,0,60,3.0,6,8.150036803492773e-05
8.055,0.0,77.50264338831892,0,60,3.0,6,6.219737220977978e-05
8.06,0.0,77.50200818557703,0,60,3.0,6,4.72514253417825e-05
8.065,0.0,77.50151871796827,0,60,3.0,6,3.5734540429811044e-05
8.07,0.0,77.5011433542997,0,60,3.0,6,2.6902454110581055e-05
8.075,0.0,77.50085686999996,0,60,3.0,6,2.01616470579826e-05
8.08,0.0,77.50063926283588,0,60,3.0,6,1.5041478491184535e-05
8.085,0.0,77.50047476029029,0,60,3.0,6,1.1170830359721068e-05
8.09,0.0,77.50035099402773,0,60,3.0,6,8.258683005338111e-06
8.095,0.0,77.5002583184806,0,60,3.0,6,6.078081896569475e-06
8.1,0.0,77.5001892525059,0,60,3.0,6,4.453000138937569e-06
8.105,0.0,77.50013802514448,0,60,3.0,6,3.2476504583535324e-06
8.11,0.0,77.50010020864568,0,60,3.0,6,2.3578504865059477e-06
8.115,0.0,77.50007242401301,0,60,3.0,6,1.704094423824726e-06
8.12,0.0,77.50005210631836,0,60,3.0,6,1.2260310203306718e-06
8.125,0.0,77.50003731888009,0,60,3.0,6,8.780912962185325e-07
8.13,0.0,77.50002660708068,0,60,3.0,6,6.260489572816689e-07
8.135,0.0,77.5000188840987,0,60,3.0,6,4.443317339684975e-07
8.14,0.0,77.50001334214654,0,60,3.0,6,3.1393285988034384e-07
8.145,0.0,77.50000938394734,0,60,3.0,6,2.2079876102639794e-07
8.15,0.0,77.50000657015823,0,60,3.0,6,1.5459195845537846e-07
8.155,0.0,77.50000457927268,0,60,3.0,6,1.0774759255796466e-07
8.16,0.001684486749771458,77.50000317722223,0,60,3.0,6,7.475817001785104e-08
8.165,0.003097557930867117,77.50000219446719,0,60,3.0,6,5.163452201754005e-08
8.17,0.005475106668887023,77.5000015088324,0,60,3.0,6,3.5501938769170115e-08
8.175,0.00930222931468658,77.50000103272174,0,60,3.0,6,2.4299335082640242e-08
8.18,0.01519157517868857,77.50000070364895,0,60,3.0,6,1.6556445897924062e-08
8.185,0.023847336626128316,77.50000047726456,0,60,3.0,6,1.1229754443989162e-08
8.19,0.0359830743700859,77.50000032224986,0,60,3.0,6,7.58234966055812e-09
8.195,0.05218887796857759,77.50000021659912,0,60,3.0,6,5.0964498608236145e-09
8.2,0.0727577001223134,77.50000014492758,0,60,3.0,6,3.410060772319626e-09
8.205,0.0974992498694751,77.50000009653301,0,60,3.0,6,2.2713650463736165e-09
8.21,0.12558706050443358,77.50000006400752,0,60,3.0,6,1.5060593608830138e-09
8.215,0.15549263588878245,77.50000004224901,0,60,3.0,6,9.940944276904167e-10
8.22,0.1850529723539114,77.50000002776085,0,60,3.0,6,6.531964198289001e-10
8.225,0.21169159439317053,77.50000001815846,0,60,3.0,6,4.2725787352537734e-10
8.23,0.23277292922115492,77.50000001182377,0,60,3.0,6,2.782064043190878e-10
8.235,0.24602692519491282,77.50000000766414,0,60,3.0,6,1.8033273697844433e-10
8.24,0.24995056064839283,77.50000000494539,0,60,3.0,6,1.1636215651164735e-10
8.245,0.24408826520424054,77.50000000317665,0,60,3.0,6,7.474474895228495e-11
8.25,0.22911894216865275,77.50000000203127,0,60,3.0,6,4.779461532427162e-11
8.255,0.20672661788705934,77.50000000129299,0,60,3.0,6,3.0423266520408696e-11
8.26,0.17928878030241233,77.50000000081933,0,60,3.0,6,1.9278278320116976e-11
8.265,0.14946211903866036,77.50000000051682,0,60,3.0,6,1.2160479159587447e-11
8.27,0.1197651512573837,77.50000000032453,0,60,3.0,6,7.636077391319251e-12
8.275,0.09224675744988023,77.50000000020287,0,60,3.0,6,4.773509692099383e-12
8.28,0.06829565320281596,77.50000000012624,0,60,3.0,6,2.97023582200328e-12
8.285,0.04860224607515734,77.5000000000782,0,60,3.0,6,1.8400549058295675e-12
8.29,0.03324612389699793,77.50000000004822,0,60,3.0,6,1.1345277658513034e-12
8.295,0.021859876340472782,77.5000000000296,0,60,3.0,6,6.964990675709594e-13
8.3,0.01381595518554205,77.50000000001809,0,60,3.0,6,4.256568953518153e-13
8.305,0.008394095110402422,77.500000000011,0,60,3.0,6,2.5880474234273766e-13
8.31,0.0049052535271608,77.50000000000666,0,60,3.0,6,1.5682096144540564e-13
8.315,0.0027671663551903634,77.50000000000402,0,60,3.0,6,9.462757375063923e-14
8.32,0.0015425553464444616,77.50000000000242,0,60,3.0,6,5.684341886080802e-14
8.325,0.0009638206637011801,77.50000000000144,0,60,3.0,6,3.377167826436241e-14
8.33,0.0009804935156568228,77.50000000000085,0,60,3.0,6,2.0062383127344007e-14
8.335,0.0018793744894085216,77.50000000000051,0,60,3.0,6,1.2037429876406403e-14
8.34,0.004535525206900863,77.5000000000003,0,60,3.0,6,7.021834094570402e-15
8.345,0.010832767979632273,77.50000000000017,0,60,3.0,6,4.012476625468801e-15
8.35,0.024208003392322392,77.5000000000001,0,60,3.0,6,2.3406113648568006e-15
8.355,0.0500971897335304,77.50000000000006,0,60,3.0,6,1.3374922084896003e-15
8.36,0.09582894921774403,77.50000000000003,0,60,3.0,6,6.687461042448002e-16
8.365,0.16937896721820658,77.50000000000001,0,60,3.0,6,3.343730521224001e-16
8.37,0.27661303008991756,77.50000000000001,0,60,3.0,6,3.343730521224001e-16
8.375,0.4173782800009149,77.5,0,60,3.0,6,0.0
8.38,0.5818720934538056,77.5,0,60,3.0,6,0.0
8.385,0.7494718801585675,77.5,0,60,3.0,6,0.0
8.39,0.891813020752378,77.5,0,60,3.0,6,0.0
8.395,0.9800361632936612,77.5,0,60,3.0,6,0.0
8.4,0.993574479225126,77.50000249379623,1,60,3.0,6,5.8677558372972485e-08
8.405,0.9263438449375362,77.5000037873591,0,60,3.0,6,8.911433189282167e-08
8.41,0.7873015962290536,77.50000586643203,0,60,3.0,6,1.3803369490554305e-07
8.415,0.5959516244629897,77.50000936112565,0,60,3.0,6,2.202617799733108e-07
8.42,0.376910120078773,77.50001553885947,0,60,3.0,6,3.656202228713108e-07
8.425,0.15739335672107918,77.5000269987902,0,60,3.0,6,6.352656518682873e-07
8.43,-0.033361226269301235,77.50004909538588,0,60,3.0,6,1.1551855500195362e-06
8.435,-0.1680180840843834,77.5000927881157,0,60,3.0,7,2.1832497810357704e-06
8.44,-0.23069703190837854,77.50018019691618,0,60,3.0,7,4.239927439437665e-06
8.445,-0.22587267821131068,77.50035512985896,0,60,3.0,7,8.355996681409712e-06
8.45,-0.17718181630665902,77.50070244716376,0,60,3.0,7,1.652816855907451e-05
8.455,-0.11494332516451301,77.50138258743117,0,60,3.0,7,3.253146896862049e-05
8.46,-0.061810214049552864,77.50269116678194,0,60,3.0,7,6.332157133984391e-05
8.465,-0.026546104631500547,77.50515844333034,0,60,3.0,7,0.00012137513718458007
8.47,-0.00719600351942686,77.50970954477438,0,60,3.0,7,0.00022845987704426187
8.475,0.0022072757983807078,77.5179131238936,0,60,3.0,7,0.00042148526808486006
8.48,0.006917199873730717,77.5323521823347,0,60,3.0,7,0.0007612278196401188
8.485,0.01004859748264829,77.55715374596484,0,60,3.0,7,0.0013447940227021102
8.49,0.013037082251128167,77.59871019466716,0,60,3.0,7,0.0023225928156979507
8.495,0.01645163937690478,77.66660957566988,0,60,3.0,7,0.00392022530987955
8.5,0.020526639934696615,77.77476004056273,0,60,3.0,7,0.006464942130887654
8.505,0.02539629541761738,77.94264063456316,0,60,3.0,7,0.01041507375442734
8.51,0.031171612185577933,78.1965363540429,0,60,3.0,7,0.016389090683362476
8.515,0.03795853426638131,78.57052498893353,0,60,3.0,7,0.025188823269024184
8.52,0.0458588961882057,79.10689048440082,0,60,3.0,7,0.03780918786825463
8.525,0.054966995891435555,79.85556550877875,0,60,3.0,7,0.05542507079479418
8.53,0.06536491004445595,80.87218550073672,0,60,3.0,7,0.07934554119380517
8.535,0.07711726085088699,82.21440106636989,0,60,3.0,7,0.1109270839145856
8.54,0.09026570629555215,83.93627195484723,0,60,3.0,7,0.1514416930552289
8.545,0.10482339848670268,86.08086244957394,0,60,3.0,7,0.20190264587232806
8.55,0.12076968927580028,88.67155390032357,0,60,3.0,7,0.2628600917723194
8.555,0.13804539501007884,91.70302829420208,0,60,3.0,7,0.33418890104004906
8.56,0.15654895051787066,95.13326660856461,0,60,3.0,7,0.41490039078975555
8.565,0.17613378141900526,98.87813714204108,0,60,3.0,7,0.5030149915774372
8.57,0.19660720058055794,102.81011793964564,0,60,3.0,7,0.5955321868151915
8.575,0.21773108748496234,106.76233734752944,0,60,3.0,7,0.6885255846477515
8.58,0.23922453870058807,110.53842825599659,0,60,3.0,7,0.7773747824940375
8.585,0.2607685857914563,113.92775900036906,0,60,3.0,7,0.8571237411851544
8.59,0.2820129681603682,116.72459033287774,0,60,3.0,7,0.9229315372441821
8.595,0.30258482867153996,118.74882595036786,0,60,3.0,7,0.9705606105968908
8.6,0.3220990771751686,119.8654865137496,0,60,3.0,7,0.9968349767941083
8.605,0.3401700499968971,120.0,0,60,3.0,7,1.0
8.61,0.3564239911198326,119.1469163744074,0,60,3.0,7,0.9799274441037035
8.615,0.3705118017738417,117.37064685570721,0,60,3.0,7,0.9381328671931107
8.62,0.3821214567925213,114.79810695801649,0,60,3.0,7,0.8776025166592115
8.625,0.39098947374066967,111.60444632346429,0,60,3.0,7,0.8024575605521009
8.63,0.3969108472035567,107.99410915756765,0,60,3.0,7,0.7175084507662977
8.635,0.3997469255491936,104.18007944020901,0,60,3.0,7,0.6277665750637414
8.64,0.3994308076379137,100.36422724801442,0,60,3.0,7,0.5379818176003391
8.645,0.3959699661768434,96.7212161790668,0,60,3.0,7,0.45226391009568945
8.65,0.38944595408114946,93.38759728931282,0,60,3.0,7,0.3738258185720664
8.655,0.38001120995358023,90.45670883537264,0,60,3.0,7,0.3048637373028856
8.66,0.3678831374098315,87.9790401462504,0,60,3.0,7,0.24656565050000936
8.665,0.35333577933796634,85.96697701419116,0,60,3.0,7,0.19922298856920373
8.67,0.33668953221163944,84.4024246438112,0,60,3.0,7,0.1624099916190871
8.675,0.3182994390982644,83.24571739115189,0,60,3.0,7,0.13519335038004435
8.68,0.29854265738230645,82.44441592118244,0,60,3.0,7,0.11633919814546917
8.685,0.2778057157821067,81.94096223704659,0,60,3.0,7,0.10449322910697861
8.69,0.2564721553719815,81.67860013199362,0,60,3.0,7,0.09832000310573222
8.695,0.23491109433464996,81.6053774632043,0,60,3.0,7,0.09659711678127779
8.7,0.21346717185309805,81.67636369433883,0,60,3.0,7,0.09826738104326664
8.705,0.19245222055656455,81.85441421730658,0,60,3.0,7,0.10245680511309609
8.71,0.17213889801761392,82.10989597948169,0,60,3.0,7,0.10846814069368688
8.715,0.15275638501270183,82.4197812649522,0,60,3.0,7,0.11575955917534603
8.72,0.13448814019607322,82.76645106571821,0,60,3.0,7,0.123916495663958
8.725,0.11747159495449566,83.13645818712642,0,60,3.0,7,0.13262254557944522
8.73,0.10179958433370105,83.51940780368162,0,60,3.0,7,0.1416331247925086
8.735,0.08752324394101413,83.90703501007195,0,60,3.0,7,0.15075376494286943
8.74,0.07465606047174059,84.29250168132002,0,60,3.0,7,0.15982356897223574
8.745,0.0631787448609295,84.66989887994485,0,60,3.0,7,0.16870350305752596
8.75,0.05304460019959574,85.03392255252196,0,60,3.0,7,0.1772687659416931
8.755,0.044185078305849994,85.37968430795249,0,60,3.0,7,0.1854043366577056
8.76,0.03651525513023255,85.70262077560254,0,60,3.0,7,0.1930028417788833
8.765,0.0299390014708757,85.99847050884269,0,60,3.0,7,0.19996401197276908
8.77,0.024353677220580638,86.26329398177421,0,60,3.0,7,0.2061951525123344
8.775,0.01965423034339045,86.49351840681324,0,60,3.0,7,0.21161219780737028
8.78,0.015736632374757337,86.68599420541278,0,60,3.0,7,0.2161410401273596
8.785,0.012500627640593535,86.83805385632725,0,60,3.0,7,0.2197189142665235
8.79,0.009851811652115898,86.94756666863884,0,60,3.0,7,0.22229568632091393
8.795,0.007703084175428559,87.01298502755421,0,60,3.0,7,0.2238349418248049
8.8,0.005975544002062424,87.03337908862481,0,60,3.0,7,0.2243148020852897
8.805,0.004598905818663047,87.0084579536151,0,60,3.0,7,0.2237284224380025
8.81,0.0035115256454839104,86.938576193165,0,60,3.0,7,0.22208414572152954
8.815,0.002660121266303676,86.82472527864306,0,60,3.0,7,0.2194053006739543
8.82,0.0019992692560877024,86.66851009780702,0,60,3.0,7,0.21572964936016506
8.825,0.0014907520044639367,86.47211127728372,0,60,3.0,7,0.2111085006419698
8.83,0.0011028178277539807,86.23823452311164,0,60,3.0,7,0.2056055181908622
8.835,0.0008094059938923333,85.97004861293706,0,60,3.0,7,0.19929526148087207
8.84,0.0005893771793717645,85.67111402048207,0,60,3.0,7,0.19226150636428388
8.845,0.0004257792353490551,85.34530441514248,0,60,3.0,7,0.18459539800335245
8.85,0.0003051686392901525,84.99672344980459,0,60,3.0,7,0.1763934929365786
8.855,0.00021699992642659966,84.62961932448681,0,60,3.0,7,0.16775574881145436
8.86,0.00015308884054097838,84.248299592624,0,60,3.0,7,0.15878351982644692
8.865,0.00010714989329311098,83.85704856531288,0,60,3.0,7,0.14957761330147953
8.87,7.440535854020571e-05,83.4600494751478,0,60,3.0,7,0.14023645823877173
8.875,5.1260276743925106e-05,83.06131329728954,0,60,3.0,7,0.13085443052445986
