Time,ECG,Pressure,R_Peaks,mean_hr,hrv_scale,Phase_Bin,Normalized_Pressure
0.0,0.001684486749771458,77.5,0,60,3.0,0,0.0
0.005,0.003097557930867117,77.5,0,60,3.0,0,0.0
0.01,0.005475106668887023,77.5,0,60,3.0,0,0.0
0.015,0.00930222931468658,77.5,0,60,3.0,0,0.0
0.02,0.01519157517868857,77.5,0,60,3.0,0,0.0
0.025,0.023847336626128316,77.5,0,60,3.0,0,0.0
0.03,0.0359830743700859,77.5,0,60,3.0,0,0.0
0.035,0.05218887796857759,77.5,0,60,3.0,0,0.0
0.04,0.0727577001223134,77.5,0,60,3.0,0,0.0
0.045,0.0974992498694751,77.5,0,60,3.0,0,0.0
0.05,0.12558706050443358,77.5,0,60,3.0,0,0.0
0.055,0.15549263588878245,77.5,0,60,3.0,0,0.0
0.06,0.1850529723539114,77.5,0,60,3.0,0,0.0
0.065,0.21169159439317053,77.5,0,60,3.0,0,0.0
0.07,0.23277292922115492,77.5,0,60,3.0,0,0.0
0.075,0.24602692519491282,77.5,0,60,3.0,0,0.0
0.08,0.24995056064839283,77.5,0,60,3.0,0,0.0
0.085,0.24408826520424054,77.5,0,60,3.0,0,0.0
0.09,0.22911894216865275,77.5,0,60,3.0,0,0.0
0.095,0.20672661788705934,77.5,0,60,3.0,0,0.0
0.1,0.17928878030241233,77.5,0,60,3.0,0,0.0
0.105,0.14946211903866036,77.5,0,60,3.0,0,0.0
0.11,0.1197651512573837,77.5,0,60,3.0,0,0.0
0.115,0.09224675744988023,77.5,0,60,3.0,0,0.0
0.12,0.06829565320281596,77.5,0,60,3.0,0,0.0
0.125,0.04860224607515734,77.5,0,60,3.0,0,0.0
0.13,0.03324612389699793,77.5,0,60,3.0,0,0.0
0.135,0.021859876340472782,77.5,0,60,3.0,0,0.0
0.14,0.01381595518554205,77.5,0,60,3.0,0,0.0
0.145,0.008394095110402422,77.5,0,60,3.0,0,0.0
0.15,0.0049052535271608,77.5,0,60,3.0,0,0.0
0.155,0.0027671663551903634,77.5,0,60,3.0,0,0.0
0.16,0.0015425553464444616,77.5,0,60,3.0,0,0.0
0.165,0.0009638206637011801,77.5,0,60,3.0,0,0.0
0.17,0.0009804935156568228,77.5,0,60,3.0,0,0.0
0.175,0.0018793744894085216,77.5,0,60,3.0,0,0.0
0.18,0.004535525206900863,77.5,0,60,3.0,0,0.0
0.185,0.010832767979632273,77.5,0,60,3.0,0,0.0
0.19,0.024208003392322392,77.5,0,60,3.0,0,0.0
0.195,0.0500971897335304,77.5,0,60,3.0,0,0.0
0.2,0.09582894921774403,77.5,0,60,3.0,0,0.0
0.205,0.16937896721820658,77.5,0,60,3.0,0,0.0
0.21,0.27661303008991756,77.5,0,60,3.0,0,0.0
0.215,0.4173782800009149,77.5,0,60,3.0,0,0.0
0.22,0.5818720934538056,77.5,0,60,3.0,0,0.0
0.225,0.7494718801585675,77.5,0,60,3.0,0,0.0
0.23,0.891813020752378,77.5,0,60,3.0,0,0.0
0.235,0.9800361632936612,77.5,0,60,3.0,0,0.0
0.24,0.993574479225126,77.5,0,60,3.0,0,0.0
0.245,0.9263438449375362,77.5,0,60,3.0,0,0.0
0.25,0.7873015962290536,77.5,0,60,3.0,0,0.0
0.255,0.5959516244629897,77.5,0,60,3.0,0,0.0
0.26,0.376910120078773,77.5,0,60,3.0,0,0.0
0.265,0.15739335672107918,77.5,0,60,3.0,0,0.0
0.27,-0.033361226269301235,77.5,0,60,3.0,0,0.0
0.275,-0.1680180840843834,77.5,0,60,3.0,0,0.0
0.28,-0.23069703190837854,77.5,0,60,3.0,0,0.0
0.285,-0.22587267821131068,77.5,0,60,3.0,0,0.0
0.29,-0.17718181630665902,77.5,0,60,3.0,0,0.0
0.295,-0.11494332516451301,77.5,0,60,3.0,0,0.0
0.3,-0.061810214049552864,77.5,0,60,3.0,0,0.0
0.305,-0.026546104631500547,77.5,0,60,3.0,0,0.0
0.31,-0.00719600351942686,77.5,0,60,3.0,0,0.0
0.315,0.0022072757983807078,77.5,0,60,3.0,0,0.0
0.32,0.006917199873730717,77.5,0,60,3.0,0,0.0
0.325,0.01004859748264829,77.5,0,60,3.0,0,0.0
0.33,0.013037082251128167,77.5,0,60,3.0,0,0.0
0.335,0.01645163937690478,77.5,0,60,3.0,0,0.0
0.34,0.020526639934696615,77.5,0,60,3.0,0,0.0
0.345,0.02539629541761738,77.5,0,60,3.0,0,0.0
0.35,0.031171612185577933,77.5,0,60,3.0,0,0.0
0.355,0.03795853426638131,77.5,0,60,3.0,0,0.0
0.36,0.0458588961882057,77.5,0,60,3.0,0,0.0
0.365,0.054966995891435555,77.5,0,60,3.0,0,0.0
0.37,0.06536491004445595,77.5,0,60,3.0,0,0.0
0.375,0.07711726085088699,77.5,0,60,3.0,0,0.0
0.38,0.09026570629555215,77.5,0,60,3.0,0,0.0
0.385,0.10482339848670268,77.5,0,60,3.0,0,0.0
0.39,0.12076968927580028,77.5,0,60,3.0,0,0.0
0.395,0.13804539501007884,77.5,0,60,3.0,0,0.0
0.4,0.15654895051787066,77.5,0,60,3.0,0,0.0
0.405,0.17613378141900526,77.5,0,60,3.0,0,0.0
0.41,0.19660720058055794,77.5,0,60,3.0,0,0.0
0.415,0.21773108748496234,77.5,0,60,3.0,0,0.0
0.42,0.23922453870058807,77.5,0,60,3.0,0,0.0
0.425,0.2607685857914563,77.5,0,60,3.0,0,0.0
0.43,0.2820129681603682,77.5,0,60,3.0,0,0.0
0.435,0.30258482867153996,77.5,0,60,3.0,0,0.0
0.44,0.3220990771751686,77.5,0,60,3.0,0,0.0
0.445,0.3401700499968971,77.5,0,60,3.0,0,0.0
0.45,0.3564239911198326,77.5,0,60,3.0,0,0.0
0.455,0.3705118017738417,77.5,0,60,3.0,0,0.0
0.46,0.3821214567925213,77.5,0,60,3.0,0,0.0
0.465,0.39098947374066967,77.5,0,60,3.0,0,0.0
0.47,0.3969108472035567,77.5,0,60,3.0,0,0.0
0.475,0.3997469255491936,77.5,0,60,3.0,0,0.0
0.48,0.3994308076379137,77.5,0,60,3.0,0,0.0
0.485,0.3959699661768434,77.5,0,60,3.0,0,0.0
0.49,0.38944595408114946,77.5,0,60,3.0,0,0.0
0.495,0.38001120995358023,77.5,0,60,3.0,0,0.0
0.5,0.3678831374098315,77.5,0,60,3.0,0,0.0
0.505,0.35333577933796634,77.5,0,60,3.0,0,0.0
0.51,0.33668953221163944,77.5,0,60,3.0,0,0.0
0.515,0.3182994390982644,77.5,0,60,3.0,0,0.0
0.52,0.29854265738230645,77.5,0,60,3.0,0,0.0
0.525,0.2778057157821067,77.5,0,60,3.0,0,0.0
0.53,0.2564721553719815,77.5,0,60,3.0,0,0.0
0.535,0.23491109433464996,77.5,0,60,3.0,0,0.0
0.54,0.21346717185309805,77.5,0,60,3.0,0,0.0
0.545,0.19245222055656455,77.5,0,60,3.0,0,0.0
0.55,0.17213889801761392,77.5,0,60,3.0,0,0.0
0.555,0.15275638501270183,77.5,0,60,3.0,0,0.0
0.56,0.13448814019607322,77.5,0,60,3.0,0,0.0
0.565,0.11747159495449566,77.5,0,60,3.0,0,0.0
0.57,0.10179958433370105,77.5,0,60,3.0,0,0.0
0.575,0.08752324394101413,77.5,0,60,3.0,0,0.0
0.58,0.07465606047174059,77.5,0,60,3.0,0,0.0
0.585,0.0631787448609295,77.5,0,60,3.0,0,0.0
0.59,0.05304460019959574,77.5,0,60,3.0,0,0.0
0.595,0.044185078305849994,77.5,0,60,3.0,0,0.0
0.6,0.03651525513023255,77.5,0,60,3.0,0,0.0
0.605,0.0299390014708757,77.5,0,60,3.0,0,0.0
0.61,0.024353677220580638,77.5,0,60,3.0,0,0.0
0.615,0.01965423034339045,77.5,0,60,3.0,0,0.0
0.62,0.015736632374757337,77.5,0,60,3.0,0,0.0
0.625,0.012500627640593535,77.5,0,60,3.0,0,0.0
0.63,0.009851811652115898,77.5,0,60,3.0,0,0.0
0.635,0.007703084175428559,77.5,0,60,3.0,0,0.0
0.64,0.005975544002062424,77.5,0,60,3.0,0,0.0
0.645,0.004598905818663047,77.5,0,60,3.0,0,0.0
0.65,0.0035115256454839104,77.5,0,60,3.0,0,0.0
0.655,0.002660121266303676,77.5,0,60,3.0,0,0.0
0.66,0.0019992692560877024,77.5,0,60,3.0,0,0.0
0.665,0.0014907520044639367,77.5,0,60,3.0,0,0.0
0.67,0.0011028178277539807,77.5,0,60,3.0,0,0.0
0.675,0.0008094059938923333,77.5,0,60,3.0,0,0.0
0.68,0.0005893771793717645,77.5,0,60,3.0,0,0.0
0.685,0.0004257792353490551,77.5,0,60,3.0,0,0.0
0.69,0.0003051686392901525,77.5,0,60,3.0,0,0.0
0.695,0.00021699992642659966,77.5,0,60,3.0,0,0.0
0.7,0.00015308884054097838,77.5,0,60,3.0,0,0.0
0.705,0.00010714989329311098,77.5,0,60,3.0,0,0.0
0.71,7.440535854020571e-05,77.5,0,60,3.0,0,0.0
0.715,5.1260276743925106e-05,77.5,0,60,3.0,0,0.0
0.72,3.503659887882241e-05,77.5,0,60,3.0,0,0.0
0.725,2.375894748103639e-05,77.5,0,60,3.0,0,0.0
0.73,1.5984413869232557e-05,77.5,0,60,3.0,0,0.0
0.735,1.0669166579899869e-05,77.5,0,60,3.0,0,0.0
0.74,7.06526633560511e-06,77.5,0,60,3.0,0,0.0
0.745,4.641847214699205e-06,77.5,0,60,3.0,0,0.0
0.75,3.025641074479182e-06,77.5,0,60,3.0,0,0.0
0.755,1.9566278676921314e-06,77.5,0,60,3.0,0,0.0
0.76,1.2553456560008793e-06,77.5,0,60,3.0,0,0.0
0.765,7.990660428214668e-07,77.5,0,60,3.0,0,0.0
0.77,5.046221251618276e-07,77.5,0,60,3.0,0,0.0
0.775,3.1616527078858815e-07,77.5,0,60,3.0,0,0.0
0.78,1.9652884407760343e-07,77.5,0,60,3.0,0,0.0
0.785,1.2120002189836396e-07,77.5,0,60,3.0,0,0.0
0.79,7.415549848886236e-08,77.5,0,60,3.0,0,0.0
0.795,4.501406988770349e-08,77.5,0,60,3.0,0,0.0
0.8,0.0,77.5,0,60,3.0,0,0.0
0.805,0.0,77.5,0,60,3.0,0,0.0
0.81,0.0,77.5,0,60,3.0,0,0.0
0.815,0.0,77.5,0,60,3.0,0,0.0
0.82,0.0,77.5,0,60,3.0,0,0.0
0.825,0.0,77.5,0,60,3.0,0,0.0
0.83,0.0,77.5,0,60,3.0,0,0.0
0.835,0.0,77.5,0,60,3.0,0,0.0
0.84,0.0,77.5,0,60,3.0,0,0.0
0.845,0.0,77.5,0,60,3.0,0,0.0
0.85,0.0,77.5,0,60,3.0,0,0.0
0.855,0.0,77.5,0,60,3.0,0,0.0
0.86,0.0,77.5,0,60,3.0,0,0.0
0.865,0.0,77.5,0,60,3.0,0,0.0
0.87,0.0,77.5,0,60,3.0,0,0.0
0.875,0.0,77.5,0,60,3.0,0,0.0
0.88,0.0,77.5,0,60,3.0,0,0.0
0.885,0.0,77.5,0,60,3.0,0,0.0
0.89,0.0,77.5,0,60,3.0,0,0.0
0.895,0.001684486749771458,77.5,0,60,3.0,0,0.0
0.9,0.003097557930867117,77.5,0,60,3.0,0,0.0
0.905,0.005475106668887023,77.5,0,60,3.0,0,0.0
0.91,0.00930222931468658,77.5,0,60,3.0,0,0.0
0.915,0.01519157517868857,77.5,0,60,3.0,0,0.0
0.92,0.023847336626128316,77.5,0,60,3.0,0,0.0
0.925,0.0359830743700859,77.5,0,60,3.0,0,0.0
0.93,0.05218887796857759,77.5,0,60,3.0,0,0.0
0.935,0.0727577001223134,77.5,0,60,3.0,0,0.0
0.94,0.0974992498694751,77.5,0,60,3.0,0,0.0
0.945,0.12558706050443358,77.5,0,60,3.0,0,0.0
0.95,0.15549263588878245,77.5,0,60,3.0,0,0.0
0.955,0.1850529723539114,77.5,0,60,3.0,0,0.0
0.96,0.21169159439317053,77.5,0,60,3.0,0,0.0
0.965,0.23277292922115492,77.5,0,60,3.0,0,0.0
0.97,0.24602692519491282,77.5,0,60,3.0,0,0.0
0.975,0.24995056064839283,77.5,0,60,3.0,0,0.0
0.98,0.24408826520424054,77.5,0,60,3.0,0,0.0
0.985,0.22911894216865275,77.5,0,60,3.0,0,0.0
0.99,0.20672661788705934,77.5,0,60,3.0,0,0.0
0.995,0.17928878030241233,77.5,0,60,3.0,0,0.0
1.0,0.14946211903866036,77.5,0,60,3.0,0,0.0
1.005,0.1197651512573837,77.5,0,60,3.0,0,0.0
1.01,0.09224675744988023,77.5,0,60,3.0,0,0.0
1.015,0.06829565320281596,77.5,0,60,3.0,0,0.0
1.02,0.04860224607515734,77.5,0,60,3.0,0,0.0
1.025,0.03324612389699793,77.5,0,60,3.0,0,0.0
1.03,0.021859876340472782,77.5,0,60,3.0,0,0.0
1.035,0.01381595518554205,77.5,0,60,3.0,0,0.0
1.04,0.008394095110402422,77.5,0,60,3.0,0,0.0
1.045,0.0049052535271608,77.5,0,60,3.0,0,0.0
1.05,0.0027671663551903634,77.5,0,60,3.0,0,0.0
1.055,0.0015425553464444616,77.5,0,60,3.0,0,0.0
1.06,0.0009638206637011801,77.5,0,60,3.0,0,0.0
1.065,0.0009804935156568228,77.5,0,60,3.0,0,0.0
1.07,0.0018793744894085216,77.5,0,60,3.0,0,0.0
1.075,0.004535525206900863,77.5,0,60,3.0,0,0.0
1.08,0.010832767979632273,77.5,0,60,3.0,0,0.0
1.085,0.024208003392322392,77.5,0,60,3.0,0,0.0
1.09,0.0500971897335304,77.5,0,60,3.0,0,0.0
1.095,0.09582894921774403,77.5,0,60,3.0,0,0.0
1.1,0.16937896721820658,77.5,0,60,3.0,0,0.0
1.105,0.27661303008991756,77.5,0,60,3.0,0,0.0
1.11,0.4173782800009149,77.5,0,60,3.0,0,0.0
1.115,0.5818720934538056,77.5,0,60,3.0,0,0.0
1.12,0.7494718801585675,77.5,0,60,3.0,0,0.0
1.125,0.891813020752378,77.5,0,60,3.0,0,0.0
1.13,0.9800361632936612,77.5,0,60,3.0,0,0.0
1.135,0.993574479225126,77.50000249121213,1,60,3.0,0,5.861675597717455e-08
1.14,0.9263438449375362,77.50000372341158,0,60,3.0,0,8.76096842549647e-08
1.145,0.7873015962290536,77.50000566573632,0,60,3.0,0,1.3331144293046877e-07
1.15,0.5959516244629897,77.50000885571517,0,60,3.0,0,2.0836976860289938e-07
1.155,0.376910120078773,77.5000143442108,0,60,3.0,0,3.375108422808219e-07
1.16,0.15739335672107918,77.50002422617413,0,60,3.0,0,5.700276266693169e-07
1.165,-0.033361226269301235,77.5000427028138,0,60,3.0,0,1.004772089425601e-06
1.17,-0.1680180840843834,77.50007816180982,0,60,3.0,0,1.8391014076341355e-06
1.175,-0.23069703190837854,77.50014715410653,0,60,3.0,0,3.462449565377563e-06
1.18,-0.22587267821131068,77.50028180178532,0,60,3.0,0,6.630630242826181e-06
1.185,-0.17718181630665902,77.50054322550362,0,60,3.0,0,1.278177655575853e-05
1.19,-0.11494332516451301,77.50104519934338,0,60,3.0,0,2.4592925726598396e-05
1.195,-0.061810214049552864,77.5019946069251,0,60,3.0,0,4.6931927649291755e-05
1.2,-0.026546104631500547,77.5037585332353,0,60,3.0,0,8.84360761246813e-05
1.205,-0.00719600351942686,77.50697200898993,0,60,3.0,1,0.0001640472703513751
1.21,0.0022072757983807078,77.51270529927623,0,60,3.0,1,0.0002989482182643395
1.215,0.006917199873730717,77.52271452958749,0,60,3.0,1,0.0005344595197056258
1.22,0.01004859748264829,77.53980306848347,0,60,3.0,1,0.0009365427878462389
1.225,0.013037082251128167,77.56832134239289,0,60,3.0,1,0.0016075609974798093
1.23,0.01645163937690478,77.61482673961324,0,60,3.0,1,0.0027018056379584806
1.235,0.020526639934696615,77.68890950334405,0,60,3.0,1,0.00444492949044823
1.24,0.02539629541761738,77.80416164410791,0,60,3.0,1,0.007156744567244874
1.245,0.031171612185577933,77.97922176091217,0,60,3.0,1,0.01127580613910983
1.25,0.03795853426638131,78.23876984767003,0,60,3.0,1,0.01738281994517713
1.255,0.0458588961882057,78.61427774417872,0,60,3.0,1,0.026218299863028746
1.26,0.054966995891435555,79.14425377773641,0,60,3.0,1,0.03868832418203316
1.265,0.06536491004445595,79.87367141614877,0,60,3.0,1,0.055851092144676866
1.27,0.07711726085088699,80.85226321841371,0,60,3.0,1,0.07887678160973437
1.275,0.09026570629555215,82.13141577006257,0,60,3.0,1,0.10897448870735468
1.28,0.10482339848670268,83.75953624114675,0,60,3.0,1,0.14728320567404113
1.285,0.12076968927580028,85.77598170873861,0,60,3.0,1,0.194728981382085
1.29,0.13804539501007884,88.20393375867974,0,60,3.0,1,0.2518572649101115
1.295,0.15654895051787066,91.04292460747617,0,60,3.0,1,0.3186570495876745
1.3,0.17613378141900526,94.26201607275954,0,60,3.0,1,0.39440037818257734
1.305,0.19660720058055794,97.79482424498563,0,60,3.0,1,0.47752527635260317
1.31,0.21773108748496234,101.53759738630791,0,60,3.0,1,0.5655905267366567
1.315,0.23922453870058807,105.3513407407053,0,60,3.0,1,0.6553256644871834
1.32,0.2607685857914563,109.06852903363313,0,60,3.0,1,0.7427889184384265
1.325,0.2820129681603682,112.50429888557557,0,60,3.0,1,0.8236305620135427
1.33,0.30258482867153996,115.47126720378189,0,60,3.0,1,0.8934415812654563
1.335,0.3220990771751686,117.7964161312735,0,60,3.0,1,0.9481509677946707
1.34,0.3401700499968971,119.33797080523625,0,60,3.0,1,0.9844228424761471
1.345,0.3564239911198326,120.0,0,60,3.0,1,1.0
1.35,0.3705118017738417,119.7426611812198,0,60,3.0,1,0.9939449689698777
1.355,0.3821214567925213,118.58658020872706,0,60,3.0,1,0.9667430637347543
1.36,0.39098947374066967,116.61070850950588,0,60,3.0,1,0.9202519649295502
1.365,0.3969108472035567,113.9439788386618,0,60,3.0,1,0.8575053844391013
1.37,0.3997469255491936,110.75199740591255,0,60,3.0,1,0.7823999389626481
1.375,0.3994308076379137,107.2206921691615,0,60,3.0,1,0.6993104039802704
1.38,0.3959699661768434,103.53916545558414,0,60,3.0,1,0.6126862460137444
1.385,0.38944595408114946,99.8839337575341,0,60,3.0,1,0.5266807942949199
1.39,0.38001120995358023,96.40632192670691,0,60,3.0,1,0.44485463356957433
1.395,0.3678831374098315,93.22412349368534,0,60,3.0,1,0.369979376322008
1.4,0.35333577933796634,90.41788995743916,0,60,3.0,1,0.3039503519397449
1.405,0.33668953221163944,88.03151588330014,0,60,3.0,1,0.24780037372470928
1.41,0.3182994390982644,86.07625796361283,0,60,3.0,1,0.20179430502618428
1.415,0.29854265738230645,84.5370279224049,0,60,3.0,1,0.1655771275859977
1.42,0.2778057157821067,83.37973857390041,0,60,3.0,1,0.13834678997412733
1.425,0.2564721553719815,82.55862010723355,0,60,3.0,1,0.11902635546431885
1.43,0.23491109433464996,82.02269163308073,0,60,3.0,1,0.10641627371954648
1.435,0.21346717185309805,81.7208947594175,0,60,3.0,1,0.09931517080982363
1.44,0.19245222055656455,81.60570426339612,0,60,3.0,1,0.09660480619755576
1.445,0.17213889801761392,81.63527895285004,0,60,3.0,1,0.09730068124353045
1.45,0.15275638501270183,81.77438082247657,0,60,3.0,1,0.10057366641121349
1.455,0.13448814019607322,81.99437146551553,0,60,3.0,1,0.10574991683565947
1.46,0.11747159495449566,82.27260550161496,0,60,3.0,1,0.1122966000379991
1.465,0.10179958433370105,82.59150327402068,0,60,3.0,1,0.11980007703578073
1.47,0.08752324394101413,82.93752194051363,0,60,3.0,1,0.12794169271796785
1.475,0.07465606047174059,83.30017433941072,0,60,3.0,1,0.1364746903390757
1.48,0.0631787448609295,83.67118175636352,0,60,3.0,1,0.1452042766203182
1.485,0.05304460019959574,84.04379693864932,0,60,3.0,1,0.1539716926741017
1.49,0.044185078305849994,84.41229937549842,0,60,3.0,1,0.16264233824702168
1.495,0.03651525513023255,84.77164460601541,0,60,3.0,1,0.17109752014153914
1.5,0.0299390014708757,85.11724003927537,0,60,3.0,1,0.17922917739471467
1.505,0.024353677220580638,85.44481795636241,0,60,3.0,1,0.18693689309088032
1.51,0.01965423034339045,85.75037887725323,0,60,3.0,1,0.19412656181772298
1.515,0.015736632374757337,86.03018294186066,0,60,3.0,1,0.20071018686730963
1.52,0.012500627640593535,86.28077181906679,0,60,3.0,1,0.2066063957427479
1.525,0.009851811652115898,86.49900806230578,0,60,3.0,1,0.21174136617190062
1.53,0.007703084175428559,86.6821224211215,0,60,3.0,1,0.216049939320506
1.535,0.005975544002062424,86.82776235320729,0,60,3.0,1,0.21947676125193624
1.54,0.004598905818663047,86.93403697818069,0,60,3.0,1,0.22197734066307495
1.545,0.0035115256454839104,86.9995551458528,0,60,3.0,1,0.22351894460830107
1.55,0.002660121266303676,87.02345432694817,0,60,3.0,1,0.2240812782811334
1.555,0.0019992692560877024,87.00541881040031,0,60,3.0,1,0.22365691318588976
1.56,0.0014907520044639367,86.94568630692714,0,60,3.0,1,0.2222514425159328
1.565,0.0011028178277539807,86.84504257667551,0,60,3.0,1,0.21988335474530613
1.57,0.0008094059938923333,86.70480415477111,0,60,3.0,1,0.21658362717108495
1.575,0.0005893771793717645,86.52678965868259,0,60,3.0,1,0.2123950507925315
1.58,0.0004257792353490551,86.31328052916109,0,60,3.0,1,0.20737130656849626
1.585,0.0003051686392901525,86.06697237901106,0,60,3.0,1,0.20157582068261323
1.59,0.00021699992642659966,85.79091839488574,0,60,3.0,1,0.19508043282084084
1.595,0.00015308884054097838,85.48846645000259,0,60,3.0,1,0.1879639164706492
1.6,0.00010714989329311098,85.16319173460023,0,60,3.0,1,0.1803103937552996
1.605,7.440535854020571e-05,84.81882679268512,0,60,3.0,1,0.17220768923964977
1.61,5.1260276743925106e-05,84.45919086732634,0,60,3.0,1,0.16374566746650215
1.615,3.503659887882241e-05,84.08812040440279,0,60,3.0,1,0.1550145977506538
1.62,2.375894748103639e-05,83.70940245092062,0,60,3.0,1,0.14610358708048518
1.625,1.5984413869232557e-05,83.3267125158391,0,60,3.0,1,0.13709911801974364
1.63,1.0669166579899869e-05,82.9435582478008,0,60,3.0,1,0.12808372347766575
1.635,7.06526633560511e-06,82.56323003577715,0,60,3.0,1,0.11913482437122712
1.64,4.641847214699205e-06,82.18875936685065,0,60,3.0,1,0.11032374980825052
1.645,3.025641074479182e-06,81.82288549193832,0,60,3.0,1,0.10171495275148994
1.65,1.9566278676921314e-06,81.46803066676559,0,60,3.0,1,0.09336542745330789
1.655,1.2553456560008793e-06,81.1262839626152,0,60,3.0,1,0.08532432853212246
1.66,7.990660428214668e-07,80.79939338889601,0,60,3.0,1,0.07763278562108253
1.665,5.046221251618276e-07,80.48876584542448,0,60,3.0,1,0.07032390224528191
1.67,3.1616527078858815e-07,80.19547423270582,0,60,3.0,1,0.06342292312248989
1.675,1.9652884407760343e-07,79.9202708976926,0,60,3.0,1,0.056947550533943604
1.68,1.2120002189836396e-07,79.6636064827602,0,60,3.0,1,0.0509083878296518
1.685,7.415549848886236e-08,79.42565317731419,0,60,3.0,1,0.04530948652503974
1.69,4.501406988770349e-08,79.20633134313105,0,60,3.0,1,0.04014897277955423
1.695,0.0,79.0053384932931,0,60,3.0,1,0.03541972925395519
1.7,0.0,78.8221796462389,0,60,3.0,1,0.031110109323268086
1.705,0.0,78.65619814591867,0,60,3.0,1,0.027204662256909776
1.71,0.0,78.50660613063378,0,60,3.0,1,0.02368485013255963
1.715,0.0,78.37251394090141,0,60,3.0,1,0.02052973978591561
1.72,0.0,78.25295787470216,0,60,3.0,1,0.017716655875344982
1.725,0.0,78.1469258211184,0,60,3.0,1,0.015221784026315324
1.73,0.0,78.05338042554777,0,60,3.0,1,0.013020715895241692
1.735,0.0,77.97127955695117,0,60,3.0,1,0.011088930751792332
1.74,0.0,77.89959395632401,0,60,3.0,1,0.009402210737035562
1.745,0.0,77.83732204296959,0,60,3.0,1,0.007936989246343274
1.75,0.0,77.78350193925876,0,60,3.0,1,0.006670633864911893
1.755,0.0,77.73722084425567,0,60,3.0,1,0.005581666923662919
1.76,0.0,77.69762194149929,0,60,3.0,1,0.004649928035277472
1.765,0.0,77.66390906663102,0,60,3.0,1,0.003856683920729906
1.77,0.0,77.63534938726814,0,60,3.0,1,0.0031846914651326
1.775,0.0,77.61127436177995,0,60,3.0,1,0.0026182202771752494
1.78,0.0,77.5910792469617,0,60,3.0,1,0.0021430411049811267
1.785,0.0,77.57422141874044,0,60,3.0,1,0.0017463863233043706
1.79,0.0,77.56021775677608,0,60,3.0,1,0.0014168883947313722
1.795,0.0,77.54864132491808,0,60,3.0,1,0.0011445017627783514
1.8,0.0,77.53911755662756,0,60,3.0,1,0.0009204130971190406
1.805,0.0,77.5313201292124,0,60,3.0,1,0.0007369442167624343
1.81,0.0,77.52496668439925,0,60,3.0,1,0.0005874513976293121
1.815,0.0,77.51981452651602,0,60,3.0,1,0.00046622415331800017
1.82,0.0,77.51565640430015,0,60,3.0,1,0.0003683859835328295
1.825,0.0,77.5123164587779,0,60,3.0,1,0.00028979903006830574
1.83,0.0,77.50964639827288,0,60,3.0,1,0.00022697407700889016
1.835,0.0,77.50752194270535,0,60,3.0,1,0.00017698688718476607
1.84,0.0,77.50583956308617,0,60,3.0,1,0.00013740148438046162
1.845,0.0,77.50451352850199,0,60,3.0,1,0.00010620067063501559
1.85,0.0,77.50347326184257,0,60,3.0,1,8.172380806052067e-05
1.855,0.0,77.50266099686111,0,60,3.0,1,6.261169084964155e-05
1.86,0.0,77.50202972266136,0,60,3.0,1,4.775818026734455e-05
1.865,0.0,77.50154139710868,0,60,3.0,1,3.626816726309431e-05
1.87,0.0,77.50116540769321,0,60,3.0,1,2.7421357487235263e-05
1.875,0.0,77.50087725675803,0,60,3.0,1,2.06413354830789e-05
1.88,0.0,77.50065744748079,0,60,3.0,1,1.5469352489189452e-05
1.885,0.0,77.50049054732276,0,60,3.0,1,1.154228994718163e-05
1.89,0.0,77.5003644066177,0,60,3.0,1,8.574273357787794e-06
1.895,0.0,77.50026951137633,0,60,3.0,1,6.34144414896261e-06
1.9,0.0,77.50019845107221,0,60,3.0,1,4.669436993133465e-06
1.905,0.0,77.50014548402194,0,60,3.0,1,3.4231534574674323e-06
1.91,0.0,77.50010618487227,0,60,3.0,1,2.498467582721359e-06
1.915,0.0,77.50007716058299,0,60,3.0,1,1.8155431291688728e-06
1.92,0.0,77.50005582308748,0,60,3.0,1,1.3134844112648673e-06
1.925,0.0,77.50004020848472,0,60,3.0,1,9.460819934006662e-07
1.93,0.0,77.5000288341439,0,60,3.0,1,6.784504448125303e-07
1.935,0.0,77.50002058647162,0,60,3.0,1,4.843875675466253e-07
1.94,0.0,77.50001463329997,0,60,3.0,1,3.443129404492057e-07
1.945,0.0,77.50001035590681,0,60,3.0,1,2.4366839551583005e-07
1.95,0.0,77.50000729658244,0,60,3.0,1,1.7168429267525532e-07
1.955,0.0,77.50000511842512,0,60,3.0,1,1.2043353228150142e-07
1.96,0.0,77.50000357469273,0,60,3.0,1,8.41104170991885e-08
1.965,0.001684486749771458,77.50000248557333,0,60,3.0,1,5.848407842195764e-08
1.97,0.003097557930867117,77.50000172067934,0,60,3.0,1,4.048657260949874e-08
1.975,0.005475106668887023,77.50000118592934,0,60,3.0,1,2.7904219651271192e-08
1.98,0.00930222931468658,77.50000081377281,0,60,3.0,1,1.914759563452903e-08
1.985,0.01519157517868857,77.50000055594656,0,60,3.0,1,1.3081095443447019e-08
1.99,0.023847336626128316,77.50000037813633,0,60,3.0,1,8.897325522090849e-09
1.995,0.0359830743700859,77.50000025606445,0,60,3.0,1,6.025045957572087e-09
2.0,0.05218887796857759,77.50000017263771,0,60,3.0,1,4.062063814725501e-09
2.005,0.0727577001223134,77.50000011587974,0,60,3.0,1,2.7265821913983124e-09
2.01,0.0974992498694751,77.50000007743992,0,60,3.0,1,1.822115791583201e-09
2.015,0.12558706050443358,77.50000005152378,0,60,3.0,1,1.2123243376503096e-09
2.02,0.15549263588878245,77.50000003412998,0,60,3.0,1,8.030584093135344e-10
2.025,0.1850529723539114,77.50000002250869,0,60,3.0,1,5.296161522410865e-10
2.03,0.21169159439317053,77.50000001477915,0,60,3.0,1,3.477446304767749e-10
2.035,0.23277292922115492,77.50000000966128,0,60,3.0,1,2.2732418823151794e-10
2.04,0.24602692519491282,77.50000000628789,0,60,3.0,1,1.479503787456505e-10
2.045,0.24995056064839283,77.50000000407437,0,60,3.0,1,9.586742902790908e-11
2.05,0.24408826520424054,77.50000000262847,0,60,3.0,1,6.184630846666336e-11
2.055,0.22911894216865275,77.50000000168822,0,60,3.0,1,3.972284984603688e-11
2.06,0.20672661788705934,77.50000000107954,0,60,3.0,1,2.5400983277530246e-11
2.065,0.17928878030241233,77.5000000006873,0,60,3.0,1,1.6171618292847758e-11
2.07,0.14946211903866036,77.50000000043563,0,60,3.0,1,1.0250205912812174e-11
2.075,0.1197651512573837,77.50000000027491,0,60,3.0,1,6.46844669330783e-12
2.08,0.09224675744988023,77.50000000017272,0,60,3.0,1,4.063970075495651e-12
2.085,0.06829565320281596,77.50000000010805,0,60,3.0,1,2.542238315286608e-12
2.09,0.04860224607515734,77.50000000006729,0,60,3.0,1,1.5832564017995643e-12
2.095,0.03324612389699793,77.50000000004172,0,60,3.0,1,9.817192810313666e-13
2.1,0.021859876340472782,77.50000000002575,0,60,3.0,1,6.058839704457889e-13
2.105,0.01381595518554205,77.50000000001583,0,60,3.0,1,3.724915800643537e-13
2.11,0.008394095110402422,77.50000000000968,0,60,3.0,1,2.2770804849535446e-13
2.115,0.0049052535271608,77.5000000000059,0,60,3.0,1,1.3876481663079605e-13
2.12,0.0027671663551903634,77.50000000000358,0,60,3.0,1,8.426200913484483e-14
2.125,0.0015425553464444616,77.50000000000216,0,60,3.0,1,5.0824703922604816e-14
2.13,0.0009638206637011801,77.5000000000013,0,60,3.0,1,3.042794774313841e-14
2.135,0.0009804935156568228,77.50000000000078,0,60,3.0,1,1.8390517866732006e-14
2.14,0.0018793744894085216,77.50000000000047,0,60,3.0,1,1.1034310720039203e-14
2.145,0.004535525206900863,77.50000000000027,0,60,3.0,1,6.353087990325602e-15
2.15,0.010832767979632273,77.50000000000016,0,60,3.0,1,3.678103573346401e-15
2.155,0.024208003392322392,77.5000000000001,0,60,3.0,1,2.3406113648568006e-15
2.16,0.0500971897335304,77.50000000000006,0,60,3.0,1,1.3374922084896003e-15
2.165,0.09582894921774403,77.50000000000003,0,60,3.0,1,6.687461042448002e-16
2.17,0.16937896721820658,77.50000000000001,0,60,3.0,1,3.343730521224001e-16
2.175,0.27661303008991756,77.50000000000001,0,60,3.0,1,3.343730521224001e-16
2.18,0.4173782800009149,77.5,0,60,3.0,1,0.0
2.185,0.5818720934538056,77.5,0,60,3.0,1,0.0
2.19,0.7494718801585675,77.5,0,60,3.0,1,0.0
2.195,0.891813020752378,77.5,0,60,3.0,1,0.0
2.2,0.9800361632936612,77.5,0,60,3.0,1,0.0
2.205,0.993574479225126,77.50000249181176,1,60,3.0,1,5.863086484810885e-08
2.21,0.9263438449375362,77.50000384183856,0,60,3.0,1,9.039620147846375e-08
2.215,0.7873015962290536,77.50000605203118,0,60,3.0,1,1.4240073369364837e-07
2.22,0.5959516244629897,77.5000098502643,0,60,3.0,1,2.317709248365966e-07
2.225,0.376910120078773,77.50001674040978,0,60,3.0,1,3.9389199474392037e-07
2.23,0.15739335672107918,77.50002988936268,0,60,3.0,1,7.032791218615089e-07
2.235,-0.033361226269301235,77.50005598658028,0,60,3.0,1,1.3173313006705832e-06
2.24,-0.1680180840843834,77.50010904250446,0,60,3.0,1,2.565705987348445e-06
2.245,-0.23069703190837854,77.50021792763697,0,60,3.0,1,5.127709105114691e-06
2.25,-0.22587267821131068,77.50044088337641,0,60,3.0,1,1.0373726503838256e-05
2.255,-0.17718181630665902,77.50089256449868,0,60,3.0,1,2.1001517616107722e-05
2.26,-0.11494332516451301,77.50179276579377,0,60,3.0,1,4.218272455920455e-05
2.265,-0.061810214049552864,77.50355118942913,0,60,3.0,1,8.355739833251285e-05
2.27,-0.026546104631500547,77.50690959240086,0,60,3.0,1,0.00016257864472610142
2.275,-0.00719600351942686,77.51317112223475,0,60,3.0,1,0.00030990875846475104
2.28,0.0022072757983807078,77.52455545137923,0,60,3.0,1,0.0005777753265700834
2.285,0.006917199873730717,77.54472497706796,0,60,3.0,1,0.0010523524015990033
2.29,0.01004859748264829,77.57952766654348,0,60,3.0,1,0.001871239212787861
2.295,0.013037082251128167,77.63799012210991,0,60,3.0,1,0.0032468264025861597
2.3,0.01645163937690478,77.7335629797193,0,60,3.0,1,0.005495599522806943
2.305,0.020526639934696615,77.88556318136334,0,60,3.0,1,0.009072074855607954
2.31,0.02539629541761738,78.12067063847793,0,60,3.0,1,0.014604015023010173
2.315,0.031171612185577933,78.47422412231587,0,60,3.0,1,0.022922920525079396
2.32,0.03795853426638131,78.99093771170499,0,60,3.0,1,0.03508088733423499
2.325,0.0458588961882057,79.72455313644113,0,60,3.0,1,0.05234242673979131
2.33,0.054966995891435555,80.7358957043249,0,60,3.0,1,0.07613872245470361
2.335,0.06536491004445595,82.08885917455554,0,60,3.0,1,0.10797315704836559
2.34,0.07711726085088699,83.84404871167135,0,60,3.0,1,0.149271734392267
2.345,0.09026570629555215,86.05017854498587,0,60,3.0,1,0.20118067164672632
2.35,0.10482339848670268,88.73382931864452,0,60,3.0,1,0.26432539573281233
2.355,0.12076968927580028,91.88874480991677,0,60,3.0,1,0.33855870140980643
2.36,0.13804539501007884,95.46636445671342,0,60,3.0,1,0.4227379872167864
2.365,0.15654895051787066,99.36959295544153,0,60,3.0,1,0.5145786577750949
2.37,0.17613378141900526,103.45175485582882,0,60,3.0,1,0.6106295260195017
2.375,0.19660720058055794,107.5221797930646,0,60,3.0,1,0.7064042304250493
2.38,0.21773108748496234,111.35892106398657,0,60,3.0,1,0.7966804956232134
2.385,0.23922453870058807,114.72785713078791,0,60,3.0,1,0.8759495795479508
2.39,0.2607685857914563,117.40610393874456,0,60,3.0,1,0.9389671514998721
2.395,0.2820129681603682,119.20657953132158,0,60,3.0,1,0.9813312830899196
2.4,0.30258482867153996,120.0,0,60,3.0,1,1.0
2.405,0.3220990771751686,119.73073626244305,0,60,3.0,1,0.9936643826457188
2.41,0.3401700499968971,118.4238494759471,0,60,3.0,2,0.9629141053164022
2.415,0.3564239911198326,116.18208945321945,0,60,3.0,2,0.910166810663987
2.42,0.3705118017738417,113.1733745291447,0,60,3.0,2,0.8393735183328164
2.425,0.3821214567925213,109.61089082664786,0,60,3.0,2,0.7555503723917144
2.43,0.39098947374066967,105.7291023657552,0,60,3.0,2,0.6642141733118869
2.435,0.3969108472035567,101.75942264604797,0,60,3.0,2,0.5708099446128934
2.44,0.3997469255491936,97.90901232617857,0,60,3.0,2,0.4802120547336134
2.445,0.3994308076379137,94.34526416670559,0,60,3.0,2,0.39635915686366097
2.45,0.3959699661768434,91.18727314888353,0,60,3.0,2,0.3220534858560832
2.455,0.38944595408114946,88.50427463175579,0,60,3.0,2,0.2589241089824892
2.46,0.38001120995358023,86.3199414541806,0,60,3.0,2,0.20752803421601396
2.465,0.3678831374098315,84.62074135275094,0,60,3.0,2,0.16754685535884564
2.47,0.35333577933796634,83.36632600348436,0,60,3.0,2,0.13803120008198494
2.475,0.33668953221163944,82.5000975498113,0,60,3.0,2,0.11764935411320708
2.48,0.3182994390982644,81.95854814001777,0,60,3.0,2,0.1049070150592416
2.485,0.29854265738230645,81.67853656537754,0,60,3.0,2,0.09831850742064803
2.49,0.2778057157821067,81.60221366217804,0,60,3.0,2,0.09652267440418928
2.495,0.2564721553719815,81.67973868879486,0,60,3.0,2,0.09834679267752602
2.5,0.23491109433464996,81.87019922391292,0,60,3.0,2,0.10282821703324517
2.505,0.21346717185309805,82.14126026801704,0,60,3.0,2,0.109206123953342
2.51,0.19245222055656455,82.46805768409277,0,60,3.0,2,0.11689547491982988
2.515,0.17213889801761392,82.83176315010746,0,60,3.0,2,0.12545325059076384
2.52,0.15275638501270183,83.21812687136497,0,60,3.0,2,0.13454416167917582
2.525,0.13448814019607322,83.61618424954153,0,60,3.0,2,0.14391021763627135
2.53,0.11747159495449566,84.01721373745077,0,60,3.0,2,0.15334620558707704
2.535,0.10179958433370105,84.41396310723198,0,60,3.0,2,0.16268148487604656
2.54,0.08752324394101413,84.80011942466255,0,60,3.0,2,0.17176751587441305
2.545,0.07465606047174059,85.1699784655929,0,60,3.0,2,0.18047008154336247
2.55,0.0631787448609295,85.51826494996435,0,60,3.0,2,0.18866505764621994
2.555,0.05304460019959574,85.840059253804,0,60,3.0,2,0.1962366883248
2.56,0.044185078305849994,86.13079426679849,0,60,3.0,2,0.20307751215996445
2.565,0.03651525513023255,86.38629466659549,0,60,3.0,2,0.20908928627283505
2.57,0.0299390014708757,86.60283845793114,0,60,3.0,2,0.21418443430426218
2.575,0.024353677220580638,86.77722659458583,0,60,3.0,2,0.21828768457849004
2.58,0.01965423034339045,86.90685088831356,0,60,3.0,2,0.22133766796031898
2.585,0.015736632374757337,86.98975350722205,0,60,3.0,2,0.22328831781698935
2.59,0.012500627640593535,87.02467353697683,0,60,3.0,2,0.22410996557592552
2.595,0.009851811652115898,87.0110776394444,0,60,3.0,2,0.223790062104574
2.6,0.007703084175428559,86.94917303121116,0,60,3.0,2,0.2223334830873214
2.605,0.005975544002062424,86.83990197261397,0,60,3.0,2,0.2197623993556229
2.61,0.004598905818663047,86.68491779355341,0,60,3.0,2,0.21611571278949201
2.615,0.0035115256454839104,86.4865432253902,0,60,3.0,2,0.21144807589153394
2.62,0.002660121266303676,86.2477124690008,0,60,3.0,2,0.20582852868237184
2.625,0.0019992692560877024,85.9718990017495,0,60,3.0,2,0.19933880004116483
2.63,0.0014907520044639367,85.66303159799958,0,60,3.0,2,0.1920713317176371
2.635,0.0011028178277539807,85.32540139533346,0,60,3.0,2,0.1841270916549049
2.64,0.0008094059938923333,84.96356307129537,0,60,3.0,2,0.1756132487363616
2.645,0.0005893771793717645,84.58223329764274,0,60,3.0,2,0.16664078347394692
2.65,0.0004257792353490551,84.18618961118601,0,60,3.0,2,0.15732210849849432
2.655,0.0003051686392901525,83.78017268883372,0,60,3.0,2,0.14776876914902862
2.66,0.00021699992642659966,83.36879475167348,0,60,3.0,2,0.13808928827467004
2.665,0.00015308884054097838,82.95645646592097,0,60,3.0,2,0.12838721096284625
2.67,0.00010714989329311098,82.5472742782177,0,60,3.0,2,0.11875939478159292
2.675,7.440535854020571e-05,82.1450196423469,0,60,3.0,2,0.10929457981992695
2.68,5.1260276743925106e-05,81.75307108830053,0,60,3.0,2,0.10007226090118894
2.685,3.503659887882241e-05,81.37437957677281,0,60,3.0,2,0.09116187239465436
2.69,2.375894748103639e-05,81.01144709498455,0,60,3.0,2,0.08262228458787169
2.695,1.5984413869232557e-05,80.66631800298667,0,60,3.0,2,0.0745016000702746
2.7,1.0669166579899869e-05,80.34058224944994,0,60,3.0,2,0.06683722939882206
2.705,7.06526633560511e-06,80.03538925452028,0,60,3.0,2,0.059656217753418415
2.71,4.641847214699205e-06,79.75147101231343,0,60,3.0,2,0.0529757885250219
2.715,3.025641074479182e-06,79.4891728003454,0,60,3.0,2,0.046804065890480015
2.72,1.9566278676921314e-06,79.24848979680112,0,60,3.0,2,0.041140936395320564
2.725,1.2553456560008793e-06,79.02910789449058,0,60,3.0,2,0.035979009282131276
2.73,7.990660428214668e-07,78.8304470550233,0,60,3.0,2,0.03130463658878351
2.735,5.046221251618276e-07,78.65170565820313,0,60,3.0,2,0.027098956663602996
2.74,3.1616527078858815e-07,78.49190445841805,0,60,3.0,2,0.02333892843336584
2.745,1.9652884407760343e-07,78.34992894961812,0,60,3.0,2,0.01999832822630865
2.75,1.2120002189836396e-07,78.22456915105091,0,60,3.0,2,0.017048685907080346
2.755,7.415549848886236e-08,78.11455604558064,0,60,3.0,2,0.014460142248956278
2.76,4.501406988770349e-08,78.018594120612,0,60,3.0,2,0.01220221460263514
2.765,0.0,77.93538966935525,0,60,3.0,2,0.010244462808358723
2.77,0.0,77.86367470016516,0,60,3.0,2,0.008557051768592066
2.775,0.0,77.80222646861542,0,60,3.0,2,0.00711121102624508
2.78,0.0,77.74988278736755,0,60,3.0,2,0.0058795949968836175
2.785,0.0,77.70555338106993,0,60,3.0,2,0.004836550142821954
2.79,0.0,77.66822763736607,0,60,3.0,2,0.0039582973497899465
2.795,0.0,77.63697916182198,0,60,3.0,2,0.0032230391016937307
2.8,0.0,77.61096757646521,0,60,3.0,2,0.0026110017991815017
2.805,0.0,77.58943801168321,0,60,3.0,2,0.002104423804310914
2.81,0.0,77.57171873294385,0,60,3.0,2,0.0016874995986788288
2.815,0.0,77.55721732087633,0,60,3.0,2,0.0013462899029725443
2.82,0.0,77.54541578936765,0,60,3.0,2,0.0010686068086506431
2.825,0.0,77.53586498497702,0,60,3.0,2,0.0008438819994594001
2.83,0.0,77.52817856529884,0,60,3.0,2,0.0006630250658551685
2.835,0.0,77.52202680664169,0,60,3.0,2,0.0005182778033338978
2.84,0.0,77.5171304447848,0,60,3.0,2,0.0004030692890540542
2.845,0.0,77.51325470838246,0,60,3.0,2,0.0003118754913520447
2.85,0.0,77.51020366409061,0,60,3.0,2,0.00024008621389672204
2.855,0.0,77.50781495653038,0,60,3.0,2,0.00018388133012663008
2.86,0.0,77.50595499523384,0,60,3.0,2,0.00014011753491378358
2.865,0.0,77.50451461486995,0,60,3.0,2,0.00010622623223405433
2.87,0.0,77.50340521419459,0,60,3.0,2,8.012268693144452e-05
2.875,0.0,77.50255536298914,0,60,3.0,2,6.012618797981037e-05
2.88,0.0,77.50190785429267,0,60,3.0,2,4.489068923924285e-05
2.885,0.0,77.50141717096078,0,60,3.0,2,3.334519907712895e-05
2.89,0.0,77.50104733043376,0,60,3.0,2,2.4643069029734227e-05
2.895,0.0,77.50077006899966,0,60,3.0,2,1.811927058016034e-05
2.9,0.0,77.50056332625815,0,60,3.0,2,1.3254735485776002e-05
2.905,0.0,77.50040999143872,0,60,3.0,2,9.646857381540031e-06
2.91,0.0,77.50029687526775,0,60,3.0,2,6.985300417655333e-06
2.915,0.0,77.50021387384992,0,60,3.0,2,5.032325880366068e-06
2.92,0.0,77.50015329422482,0,60,3.0,2,3.6069229368502634e-06
2.925,0.0,77.50010931464227,0,60,3.0,2,2.5721092299590965e-06
2.93,0.0,77.50007755598538,0,60,3.0,2,1.824846714939935e-06
2.935,0.0,77.50005474402688,0,60,3.0,2,1.288094750193255e-06
2.94,0.0,77.50003844524194,0,60,3.0,2,9.045939280253258e-07
2.945,0.0,77.50002686166287,0,60,3.0,2,6.320391264580394e-07
2.95,0.0,77.50001867272185,0,60,3.0,2,4.393581611887331e-07
2.955,0.0,77.50001291417894,0,60,3.0,2,3.0386303385111047e-07
2.96,0.001684486749771458,77.5000088860839,0,60,3.0,2,2.0908432715901547e-07
2.965,0.003097557930867117,77.50000608328911,0,60,3.0,2,1.431362143060088e-07
2.97,0.005475106668887023,77.50000414334353,0,60,3.0,2,9.7490436032518e-08
2.975,0.00930222931468658,77.50000280768167,0,60,3.0,2,6.606309806128968e-08
2.98,0.01519157517868857,77.50000189290678,0,60,3.0,2,4.453898307420947e-08
2.985,0.023847336626128316,77.50000126968219,0,60,3.0,2,2.9874874986917885e-08
2.99,0.0359830743700859,77.50000084731572,0,60,3.0,2,1.9936840424313284e-08
2.995,0.05218887796857759,77.50000056257437,0,60,3.0,2,1.3237044025599436e-08
3.0,0.0727577001223134,77.50000037161998,0,60,3.0,2,8.743999427786228e-09
3.005,0.0974992498694751,77.50000024423203,0,60,3.0,2,5.7466359200642566e-09
3.01,0.12558706050443358,77.50000015969474,0,60,3.0,2,3.757523191940409e-09
3.015,0.15549263588878245,77.50000010388743,0,60,3.0,2,2.444410122681053e-09
3.02,0.1850529723539114,77.50000006723879,0,60,3.0,2,1.5820891054746051e-09
3.025,0.21169159439317053,77.50000004329733,0,60,3.0,2,1.018760793372434e-09
3.03,0.23277292922115492,77.50000002773875,0,60,3.0,2,6.526764697328498e-10
3.035,0.24602692519491282,77.5000000176806,0,60,3.0,2,4.1601424527470956e-10
3.04,0.24995056064839283,77.50000001121222,0,60,3.0,2,2.6381699439405244e-10
3.045,0.24408826520424054,77.50000000707409,0,60,3.0,2,1.6644923348127014e-10
3.05,0.22911894216865275,77.50000000444052,0,60,3.0,2,1.0448288508889484e-10
3.055,0.20672661788705934,77.5000000027732,0,60,3.0,2,6.525189800253001e-11
3.06,0.17928878030241233,77.50000000172311,0,60,3.0,2,4.054373568899738e-11
3.065,0.14946211903866036,77.5000000010652,0,60,3.0,2,2.5063600867938744e-11
3.07,0.1197651512573837,77.50000000065513,0,60,3.0,2,1.5414932075894767e-11
3.075,0.09224675744988023,77.50000000040089,0,60,3.0,2,9.432663800372906e-12
3.08,0.06829565320281596,77.50000000024406,0,60,3.0,2,5.7425227971500995e-12
3.085,0.04860224607515734,77.50000000014782,0,60,3.0,2,3.4781484881772057e-12
3.09,0.03324612389699793,77.50000000008907,0,60,3.0,2,2.0958502907032036e-12
3.095,0.021859876340472782,77.5000000000534,0,60,3.0,2,1.2565739298759795e-12
3.1,0.01381595518554205,77.50000000003186,0,60,3.0,2,7.49664382858421e-13
3.105,0.008394095110402422,77.5000000000189,0,60,3.0,2,4.447161593227921e-13
3.11,0.0049052535271608,77.50000000001116,0,60,3.0,2,2.6248284591608404e-13
3.115,0.0027671663551903634,77.50000000000655,0,60,3.0,2,1.5414597702842645e-13
3.12,0.0015425553464444616,77.50000000000384,0,60,3.0,2,9.028072407304802e-14
3.125,0.0009638206637011801,77.50000000000223,0,60,3.0,2,5.2496569183216817e-14
3.13,0.0009804935156568228,77.5000000000013,0,60,3.0,2,3.042794774313841e-14
3.135,0.0018793744894085216,77.50000000000074,0,60,3.0,2,1.7387398710364806e-14
3.14,0.004535525206900863,77.50000000000043,0,60,3.0,2,1.0031191563672003e-14
3.145,0.010832767979632273,77.50000000000024,0,60,3.0,2,5.684341886080802e-15
3.15,0.024208003392322392,77.50000000000014,0,60,3.0,2,3.343730521224001e-15
3.155,0.0500971897335304,77.50000000000007,0,60,3.0,2,1.6718652606120004e-15
3.16,0.09582894921774403,77.50000000000004,0,60,3.0,2,1.0031191563672002e-15
3.165,0.16937896721820658,77.50000000000003,0,60,3.0,2,6.687461042448002e-16
3.17,0.27661303008991756,77.50000000000001,0,60,3.0,2,3.343730521224001e-16
3.175,0.4173782800009149,77.5,0,60,3.0,2,0.0
3.18,0.5818720934538056,77.5,0,60,3.0,2,0.0
3.185,0.7494718801585675,77.5,0,60,3.0,2,0.0
3.19,0.891813020752378,77.5,0,60,3.0,2,0.0
3.195,0.9800361632936612,77.5,0,60,3.0,2,0.0
3.2,0.993574479225126,77.50000249005134,1,60,3.0,2,5.8589443383158035e-08
3.205,0.9263438449375362,77.50000394038275,0,60,3.0,2,9.271488833666595e-08
3.21,0.7873015962290536,77.50000639218067,0,60,3.0,2,1.504042509569605e-07
3.215,0.5959516244629897,77.50001077235028,0,60,3.0,2,2.534670653965483e-07
3.22,0.376910120078773,77.50001908666758,0,60,3.0,2,4.490980606586912e-07
3.225,0.15739335672107918,77.5000357548629,0,60,3.0,2,8.412908919260243e-07
3.23,-0.033361226269301235,77.5000705175213,0,60,3.0,2,1.659235795159475e-06
3.235,-0.1680180840843834,77.5001445789881,0,60,3.0,2,3.401858543504525e-06
3.24,-0.23069703190837854,77.5003031686916,0,60,3.0,2,7.133380978864486e-06
3.245,-0.22587267821131068,77.5006403428687,0,60,3.0,2,1.5066891028388508e-05
3.25,-0.17718181630665902,77.50134618528463,0,60,3.0,2,3.167494787369244e-05
3.255,-0.11494332516451301,77.50279324668047,0,60,3.0,2,6.572345130514216e-05
3.26,-0.061810214049552864,77.5056885995389,0,60,3.0,2,0.0001338494009152836
3.265,-0.026546104631500547,77.51133023532057,0,60,3.0,2,0.00026659377224873157
3.27,-0.00719600351942686,77.52202043086514,0,60,3.0,2,0.0005181277850621267
3.275,0.0022072757983807078,77.54170079619027,0,60,3.0,2,0.000981195204476936
3.28,0.006917199873730717,77.57687766493112,0,60,3.0,2,0.0018088862336733602
3.285,0.01004859748264829,77.63789263572853,0,60,3.0,2,0.003244532605377264
3.29,0.013037082251128167,77.74054920623045,0,60,3.0,2,0.0056599813230695205
3.295,0.01645163937690478,77.90802055981457,0,60,3.0,2,0.009600483760342914
3.3,0.020526639934696615,78.17282908364092,0,60,3.0,2,0.015831272556256944
3.305,0.02539629541761738,78.57851124527741,0,60,3.0,2,0.025376735182997916
3.31,0.031171612185577933,79.1803885212917,0,60,3.0,2,0.03953855344215774
3.315,0.03795853426638131,80.0447076348371,0,60,3.0,2,0.059875473760872835
3.32,0.0458588961882057,81.24536512508388,0,60,3.0,2,0.08812623823726774
3.325,0.054966995891435555,82.85757412646959,0,60,3.0,2,0.12606056768163731
3.33,0.06536491004445595,84.94822898129785,0,60,3.0,2,0.17525244661877282
3.335,0.07711726085088699,87.56338750820743,0,60,3.0,2,0.23678558842841005
3.34,0.09026570629555215,90.7141492895029,0,60,3.0,2,0.3109211597530094
3.345,0.10482339848670268,94.3630917299998,0,60,3.0,2,0.39677862894117166
3.35,0.12076968927580028,98.41408530862822,0,60,3.0,2,0.4920961249088992
3.355,0.13804539501007884,102.70847428298099,0,60,3.0,2,0.5931405713642585
3.36,0.15654895051787066,107.03007195676986,0,60,3.0,2,0.694825222512232
3.365,0.17613378141900526,111.12012910549245,0,60,3.0,2,0.7910618613057048
3.37,0.19660720058055794,114.70155663171694,0,60,3.0,2,0.8753307442756927
3.375,0.21773108748496234,117.50960206611181,0,60,3.0,2,0.941402401555572
3.38,0.23922453870058807,119.32441468611549,0,60,3.0,2,0.9841038749674232
3.385,0.2607685857914563,120.0,0,60,3.0,2,1.0
3.39,0.2820129681603682,119.48430356356428,0,60,3.0,2,0.9878659662015126
3.395,0.30258482867153996,117.826618813132,0,60,3.0,2,0.9488616191325177
3.4,0.3220990771751686,115.17088635739287,0,60,3.0,2,0.8863737966445382
3.405,0.3401700499968971,111.73617728815637,0,60,3.0,2,0.8055571126625028
3.41,0.3564239911198326,107.78805988304259,0,60,3.0,2,0.7126602325421787
3.415,0.3705118017738417,103.60606181643028,0,60,3.0,2,0.6142602780336537
3.42,0.3821214567925213,99.45274455247792,0,60,3.0,2,0.5165351659406571
3.425,0.39098947374066967,95.54902758884025,0,60,3.0,2,0.42468300209035875
3.43,0.3969108472035567,92.05866703799698,0,60,3.0,2,0.342556871482282
3.435,0.3997469255491936,89.08271495386987,0,60,3.0,2,0.2725344695028204
3.44,0.3994308076379137,86.66288698908318,0,60,3.0,2,0.21559734091960414
3.445,0.3959699661768434,84.7914392365105,0,60,3.0,2,0.1715632761531882
3.45,0.38944595408114946,83.42457875378753,0,60,3.0,2,0.1394018530302948
3.455,0.38001120995358023,82.49656511278434,0,60,3.0,2,0.11756623794786679
3.46,0.3678831374098315,81.93230111406058,0,60,3.0,2,0.10428943797789597
3.465,0.35333577933796634,81.65708944599176,0,60,3.0,2,0.09781386931745313
3.47,0.33668953221163944,81.60309706988252,0,60,3.0,2,0.09654346046782407
3.475,0.3182994390982644,81.71274607711119,0,60,3.0,2,0.09912343710849862
3.48,0.29854265738230645,81.93966161579142,0,60,3.0,2,0.10446262625391582
3.485,0.2778057157821067,82.2479621143257,0,60,3.0,2,0.11171675563119299
3.49,0.2564721553719815,82.6106363930207,0,60,3.0,2,0.12025026807107525
3.495,0.23491109433464996,83.00759804884157,0,60,3.0,2,0.12959054232568407
3.5,0.21346717185309805,83.42381432070776,0,60,3.0,2,0.1393838663695944
3.505,0.19245222055656455,83.84772730242526,0,60,3.0,2,0.14935828946882954
3.51,0.17213889801761392,84.2700476135659,0,60,3.0,2,0.1592952379662563
3.515,0.15275638501270183,84.68291151017121,0,60,3.0,2,0.16900968259226373
3.52,0.13448814019607322,85.07934584035235,0,60,3.0,2,0.17833754918476108
3.525,0.11747159495449566,85.45296939810551,0,60,3.0,2,0.18712869172012964
3.53,0.10179958433370105,85.79786185623578,0,60,3.0,2,0.19524380838201844
3.535,0.08752324394101413,86.10854277553481,0,60,3.0,2,0.2025539476596427
3.54,0.07465606047174059,86.38001673381514,0,60,3.0,2,0.20894157020741505
3.545,0.0631787448609295,86.60785292524119,0,60,3.0,2,0.21430242177038095
3.55,0.05304460019959574,86.78827731415377,0,60,3.0,2,0.21854770150950056
3.555,0.044185078305849994,86.91826250749796,0,60,3.0,2,0.22160617664701074
3.56,0.03651525513023255,86.99560542459125,0,60,3.0,2,0.22342600999038228
3.565,0.0299390014708757,87.0189862207937,0,60,3.0,2,0.22397614637161664
3.57,0.024353677220580638,86.98800431460441,0,60,3.0,2,0.22324716034363318
3.575,0.01965423034339045,86.90318917628503,0,60,3.0,2,0.22125151003023588
3.58,0.015736632374757337,86.76598501082319,0,60,3.0,2,0.21802317672525146
3.585,0.012500627640593535,86.57870974203561,0,60,3.0,2,0.21361669981260267
3.59,0.009851811652115898,86.34448983173559,0,60,3.0,2,0.20810564309966087
3.595,0.007703084175428559,86.06717345510422,0,60,3.0,2,0.20158055188480528
3.6,0.005975544002062424,85.75122538441936,0,60,3.0,2,0.19414647963339662
3.605,0.004598905818663047,85.40160758432508,0,60,3.0,2,0.1859201784547077
3.61,0.0035115256454839104,85.02364997133708,0,60,3.0,2,0.17702705814910774
3.615,0.002660121266303676,84.62291602458168,0,60,3.0,3,0.16759802410780433
3.62,0.0019992692560877024,84.20506795077087,0,60,3.0,3,0.15776630472402042
3.625,0.0014907520044639367,83.77573591248671,0,60,3.0,3,0.147664374411452
3.63,0.0011028178277539807,83.34039544429893,0,60,3.0,3,0.137421069277622
3.635,0.0008094059938923333,82.90425663486596,0,60,3.0,3,0.1271589796439049
3.64,0.0005893771793717645,82.47216798110777,0,60,3.0,3,0.11699218779077114
3.645,0.0004257792353490551,82.04853706370281,0,60,3.0,3,0.10702440149888964
3.65,0.0003051686392901525,81.63726939449548,0,60,3.0,3,0.09734751516459944
3.655,0.00021699992642659966,81.2417259881692,0,60,3.0,3,0.08804061148633396
3.66,0.00015308884054097838,80.8646994518398,0,60,3.0,3,0.07916939886681876
3.665,0.00010714989329311098,80.50840770089148,0,60,3.0,3,0.0707860635503878
3.67,7.440535854020571e-05,80.17450382440545,0,60,3.0,3,0.06292950175071643
3.675,5.1260276743925106e-05,79.86410015805667,0,60,3.0,3,0.055625886071921704
3.68,3.503659887882241e-05,79.57780428725738,0,60,3.0,3,0.0488895126413501
3.685,2.375894748103639e-05,79.31576450138492,0,60,3.0,3,0.04272387062082163
3.69,1.5984413869232557e-05,79.07772214650204,0,60,3.0,3,0.037122874035342125
3.695,1.0669166579899869e-05,78.86306836805602,0,60,3.0,3,0.03207219689543576
3.7,7.06526633560511e-06,78.6709028806394,0,60,3.0,3,0.027550656015044778
3.705,4.641847214699205e-06,78.5000926295495,0,60,3.0,3,0.023531591283517627
3.71,3.025641074479182e-06,78.34932849723454,0,60,3.0,3,0.0199841999349303
3.715,1.9566278676921314e-06,78.21717853497664,0,60,3.0,3,0.01687478905827387
3.72,1.2553456560008793e-06,78.10213654545474,0,60,3.0,3,0.014167918716582134
3.725,7.990660428214668e-07,78.00266518625371,0,60,3.0,3,0.011827416147146068
3.73,5.046221251618276e-07,77.91723309183077,0,60,3.0,3,0.009817249219547448
3.735,3.1616527078858815e-07,77.84434580911395,0,60,3.0,3,0.008102254332092851
3.74,1.9652884407760343e-07,77.78257060052039,0,60,3.0,3,0.006648720012244399
3.745,1.2120002189836396e-07,77.73055538198753,0,60,3.0,3,0.005424832517353613
3.75,7.415549848886236e-08,77.68704223011872,0,60,3.0,3,0.0044009936498522455
3.755,4.501406988770349e-08,77.65087601213253,0,60,3.0,3,0.003550023814883014
3.76,0.0,77.62100876770332,0,60,3.0,3,0.00284726512243096
3.765,0.0,77.59650050750213,0,60,3.0,3,0.002270600176520662
3.77,0.0,77.57651709501268,0,60,3.0,3,0.001800402235592374
3.775,0.0,77.56032585238711,0,60,3.0,3,0.001419431820873155
3.78,0.0,77.547289484281,0,60,3.0,3,0.0011126937477881176
3.785,0.0,77.5368588520975,0,60,3.0,3,0.0008672671081763597
3.79,0.0,77.52856506068116,0,60,3.0,3,0.0006721190748508246
3.795,0.0,77.52201124528382,0,60,3.0,3,0.0005179116537369603
3.8,0.0,77.51686437276233,0,60,3.0,3,0.00039680877087829795
3.805,0.0,77.51284730072327,0,60,3.0,3,0.00030228942878272175
3.81,0.0,77.50973127407018,0,60,3.0,3,0.00022897115459239318
3.815,0.0,77.50732898167006,0,60,3.0,3,0.000172446627530743
3.82,0.0,77.50548824744804,0,60,3.0,3,0.00012913523407158156
3.825,0.0,77.50408639034983,0,60,3.0,3,9.615036117238293e-05
3.83,0.0,77.50302525601475,0,60,3.0,3,7.118249446474532e-05
3.835,0.0,77.50222689906738,0,60,3.0,3,5.2397625114843e-05
3.84,0.0,77.50162987782451,0,60,3.0,3,3.835006645912846e-05
3.845,0.0,77.50118611196181,0,60,3.0,3,2.7908516748579237e-05
3.85,0.0,77.50085824728407,0,60,3.0,3,2.019405374285805e-05
3.855,0.0,77.50061746921084,0,60,3.0,3,1.4528687313820816e-05
3.86,0.0,77.5004417070119,0,60,3.0,3,1.0393106162395911e-05
3.865,0.0,77.50031417338934,0,60,3.0,3,7.392315043328862e-06
3.87,0.0,77.50022218800947,0,60,3.0,3,5.227953164087333e-06
3.875,0.0,77.50015623846248,0,60,3.0,3,3.6761991171876133e-06
3.88,0.0,77.50010923741436,0,60,3.0,3,2.570292102679078e-06
3.885,0.0,77.50007594006851,0,60,3.0,3,1.7868251414738017e-06
3.89,0.0,77.50005249122094,0,60,3.0,3,1.2350875515628158e-06
3.895,0.0,77.50003607600858,0,60,3.0,3,8.488472608004325e-07
3.9,0.001684486749771458,77.50002465280872,0,60,3.0,3,5.80066087503142e-07
3.905,0.003097557930867117,77.50001675060308,0,60,3.0,3,3.9413183719047726e-07
3.91,0.005475106668887023,77.50001131646036,0,60,3.0,3,2.6626965550616765e-07
3.915,0.00930222931468658,77.50000760163272,0,60,3.0,3,1.7886194628398002e-07
3.92,0.01519157517868857,77.5000050771416,0,60,3.0,3,1.194621551589722e-07
3.925,0.023847336626128316,77.50000337169115,0,60,3.0,3,7.93339094183038e-08
3.93,0.0359830743700859,77.50000222634475,0,60,3.0,3,5.238458229809219e-08
3.935,0.05218887796857759,77.50000146168287,0,60,3.0,3,3.439253813506666e-08
3.94,0.0727577001223134,77.50000095417937,0,60,3.0,3,2.2451279298419488e-08
3.945,0.0974992498694751,77.50000061933126,0,60,3.0,3,1.4572500236574663e-08
3.95,0.12558706050443358,77.50000039969811,0,60,3.0,3,9.404661394749863e-09
3.955,0.15549263588878245,77.50000025648225,0,60,3.0,3,6.034876525304486e-09
3.96,0.1850529723539114,77.50000016364345,0,60,3.0,3,3.850434094441452e-09
3.965,0.21169159439317053,77.50000010381405,0,60,3.0,3,2.442683420239893e-09
3.97,0.23277292922115492,77.50000006548316,0,60,3.0,3,1.5407803242423516e-09
3.975,0.24602692519491282,77.5000000410695,0,60,3.0,3,9.663411299912053e-10
3.98,0.24995056064839283,77.50000002561092,0,60,3.0,3,6.026097895194065e-10
3.985,0.24408826520424054,77.50000001587988,0,60,3.0,3,3.736441639750196e-10
3.99,0.22911894216865275,77.50000000979006,0,60,3.0,3,2.3035427682985114e-10
3.995,0.20672661788705934,77.50000000600122,0,60,3.0,3,1.412050711651853e-10
4.0,0.17928878030241233,77.50000000365772,0,60,3.0,3,8.606394551273243e-11
4.005,0.14946211903866036,77.50000000221664,0,60,3.0,3,5.215617741615621e-11
4.01,0.1197651512573837,77.50000000133566,0,60,3.0,3,3.142738879593226e-11
4.015,0.09224675744988023,77.50000000080023,0,60,3.0,3,1.8828880938064472e-11
4.02,0.06829565320281596,77.5000000004767,0,60,3.0,3,1.121654403344591e-11
4.025,0.04860224607515734,77.50000000028236,0,60,3.0,3,6.643658172619967e-12
4.03,0.03324612389699793,77.5000000001663,0,60,3.0,3,3.9128334559363255e-12
4.035,0.021859876340472782,77.50000000009737,0,60,3.0,3,2.2911241531426853e-12
4.04,0.01381595518554205,77.5000000000567,0,60,3.0,3,1.3341484779683763e-12
4.045,0.008394095110402422,77.50000000003283,0,60,3.0,3,7.724017504027442e-13
4.05,0.0049052535271608,77.50000000001889,0,60,3.0,3,4.443817862706697e-13
4.055,0.0027671663551903634,77.50000000001081,0,60,3.0,3,2.5445789266514647e-13
4.06,0.0015425553464444616,77.50000000000615,0,60,3.0,3,1.4478353156899923e-13
4.065,0.0009638206637011801,77.50000000000348,0,60,3.0,3,8.192139776998802e-14
4.07,0.0009804935156568228,77.50000000000196,0,60,3.0,3,4.614348119289121e-14
4.075,0.0018793744894085216,77.5000000000011,0,60,3.0,3,2.5746725013424807e-14
4.08,0.004535525206900863,77.50000000000061,0,60,3.0,3,1.4378041241263203e-14
4.085,0.010832767979632273,77.50000000000034,0,60,3.0,3,8.024953250937602e-15
4.09,0.024208003392322392,77.50000000000018,0,60,3.0,3,4.3468496775912015e-15
4.095,0.0500971897335304,77.5000000000001,0,60,3.0,3,2.3406113648568006e-15
4.1,0.09582894921774403,77.50000000000006,0,60,3.0,3,1.3374922084896003e-15
4.105,0.16937896721820658,77.50000000000003,0,60,3.0,3,6.687461042448002e-16
4.11,0.27661303008991756,77.50000000000001,0,60,3.0,3,3.343730521224001e-16
4.115,0.4173782800009149,77.50000000000001,0,60,3.0,3,3.343730521224001e-16
4.12,0.5818720934538056,77.5,0,60,3.0,3,0.0
4.125,0.7494718801585675,77.5,0,60,3.0,3,0.0
4.13,0.891813020752378,77.5,0,60,3.0,3,0.0
4.135,0.9800361632936612,77.5,0,60,3.0,3,0.0
4.14,0.993574479225126,77.50000249379623,1,60,3.0,3,5.8677558372972485e-08
4.145,0.9263438449375362,77.50000387113866,0,60,3.0,3,9.108561551543329e-08
4.15,0.7873015962290536,77.50000614495686,0,60,3.0,3,1.44587220146979e-07
4.155,0.5959516244629897,77.50001009206693,0,60,3.0,3,2.3746039834590835e-07
4.16,0.376910120078773,77.5000173369902,0,60,3.0,3,4.079291811114458e-07
4.165,0.15739335672107918,77.50003134163862,0,60,3.0,3,7.37450320417231e-07
4.17,-0.033361226269301235,77.50005950089377,0,60,3.0,3,1.4000210298678105e-06
4.175,-0.1680180840843834,77.50011746182723,0,60,3.0,3,2.7638076995331443e-06
4.18,-0.23069703190837854,77.50023776471434,0,60,3.0,3,5.594463866868062e-06
4.185,-0.22587267821131068,77.50048658883156,0,60,3.0,3,1.1449148977964583e-05
4.19,-0.17718181630665902,77.50099513789219,0,60,3.0,3,2.341500922799402e-05
4.195,-0.11494332516451301,77.50201644570332,0,60,3.0,3,4.744578125456321e-05
4.2,-0.061810214049552864,77.50402451354624,0,60,3.0,3,9.469443638214911e-05
4.205,-0.026546104631500547,77.50788085207563,0,60,3.0,3,0.00018543181354422868
4.21,-0.00719600351942686,77.51510323642296,0,60,3.0,3,0.0003553702687755129
4.215,0.0022072757983807078,77.52828124048683,0,60,3.0,3,0.0006654409526313831
4.22,0.006917199873730717,77.55168968563063,0,60,3.0,3,0.001216227897191402
4.225,0.01004859748264829,77.59214923171803,0,60,3.0,3,0.002168217216894712
4.23,0.013037082251128167,77.66016563836381,0,60,3.0,3,0.0037686032556189944
4.235,0.01645163937690478,77.77133735087011,0,60,3.0,3,0.006384408255767352
4.24,0.020526639934696615,77.94794785355886,0,60,3.0,3,0.01053994949550255
4.245,0.02539629541761738,78.22055245920677,0,60,3.0,3,0.01695417551074757
4.25,0.031171612185577933,78.62923630281921,0,60,3.0,3,0.02657026594868726
4.255,0.03795853426638131,79.22408280415199,0,60,3.0,3,0.040566654215340954
4.26,0.0458588961882057,80.06428738171843,0,60,3.0,3,0.06033617368749246
4.265,0.054966995891435555,81.21533054261677,0,60,3.0,3,0.0874195421792181
4.27,0.06536491004445595,82.74374175486754,0,60,3.0,3,0.12338215893805983
4.275,0.07711726085088699,84.70928122426405,0,60,3.0,3,0.16963014645327168
4.28,0.09026570629555215,87.1548465652038,0,60,3.0,3,0.2271728603577364
4.285,0.10482339848670268,90.09502724164179,0,60,3.0,3,0.29635358215627733
4.29,0.12076968927580028,93.50487114298438,0,60,3.0,3,0.3765852033643385
4.295,0.13804539501007884,97.31093238205123,0,60,3.0,3,0.46613958546002904
4.3,0.15654895051787066,101.38685595826713,0,60,3.0,3,0.5620436696062855
4.305,0.17613378141900526,105.55547445391579,0,60,3.0,3,0.6601288106803715
4.31,0.19660720058055794,109.59858538401849,0,60,3.0,3,0.755260832565141
4.315,0.21773108748496234,113.27431955233847,0,60,3.0,3,0.8417486953491404
4.32,0.23922453870058807,116.34051861380365,0,60,3.0,3,0.9138945556189094
4.325,0.2607685857914563,118.58114006736284,0,60,3.0,3,0.9666150604085374
4.33,0.2820129681603682,119.8317565853096,0,60,3.0,3,0.9960413314190495
4.335,0.30258482867153996,120.0,0,60,3.0,3,1.0
4.34,0.3220990771751686,119.07744164457799,0,60,3.0,3,0.9782927445783056
4.345,0.3401700499968971,117.14080910839245,0,60,3.0,3,0.9327249201974693
4.35,0.3564239911198326,114.34232070302158,0,60,3.0,3,0.8668781341887432
4.355,0.3705118017738417,110.89084986176812,0,60,3.0,3,0.7856670555710146
4.36,0.3821214567925213,107.02717543587835,0,60,3.0,3,0.6947570690794905
4.365,0.39098947374066967,102.99739961797562,0,60,3.0,3,0.5999388145406027
4.37,0.3969108472035567,99.02858404930407,0,60,3.0,3,0.5065549188071546
4.375,0.3997469255491936,95.309845089302,0,60,3.0,3,0.4190551785718118
4.38,0.3994308076379137,91.98081845212747,0,60,3.0,3,0.340725140050058
4.385,0.3959699661768434,89.12790132529386,0,60,3.0,3,0.27359767824220854
4.39,0.38944595408114946,86.78734731342963,0,60,3.0,3,0.21852581913952082
4.395,0.38001120995358023,84.9533724015562,0,60,3.0,3,0.17537346827191044
4.4,0.3678831374098315,83.58903512890868,0,60,3.0,3,0.14327141479785122
4.405,0.35333577933796634,82.63774874869135,0,60,3.0,3,0.1208882058515612
4.41,0.33668953221163944,82.0337334377467,0,60,3.0,3,0.10667608088815775
4.415,0.3182994390982644,81.71034347243264,0,60,3.0,3,0.09906690523370919
4.42,0.29854265738230645,81.60583753471548,0,60,3.0,3,0.09660794199330533
4.425,0.2778057157821067,81.66667643687869,0,60,3.0,3,0.0980394455736162
4.43,0.2564721553719815,81.84876988678565,0,60,3.0,3,0.10232399733613286
4.435,0.23491109433464996,82.11724772973115,0,60,3.0,3,0.10864112305249758
4.44,0.21346717185309805,82.44533609838746,0,60,3.0,3,0.11636084937382253
4.445,0.19245222055656455,82.81282786982345,0,60,3.0,3,0.1250077145840812
4.45,0.17213889801761392,83.2045024139376,0,60,3.0,3,0.13422358621029656
4.455,0.15275638501270183,83.60871282730876,0,60,3.0,3,0.14373441946608856
4.46,0.13448814019607322,84.01624472320185,0,60,3.0,3,0.15332340525180826
4.465,0.11747159495449566,84.41946941505593,0,60,3.0,3,0.1628110450601395
4.47,0.10179958433370105,84.81176549258696,0,60,3.0,3,0.17204154100204605
4.475,0.08752324394101413,85.18715992974894,0,60,3.0,3,0.18087435128821044
4.48,0.07465606047174059,85.54013465057005,0,60,3.0,3,0.18917963883694242
4.485,0.0631787448609295,85.86554926666517,0,60,3.0,3,0.1968364533332981
4.49,0.05304460019959574,86.1586397512219,0,60,3.0,3,0.20373270002875055
4.495,0.044185078305849994,86.41506250951961,0,60,3.0,3,0.20976617669457917
4.5,0.03651525513023255,86.6309617919093,0,60,3.0,3,0.2148461598096306
4.505,0.0299390014708757,86.80304503126104,0,60,3.0,3,0.21889517720614202
4.51,0.024353677220580638,86.92865552465399,0,60,3.0,3,0.22185071822715272
4.515,0.01965423034339045,87.00583527328615,0,60,3.0,3,0.22366671231261534
4.52,0.015736632374757337,87.03337316307264,0,60,3.0,3,0.22431466266053268
4.525,0.012500627640593535,87.01083537210316,0,60,3.0,3,0.22378436169654492
4.53,0.009851811652115898,86.938576193165,0,60,3.0,3,0.22208414572152954
4.535,0.007703084175428559,86.81772852740197,0,60,3.0,3,0.2192406712329875
4.54,0.005975544002062424,86.65017423074696,0,60,3.0,3,0.21529821719404602
4.545,0.004598905818663047,86.43849531771997,0,60,3.0,3,0.2103175368875287
4.55,0.0035115256454839104,86.18590775527554,0,60,3.0,3,0.20437430012413027
4.555,0.002660121266303676,85.8961802035904,0,60,3.0,3,0.19755718126095068
4.56,0.0019992692560877024,85.57354056557351,0,60,3.0,3,0.1899656603664355
4.565,0.0014907520044639367,85.22257357723743,0,60,3.0,3,0.1817076135820571
4.57,0.0011028178277539807,84.84811289585821,0,60,3.0,3,0.17289677402019313
4.575,0.0008094059938923333,84.4551312173353,0,60,3.0,3,0.16365014629024252
4.58,0.0005893771793717645,84.04863188079896,0,60,3.0,3,0.15408545601879917
4.585,0.0004257792353490551,83.63354520691325,0,60,3.0,3,0.1443187107509001
4.59,0.0003051686392901525,83.21463248261027,0,60,3.0,3,0.13446194076730048
4.595,0.00021699992642659966,82.79640007066425,0,60,3.0,3,0.12462117813327642
4.6,0.00015308884054097838,82.38302561301214,0,60,3.0,3,0.11489472030616793
4.605,0.00010714989329311098,81.97829773979932,0,60,3.0,3,0.1053717115246898
4.61,7.440535854020571e-05,81.58557012016932,0,60,3.0,3,0.09613106165104288
4.615,5.1260276743925106e-05,81.20773012323724,0,60,3.0,3,0.08724070878205271
4.62,3.503659887882241e-05,80.84718182348887,0,60,3.0,3,0.07875721937620864
4.625,2.375894748103639e-05,80.50584260541186,0,60,3.0,3,0.07072570836263192
4.63,1.5984413869232557e-05,80.18515221437653,0,60,3.0,3,0.06318005210297717
4.635,1.0669166579899869e-05,79.88609277648273,0,60,3.0,3,0.05614335944665239
4.64,7.06526633560511e-06,79.60921807587849,0,60,3.0,3,0.0496286606089056
4.645,4.641847214699205e-06,79.35469023543456,0,60,3.0,3,0.04363977024551907
4.65,3.025641074479182e-06,79.12232189244838,0,60,3.0,3,0.03817227982231489
4.655,1.9566278676921314e-06,78.91162198804986,0,60,3.0,3,0.03321463501293786
4.66,1.2553456560008793e-06,78.72184338679695,0,60,3.0,3,0.02874925615992819
4.665,7.990660428214668e-07,78.55203069891354,0,60,3.0,3,0.024753663503848014
4.67,5.046221251618276e-07,78.4010668777479,0,60,3.0,3,0.021201573594068095
4.675,3.1616527078858815e-07,78.2677173949188,0,60,3.0,3,0.018063938703971872
4.68,1.9652884407760343e-07,78.15067104128426,0,60,3.0,3,0.015309906853747179
4.685,1.2120002189836396e-07,78.04857665043636,0,60,3.0,3,0.012907685892620226
4.69,7.415549848886236e-08,77.96007528166045,0,60,3.0,3,0.010825300744951792
4.695,4.501406988770349e-08,77.88382762196936,0,60,3.0,3,0.009031238163984934
4.7,0.0,77.81853656491259,0,60,3.0,3,0.007494977997943325
4.705,0.0,77.76296509259281,0,60,3.0,3,0.006187413943360177
4.71,0.0,77.71594972407637,0,60,3.0,3,0.005081169978267459
4.715,0.0,77.6764098974902,0,60,3.0,3,0.004150821117416533
4.72,0.0,77.64335372555104,0,60,3.0,3,0.003373028836494996
4.725,0.0,77.61588060740796,0,60,3.0,3,0.0027266025272461
4.73,0.0,77.59318119681424,0,60,3.0,3,0.002192498748570415
4.735,0.0,77.5745352217389,0,60,3.0,3,0.001753769923268197
4.74,0.0,77.55930762785665,0,60,3.0,3,0.0013954735966271582
4.745,0.0,77.54694348223622,0,60,3.0,3,0.001104552523205083
4.75,0.0,77.53696202809876,0,60,3.0,3,0.0008696947787942623
4.755,0.0,77.52895023050213,0,60,3.0,3,0.0006811818941678345
4.76,0.0,77.52255609948452,0,60,3.0,3,0.0005307317525768988
4.765,0.0,77.5174820242859,0,60,3.0,3,0.0004113417479034604
4.77,0.0,77.51347830188524,0,60,3.0,3,0.0003171365149468971
4.775,0.0,77.51033699680363,0,60,3.0,3,0.00024322345420306889
4.78,0.0,77.50788622796446,0,60,3.0,3,0.00018555830504617596
4.785,0.0,77.50598494293993,0,60,3.0,3,0.00014082218682193236
4.79,0.0,77.50451821032726,0,60,3.0,3,0.00010631083122970107
4.795,0.0,77.50339303715964,0,60,3.0,3,7.983616846211268e-05
4.8,0.0,77.50253469979884,0,60,3.0,3,5.963999526690767e-05
4.805,0.0,77.50188356315793,0,60,3.0,3,4.431913312781516e-05
4.81,0.0,77.5013923537419,0,60,3.0,3,3.276126451543646e-05
4.815,0.0,77.501023846212,0,60,3.0,3,2.4090499105715722e-05
4.82,0.0,77.50074892031576,0,60,3.0,4,1.7621654488413484e-05
4.825,0.0,77.5005449444552,0,60,3.0,4,1.2822222475292353e-05
4.83,0.0,77.50039444332097,0,60,3.0,4,9.281019316965873e-06
4.835,0.0,77.50028400940215,0,60,3.0,4,6.682574168253803e-06
4.84,0.0,77.5002034213682,0,60,3.0,4,4.786385134072107e-06
4.845,0.0,77.50014493596511,0,60,3.0,4,3.410258002598793e-06
4.85,0.0,77.50010272390129,0,60,3.0,4,2.417032971593739e-06
4.855,0.0,77.50007242401301,0,60,3.0,4,1.704094423824726e-06
4.86,0.0,77.50005079364838,0,60,3.0,4,1.1951446678642029e-06
4.865,0.0,77.50003543659405,0,60,3.0,4,8.338022128635417e-07
4.87,0.0,77.50002459293042,0,60,3.0,4,5.786571862512681e-07
4.875,0.0,77.50001697791406,0,60,3.0,4,3.994803307705297e-07
4.88,0.001684486749771458,77.5000116593442,0,60,3.0,4,2.7433751049155786e-07
4.885,0.003097557930867117,77.50000796488771,0,60,3.0,4,1.874091226989763e-07
4.89,0.005475106668887023,77.5000054125377,0,60,3.0,4,1.2735382831445296e-07
4.895,0.00930222931468658,77.50000365879397,0,60,3.0,4,8.608926992458103e-08
4.9,0.01519157517868857,77.50000246031502,0,60,3.0,4,5.7889765096607495e-08
4.905,0.023847336626128316,77.50000164573241,0,60,3.0,4,3.8723115548076324e-08
4.91,0.0359830743700859,77.500001095074,0,60,3.0,4,2.5766447004785092e-08
4.915,0.05218887796857759,77.50000072484218,0,60,3.0,4,1.7055110139849337e-08
4.92,0.0727577001223134,77.50000047726456,0,60,3.0,4,1.1229754443989162e-08
4.925,0.0974992498694751,77.50000031260122,0,60,3.0,4,7.355322729969938e-09
4.93,0.12558706050443358,77.50000020367507,0,60,3.0,4,4.79235462294395e-09
4.935,0.15549263588878245,77.50000013200818,0,60,3.0,4,3.106074874428005e-09
4.94,0.1850529723539114,77.50000008510979,0,60,3.0,4,2.0025832809016505e-09
4.945,0.21169159439317053,77.50000005458509,0,60,3.0,4,1.284354980538517e-09
4.95,0.23277292922115492,77.50000003482444,0,60,3.0,4,8.193985516246518e-10
4.955,0.24602692519491282,77.5000000221009,0,60,3.0,4,5.200213175104342e-10
4.96,0.24995056064839283,77.50000001395249,0,60,3.0,4,3.2829381566176274e-10
4.965,0.24408826520424054,77.50000000876211,0,60,3.0,4,2.0616740210457733e-10
4.97,0.22911894216865275,77.50000000547372,0,60,3.0,4,1.2879347784345396e-10
4.975,0.20672661788705934,77.50000000340151,0,60,3.0,4,8.003553375601768e-11
4.98,0.17928878030241233,77.5000000021027,0,60,3.0,4,4.9475174284238806e-11
4.985,0.14946211903866036,77.50000000129299,0,60,3.0,4,3.0423266520408696e-11
4.99,0.1197651512573837,77.50000000079092,0,60,3.0,4,1.86098665889243e-11
4.995,0.09224675744988023,77.50000000048126,0,60,3.0,4,1.1323877783177202e-11
5.0,0.06829565320281596,77.50000000029131,0,60,3.0,4,6.854313195457079e-12
5.005,0.04860224607515734,77.5000000001754,0,60,3.0,4,4.1271665823467845e-12
5.01,0.03324612389699793,77.50000000010506,0,60,3.0,4,2.4720199743409036e-12
5.015,0.021859876340472782,77.5000000000626,0,60,3.0,4,1.4729132945991723e-12
5.02,0.01381595518554205,77.5000000000371,0,60,3.0,4,8.730480390915867e-13
5.025,0.008394095110402422,77.50000000002187,0,60,3.0,4,5.146001272163737e-13
5.03,0.0049052535271608,77.50000000001283,0,60,3.0,4,3.0193886606652727e-13
5.035,0.0027671663551903634,77.50000000000749,0,60,3.0,4,1.7621459846850485e-13
5.04,0.0015425553464444616,77.50000000000435,0,60,3.0,4,1.0231815394945443e-13
5.045,0.0009638206637011801,77.5000000000025,0,60,3.0,4,5.884965717354242e-14
5.05,0.0009804935156568228,77.50000000000144,0,60,3.0,4,3.377167826436241e-14
5.055,0.0018793744894085216,77.50000000000082,0,60,3.0,4,1.9393637023099206e-14
5.06,0.004535525206900863,77.50000000000047,0,60,3.0,4,1.1034310720039203e-14
5.065,0.010832767979632273,77.50000000000027,0,60,3.0,4,6.353087990325602e-15
5.07,0.024208003392322392,77.50000000000014,0,60,3.0,4,3.343730521224001e-15
5.075,0.0500971897335304,77.50000000000009,0,60,3.0,4,2.0062383127344005e-15
5.08,0.09582894921774403,77.50000000000004,0,60,3.0,4,1.0031191563672002e-15
5.085,0.16937896721820658,77.50000000000003,0,60,3.0,4,6.687461042448002e-16
5.09,0.27661303008991756,77.50000000000001,0,60,3.0,4,3.343730521224001e-16
5.095,0.4173782800009149,77.5,0,60,3.0,4,0.0
5.1,0.5818720934538056,77.5,0,60,3.0,4,0.0
5.105,0.7494718801585675,77.5,0,60,3.0,4,0.0
5.11,0.891813020752378,77.5,0,60,3.0,4,0.0
5.115,0.9800361632936612,77.5,0,60,3.0,4,0.0
5.12,0.993574479225126,77.50000249206059,1,60,3.0,4,5.8636719720251515e-08
5.125,0.9263438449375362,77.50000388649308,0,60,3.0,4,9.144689590143303e-08
5.13,0.7873015962290536,77.50000620174501,0,60,3.0,4,1.4592341197866892e-07
5.135,0.5959516244629897,77.50001024868433,0,60,3.0,4,2.411455137221577e-07
5.14,0.376910120078773,77.50001773713392,0,60,3.0,4,4.1734432744199103e-07
5.145,0.15739335672107918,77.50003234050088,0,60,3.0,4,7.609529618816047e-07
5.15,-0.033361226269301235,77.50006196542242,0,60,3.0,4,1.4580099392493568e-06
5.155,-0.1680180840843834,77.50012345839556,0,60,3.0,4,2.9049034250259437e-06
5.16,-0.23069703190837854,77.50025207253846,0,60,3.0,4,5.93111855196452e-06
5.165,-0.22587267821131068,77.50051989833095,0,60,3.0,4,1.2232901904700852e-05
5.17,-0.17718181630665902,77.50107053879677,0,60,3.0,4,2.5189148159236486e-05
5.175,-0.11494332516451301,77.50218205581817,0,60,3.0,4,5.134248983923124e-05
5.18,-0.061810214049552864,77.50437705138005,0,60,3.0,4,0.00010298944423639382
5.185,-0.026546104631500547,77.50860779491533,0,60,3.0,4,0.00020253635094905697
5.19,-0.00719600351942686,77.5165549676137,0,60,3.0,4,0.00038952864973412836
5.195,0.0022072757983807078,77.53108897869964,0,60,3.0,4,0.0007315053811680627
5.2,0.006917199873730717,77.55694911283238,0,60,3.0,4,0.0013399791254678748
5.205,0.01004859748264829,77.60169183598806,0,60,3.0,4,0.0023927490820720805
5.21,0.013037082251128167,77.67693707547176,0,60,3.0,4,0.0041632253052177794
5.215,0.01645163937690478,77.7998909378598,0,60,3.0,4,0.0070562573614070595
5.22,0.020526639934696615,77.99503777956711,0,60,3.0,4,0.011647947754520306
5.225,0.02539629541761738,78.29577278054447,0,60,3.0,4,0.01872406542457571
5.23,0.031171612185577933,78.74559890656192,0,60,3.0,4,0.029308209566162906
5.235,0.03795853426638131,79.39836652237483,0,60,3.0,4,0.04466744758529009
5.24,0.0458588961882057,80.3169349302758,0,60,3.0,4,0.0662808218888425
5.245,0.054966995891435555,81.56964085920548,0,60,3.0,4,0.09575625551071713
5.25,0.06536491004445595,83.22412774219025,0,60,3.0,4,0.13468535863977055
5.255,0.07711726085088699,85.33845947360807,0,60,3.0,4,0.18443434055548397
5.26,0.09026570629555215,87.95000681664004,0,60,3.0,4,0.24588251333270686
5.265,0.10482339848670268,91.06328339863445,0,60,3.0,4,0.3191360799678695
5.27,0.12076968927580028,94.63858211835603,0,60,3.0,4,0.40326075572602416
5.275,0.13804539501007884,98.5837320054619,0,60,3.0,4,0.4960878118932211
5.28,0.15654895051787066,102.75136341377669,0,60,3.0,4,0.5941497273829809
5.285,0.17613378141900526,106.94359409913197,0,60,3.0,4,0.6927904493913405
5.29,0.19660720058055794,110.92500582405262,0,60,3.0,4,0.7864707252718264
5.295,0.21773108748496234,114.44330342499879,0,60,3.0,4,0.8692541982352656
5.3,0.23922453870058807,117.25542188596262,0,60,3.0,4,0.9354216914344146
5.305,0.2607685857914563,119.15545481965574,0,60,3.0,4,0.9801283486977822
5.31,0.2820129681603682,120.0,0,60,3.0,4,1.0
5.315,0.30258482867153996,119.72661680769721,0,60,3.0,4,0.9935674542987579
5.32,0.3220990771751686,118.36212003966133,0,60,3.0,4,0.9614616479920314
5.325,0.3401700499968971,116.0192046826335,0,60,3.0,4,0.9063342278266706
5.33,0.3564239911198326,112.88201428084409,0,60,3.0,4,0.8325179830786844
5.335,0.3705118017738417,109.18324133098602,0,60,3.0,4,0.7454880313173181
5.34,0.3821214567925213,105.17673159742563,0,60,3.0,4,0.6512172140570737
5.345,0.39098947374066967,101.1100694710858,0,60,3.0,4,0.5555310463784893
5.35,0.3969108472035567,97.20119773854125,0,60,3.0,4,0.46355759384802947
5.355,0.3997469255491936,93.62195394509827,0,60,3.0,4,0.37934009282584163
5.36,0.3994308076379137,90.48983035382798,0,60,3.0,4,0.3056430671488937
5.365,0.3959699661768434,87.86768093596174,0,60,3.0,4,0.24394543378733516
5.37,0.38944595408114946,85.76984429058865,0,60,3.0,4,0.19458457154326236
5.375,0.38001120995358023,84.17242779702583,0,60,3.0,4,0.15699830110649018
5.38,0.3678831374098315,83.02534578800257,0,60,3.0,4,0.1300081361882957
5.385,0.35333577933796634,82.26402464586049,0,60,3.0,4,0.11209469754965853
5.39,0.33668953221163944,81.8192991437891,0,60,3.0,4,0.10163056808915519
5.395,0.3182994390982644,81.62472762003841,0,60,3.0,4,0.09705241458913914
5.4,0.29854265738230645,81.62118407871675,0,60,3.0,4,0.09696903714627651
5.405,0.2778057157821067,81.75904264873614,0,60,3.0,4,0.10021276820555626
5.41,0.2564721553719815,81.9985219925281,0,60,3.0,4,0.10584757629477876
5.415,0.23491109433464996,82.30882611113378,0,60,3.0,4,0.11314884967373606
5.42,0.21346717185309805,82.66665602002601,0,60,3.0,4,0.12156837694178849
5.425,0.19245222055656455,83.05453424588724,0,60,3.0,4,0.13069492343264094
5.43,0.17213889801761392,83.45923266320771,0,60,3.0,4,0.14021723913429918
5.435,0.15275638501270183,83.87045877227034,0,60,3.0,4,0.1498931475828315
5.44,0.13448814019607322,84.2798534333411,0,60,3.0,4,0.15952596313743772
5.445,0.11747159495449566,84.68028767641711,0,60,3.0,4,0.16894794532746138
5.45,0.10179958433370105,85.06541226325399,0,60,3.0,4,0.1780097003118586
5.455,0.08752324394101413,85.42940233018484,0,60,3.0,4,0.18657417247493746
5.46,0.07465606047174059,85.76684174356433,0,60,3.0,4,0.19451392337798418
5.465,0.0631787448609295,86.07270061918209,0,60,3.0,4,0.20171060280428438
5.47,0.05304460019959574,86.34237003707361,0,60,3.0,4,0.20805576557820252
5.475,0.044185078305849994,86.57172770912837,0,60,3.0,4,0.21345241668537335
5.48,0.03651525513023255,86.75721616923929,0,60,3.0,4,0.21781685104092435
5.485,0.0299390014708757,86.89592083331073,0,60,3.0,4,0.2210804901955465
5.49,0.024353677220580638,86.98563934776703,0,60,3.0,4,0.22319151406510668
5.495,0.01965423034339045,87.02493647066403,0,60,3.0,4,0.22411615225091838
5.5,0.015736632374757337,87.01318073228062,0,60,3.0,4,0.22383954664189687
5.505,0.012500627640593535,86.95056062220486,0,60,3.0,4,0.2223661322871732
5.51,0.009851811652115898,86.83807925732597,0,60,3.0,4,0.2197195119370817
5.515,0.007703084175428559,86.67752751899921,0,60,3.0,4,0.21594182397645206
5.52,0.005975544002062424,86.47143656288762,0,60,3.0,4,0.21109262500912043
5.525,0.004598905818663047,86.22301141626089,0,60,3.0,4,0.20524732744143268
5.53,0.0035115256454839104,85.9360480776319,0,60,3.0,4,0.19849524888545636
5.535,0.002660121266303676,85.61483710619105,0,60,3.0,4,0.19093734367508344
5.54,0.0019992692560877024,85.26405711630112,0,60,3.0,4,0.18268369685414393
5.545,0.0014907520044639367,84.88866186212869,0,60,3.0,4,0.17385086734420438
5.55,0.0011028178277539807,84.49376470286529,0,60,3.0,4,0.16455916947918334
5.555,0.0008094059938923333,84.08452418143106,0,60,3.0,4,0.15492998073955444
5.56,0.0005893771793717645,83.66603423862483,0,60,3.0,4,0.1450831585558784
5.565,0.0004257792353490551,83.24322223736209,0,60,3.0,4,0.135134640879108
5.57,0.0003051686392901525,82.82075751109831,0,60,3.0,4,0.1251942943787837
5.575,0.00021699992642659966,82.40297260454615,0,60,3.0,4,0.11536406128343883
5.58,0.00015308884054097838,81.9937987739174,0,60,3.0,4,0.10573644173923305
5.585,0.00010714989329311098,81.5967166896027,0,60,3.0,4,0.09639333387300472
5.59,7.440535854020571e-05,81.21472266694637,0,60,3.0,4,0.08740523922226758
5.595,5.1260276743925106e-05,80.85031016848625,0,60,3.0,4,0.07883082749379401
5.6,3.503659887882241e-05,80.50546579764779,0,60,3.0,4,0.07071684229759499
5.605,2.375894748103639e-05,80.18167855835483,0,60,3.0,4,0.0630983190201137
5.61,1.5984413869232557e-05,79.87996080067171,0,60,3.0,4,0.055999077662863786
5.615,1.0669166579899869e-05,79.60087901688703,0,60,3.0,4,0.049432447456165526
5.62,7.06526633560511e-06,79.34459249714048,0,60,3.0,4,0.04340217640330546
5.625,4.641847214699205e-06,79.1108977952886,0,60,3.0,4,0.037903477536202206
5.63,3.025641074479182e-06,78.8992769862145,0,60,3.0,4,0.032924164381517705
5.635,1.9566278676921314e-06,78.70894780365752,0,60,3.0,4,0.028445830674294657
5.64,1.2553456560008793e-06,78.53891391879662,0,60,3.0,4,0.024445033383449968
5.645,7.990660428214668e-07,78.38801383874541,0,60,3.0,4,0.02089444326459784
5.65,5.046221251618276e-07,78.25496715486534,0,60,3.0,4,0.017763933055655077
5.655,3.1616527078858815e-07,78.13841713794321,0,60,3.0,4,0.015021579716310766
5.66,1.9652884407760343e-07,78.03696894665431,0,60,3.0,4,0.012634563450689699
5.665,1.2120002189836396e-07,77.94922297505981,0,60,3.0,4,0.010569952354348502
5.67,7.415549848886236e-08,77.8738031041554,0,60,3.0,4,0.008795367156597636
5.675,4.501406988770349e-08,77.8093798341656,0,60,3.0,4,0.007279525509778751
5.68,0.0,77.75468845334072,0,60,3.0,4,0.005992669490369869
5.685,0.0,77.7085425428285,0,60,3.0,4,0.004906883360670503
5.69,0.0,77.6698432252712,0,60,3.0,4,0.003996311182851621
5.695,0.0,77.63758463845281,0,60,3.0,4,0.0032372856106542927
5.7,0.0,77.6108561573609,0,60,3.0,4,0.002608380173197635
5.705,0.0,77.5888419022451,0,60,3.0,4,0.002090397699884547
5.71,0.0,77.5708180611178,0,60,3.0,4,0.0016663073204189432
5.715,0.0,77.55614852741415,0,60,3.0,4,0.0013211418215094534
5.72,0.0,77.54427931196614,0,60,3.0,4,0.001041866163909082
5.725,0.0,77.53473213754465,0,60,3.0,4,0.000817226765756499
5.73,0.0,77.52709756803894,0,60,3.0,4,0.0006375898362103485
5.735,0.0,77.52102796635984,0,60,3.0,4,0.0004947756790550236
5.74,0.0,77.5162305182252,0,60,3.0,4,0.0003818945464752901
5.745,0.0,77.51246050531307,0,60,3.0,4,0.0002931883603075809
5.75,0.0,77.50951496242737,0,60,3.0,4,0.00022388146887939966
5.755,0.0,77.50722681031257,0,60,3.0,4,0.0001700425955899685
5.76,0.0,77.50545951908494,0,60,3.0,4,0.00012845927258675093
5.765,0.0,77.50410232700878,0,60,3.0,4,9.652534138307173e-05
5.77,0.0,77.50306601530963,0,60,3.0,4,7.214153669712473e-05
5.775,0.0,77.50227922141525,0,60,3.0,4,5.362873918235945e-05
5.78,0.0,77.50168525983179,0,60,3.0,4,3.965317251266456e-05
5.785,0.0,77.50123941108798,0,60,3.0,4,2.916261383481523e-05
5.79,0.0,77.50090663407934,0,60,3.0,4,2.1332566572763266e-05
5.795,0.0,77.5006596549978,0,60,3.0,4,1.5521294065980756e-05
5.8,0.0,77.50047738616604,0,60,3.0,4,1.1232615671521189e-05
5.805,0.0,77.50034362990894,0,60,3.0,4,8.085409622120043e-06
5.81,0.0,77.50024602556587,0,60,3.0,4,5.788836844043116e-06
5.815,0.0,77.50017520144215,0,60,3.0,4,4.122386874047044e-06
5.82,0.0,77.50012409756755,0,60,3.0,4,2.919942765883581e-06
5.825,0.0,77.500087429303,0,60,3.0,4,2.057160070441622e-06
5.83,0.0,77.50006126591418,0,60,3.0,4,1.4415509219682409e-06
5.835,0.0,77.50004270207464,0,60,3.0,4,1.004754697345668e-06
5.84,0.0,77.50002960378131,0,60,3.0,4,6.96559560337311e-07
5.845,0.0,77.5000204133158,0,60,3.0,4,4.803133128247924e-07
5.85,0.001684486749771458,77.50001400064605,0,60,3.0,4,3.294269658106393e-07
5.855,0.003097557930867117,77.50000955104196,0,60,3.0,4,2.247303989540395e-07
5.86,0.005475106668887023,77.50000648069503,0,60,3.0,4,1.5248694199619744e-07
5.865,0.00930222931468658,77.50000437381664,0,60,3.0,4,1.0291333263226346e-07
5.87,0.01519157517868857,77.50000293607884,0,60,3.0,4,6.908420807442727e-08
5.875,0.023847336626128316,77.5000019603924,0,60,3.0,4,4.6126879905226385e-08
5.88,0.0359830743700859,77.50000130192649,0,60,3.0,4,3.063356443282614e-08
5.885,0.05218887796857759,77.50000085999925,0,60,3.0,4,2.0235276398285778e-08
5.89,0.0727577001223134,77.50000056503822,0,60,3.0,4,1.3295016956630313e-08
5.895,0.0974992498694751,77.50000036925445,0,60,3.0,4,8.688340023902984e-09
5.9,0.12558706050443358,77.5000002400169,0,60,3.0,4,5.6474565259550755e-09
5.905,0.15549263588878245,77.50000015517654,0,60,3.0,4,3.6512126237486133e-09
5.91,0.1850529723539114,77.50000009978802,0,60,3.0,4,2.347953528335304e-09
5.915,0.21169159439317053,77.50000006382619,0,60,3.0,4,1.5017927607379319e-09
5.92,0.23277292922115492,77.50000004060576,0,60,3.0,4,9.55429534181295e-10
5.925,0.24602692519491282,77.50000002569476,0,60,3.0,4,6.045825905269286e-10
5.93,0.24995056064839283,77.50000001617221,0,60,3.0,4,3.805225520302295e-10
5.935,0.24408826520424054,77.50000001012424,0,60,3.0,4,2.382173935235615e-10
5.94,0.22911894216865275,77.5000000063041,0,60,3.0,4,1.4833189839812215e-10
5.945,0.20672661788705934,77.50000000390439,0,60,3.0,4,9.186799295147306e-11
5.95,0.17928878030241233,77.5000000024052,0,60,3.0,4,5.659297344476834e-11
5.955,0.14946211903866036,77.50000000147372,0,60,3.0,4,3.467582299730138e-11
5.96,0.1197651512573837,77.50000000089815,0,60,3.0,4,2.113304564023993e-11
5.965,0.09224675744988023,77.50000000054445,0,60,3.0,4,1.2810500372913393e-11
5.97,0.06829565320281596,77.50000000032826,0,60,3.0,4,7.72368313097532e-12
5.975,0.04860224607515734,77.50000000019686,0,60,3.0,4,4.632069891051608e-12
5.98,0.03324612389699793,77.50000000011742,0,60,3.0,4,2.762924529687392e-12
5.985,0.021859876340472782,77.50000000006968,0,60,3.0,4,1.6394310745561276e-12
5.99,0.01381595518554205,77.50000000004111,0,60,3.0,4,9.673412397901036e-13
5.995,0.008394095110402422,77.50000000002413,0,60,3.0,4,5.677654425038354e-13
6.0,0.0049052535271608,77.50000000001408,0,60,3.0,4,3.3136369465329847e-13
6.005,0.0027671663551903634,77.50000000000819,0,60,3.0,4,1.9259887802250245e-13
6.01,0.0015425553464444616,77.50000000000472,0,60,3.0,4,1.1101185330463683e-13
6.015,0.0009638206637011801,77.50000000000271,0,60,3.0,4,6.386525295537842e-14
6.02,0.0009804935156568228,77.50000000000155,0,60,3.0,4,3.644666268134161e-14
6.025,0.0018793744894085216,77.50000000000088,0,60,3.0,5,2.0731129231588804e-14
6.03,0.004535525206900863,77.5000000000005,0,60,3.0,5,1.1703056824284003e-14
6.035,0.010832767979632273,77.50000000000028,0,60,3.0,5,6.687461042448002e-15
6.04,0.024208003392322392,77.50000000000016,0,60,3.0,5,3.678103573346401e-15
6.045,0.0500971897335304,77.50000000000009,0,60,3.0,5,2.0062383127344005e-15
6.05,0.09582894921774403,77.50000000000004,0,60,3.0,5,1.0031191563672002e-15
6.055,0.16937896721820658,77.50000000000003,0,60,3.0,5,6.687461042448002e-16
6.06,0.27661303008991756,77.50000000000001,0,60,3.0,5,3.343730521224001e-16
6.065,0.4173782800009149,77.50000000000001,0,60,3.0,5,3.343730521224001e-16
6.07,0.5818720934538056,77.5,0,60,3.0,5,0.0
6.075,0.7494718801585675,77.5,0,60,3.0,5,0.0
6.08,0.891813020752378,77.5,0,60,3.0,5,0.0
6.085,0.9800361632936612,77.5,0,60,3.0,5,0.0
6.09,0.993574479225126,77.50000249729354,1,60,3.0,5,5.875984791547286e-08
6.095,0.9263438449375362,77.50000393227262,0,60,3.0,5,9.25240616358197e-08
6.1,0.7873015962290536,77.50000634326607,0,60,3.0,5,1.4925331918354512e-07
6.105,0.5959516244629897,77.50001061853068,0,60,3.0,5,2.498477807180547e-07
6.11,0.376910120078773,77.50001866333935,0,60,3.0,5,4.391373963966651e-07
6.115,0.15739335672107918,77.5000346400049,0,60,3.0,5,8.150589387830277e-07
6.12,-0.033361226269301235,77.50006764856651,0,60,3.0,5,1.5917309767968726e-06
6.125,-0.1680180840843834,77.50013735562356,0,60,3.0,5,3.2318970250558136e-06
6.13,-0.23069703190837854,77.50028544051958,0,60,3.0,5,6.7162475194409665e-06
6.135,-0.22587267821131068,77.500598088742,0,60,3.0,5,1.4072676282239627e-05
6.14,-0.17718181630665902,77.5012486355544,0,60,3.0,5,2.9379660103626627e-05
6.145,-0.11494332516451301,77.50257543369767,0,60,3.0,5,6.0598439945218105e-05
6.15,-0.061810214049552864,77.50521857085394,0,60,3.0,5,0.00012278990244567466
6.155,-0.026546104631500547,77.51035022511448,0,60,3.0,5,0.0002435347085759745
6.16,-0.00719600351942686,77.52004622347734,0,60,3.0,5,0.00047167584652557334
6.165,0.0022072757983807078,77.53785797415782,0,60,3.0,5,0.0008907758625368575
6.17,0.006917199873730717,77.56964902320131,0,60,3.0,5,0.0016388005459131204
6.175,0.01004859748264829,77.62475069237783,0,60,3.0,5,0.0029353104088901253
6.18,0.013037082251128167,77.71745577339965,0,60,3.0,5,0.005116606432932927
6.185,0.01645163937690478,77.86879695371151,0,60,3.0,5,0.008677575381447282
6.19,0.020526639934696615,78.10844035963862,0,60,3.0,5,0.014316243756202846
6.195,0.02539629541761738,78.47636733926622,0,60,3.0,5,0.02297334915920514
6.2,0.031171612185577933,79.02383946781148,0,60,3.0,5,0.03585504630144669
6.205,0.03795853426638131,79.81298480498413,0,60,3.0,5,0.054423171881979426
6.21,0.0458588961882057,80.91427084037524,0,60,3.0,5,0.08033578447941736
6.215,0.054966995891435555,82.40121542205652,0,60,3.0,5,0.11532271581309467
6.22,0.06536491004445595,84.34199522017235,0,60,3.0,5,0.1609881228275847
6.225,0.07711726085088699,86.78816642223576,0,60,3.0,5,0.21854509228790026
6.23,0.09026570629555215,89.7614698877538,0,60,3.0,5,0.2885051738295013
6.235,0.10482339848670268,93.24052207061501,0,60,3.0,5,0.3703652251909415
6.24,0.12076968927580028,97.14988444916018,0,60,3.0,5,0.4623502223331808
6.245,0.13804539501007884,101.35431154880669,0,60,3.0,5,0.5612779187954515
6.25,0.15654895051787066,105.66068807456148,0,60,3.0,5,0.6626044252837995
6.255,0.17613378141900526,109.82918294110652,0,60,3.0,5,0.7606866574378005
6.26,0.19660720058055794,113.59355865930326,0,60,3.0,5,0.8492602037483119
6.265,0.21773108748496234,116.6886667904499,0,60,3.0,5,0.9220862774223506
6.27,0.23922453870058807,118.88137576601841,0,60,3.0,5,0.9736794297886684
6.275,0.2607685857914563,120.0,0,60,3.0,5,1.0
6.28,0.2820129681603682,119.95710897620492,0,60,3.0,5,0.9989907994401158
6.285,0.30258482867153996,118.7615370490011,0,60,3.0,5,0.9708596952706142
6.29,0.3220990771751686,116.51733188460247,0,60,3.0,5,0.9180548678729993
6.295,0.3401700499968971,113.40983908257753,0,60,3.0,5,0.844937390178295
6.3,0.3564239911198326,109.68153227755616,0,60,3.0,5,0.757212524177792
6.305,0.3705118017738417,105.60198566964596,0,60,3.0,5,0.6612231922269637
6.31,0.3821214567925213,101.4371540045614,0,60,3.0,5,0.5632271530485037
6.315,0.39098947374066967,97.422764291288,0,60,3.0,5,0.4687709245008942
6.32,0.3969108472035567,93.74532237651536,0,60,3.0,5,0.38224287944742025
6.325,0.3997469255491936,90.53240175874944,0,60,3.0,5,0.3066447472646928
6.33,0.3994308076379137,87.85199809938081,0,60,3.0,5,0.24357642586778372
6.335,0.3959699661768434,85.71922450867264,0,60,3.0,5,0.1933935178511209
6.34,0.38944595408114946,84.10774793473297,0,60,3.0,5,0.15547642199371695
6.345,0.38001120995358023,82.96318113142691,0,60,3.0,5,0.12854543838651547
6.35,0.3678831374098315,82.21602810766474,0,60,3.0,5,0.11096536723917037
6.355,0.35333577933796634,81.79251012512853,0,60,3.0,5,0.10100023823831834
6.36,0.33668953221163944,81.62242952229444,0,60,3.0,5,0.09699834170104563
6.365,0.3182994390982644,81.64396106938082,0,60,3.0,5,0.09750496633837229
6.37,0.29854265738230645,81.80577806979818,0,60,3.0,5,0.10131242517172187
6.375,0.2778057157821067,82.0671908817687,0,60,3.0,5,0.10746331486514578
6.38,0.2564721553719815,82.3970316464962,0,60,3.0,5,0.11522427403520477
6.385,0.23491109433464996,82.77192809116943,0,60,3.0,5,0.12404536685104538
6.39,0.21346717185309805,83.1744448392447,0,60,3.0,5,0.1335163491586988
6.395,0.19245222055656455,83.59139300208605,0,60,3.0,5,0.1433268941667306
6.4,0.17213889801761392,84.0124564670148,0,60,3.0,5,0.15323426981211294
6.405,0.15275638501270183,84.42917328586134,0,60,3.0,5,0.1630393714320315
6.41,0.13448814019607322,84.83424390403286,0,60,3.0,5,0.1725704448007732
6.415,0.11747159495449566,85.22110653223218,0,60,3.0,5,0.1816730948760514
6.42,0.10179958433370105,85.58371248503667,0,60,3.0,5,0.19020499964792167
6.425,0.08752324394101413,85.91644030794227,0,60,3.0,5,0.19803388959864157
6.43,0.07465606047174059,86.21409913961364,0,60,3.0,5,0.20503762681443852
6.435,0.0631787448609295,86.47198412748827,0,60,3.0,5,0.21110550888207694
6.44,0.05304460019959574,86.68595740280897,0,60,3.0,5,0.2161401741837404
6.445,0.044185078305849994,86.85253634861876,0,60,3.0,5,0.22005967879102956
6.45,0.03651525513023255,86.96897679592873,0,60,3.0,5,0.22279945402185236
6.455,0.0299390014708757,87.03334286760078,0,60,3.0,5,0.2243139498259007
6.46,0.024353677220580638,87.04455801855013,0,60,3.0,5,0.2245778357305914
6.465,0.01965423034339045,87.00243386008354,0,60,3.0,5,0.22358667906078922
6.47,0.015736632374757337,86.90767493113825,0,60,3.0,5,0.22135705720325283
6.475,0.012500627640593535,86.76185888714967,0,60,3.0,5,0.2179260914623452
6.48,0.009851811652115898,86.56739271881541,0,60,3.0,5,0.2133504169133038
6.485,0.007703084175428559,86.32744662507005,0,60,3.0,5,0.20770462647223653
6.49,0.005975544002062424,86.04586804742218,0,60,3.0,5,0.2010792481746394
6.495,0.004598905818663047,85.72707910938607,0,60,3.0,5,0.19357833198555455
6.5,0.0035115256454839104,85.3759612733947,0,60,3.0,5,0.18531673584458103
6.505,0.002660121266303676,84.99773140981047,0,60,3.0,5,0.1764172096425993
6.51,0.0019992692560877024,84.59781365754361,0,60,3.0,5,0.16700738017749672
6.515,0.0014907520044639367,84.1817114421235,0,60,3.0,5,0.1572167398146706
6.52,0.0011028178277539807,83.75488381385719,0,60,3.0,5,0.14717373679663978
6.525,0.0008094059938923333,83.3226298946003,0,60,3.0,5,0.1370030563435364
6.53,0.0005893771793717645,82.88998470356078,0,60,3.0,5,0.12682316949554787
6.535,0.0004257792353490551,82.46162900365687,0,60,3.0,5,0.11674421185074982
6.54,0.0003051686392901525,82.04181510746733,0,60,3.0,5,0.10686623782276068
6.545,0.00021699992642659966,81.63430984453429,0,60,3.0,5,0.09727787869492438
6.55,0.00015308884054097838,81.242355157684,0,60,3.0,5,0.08805541547491771
6.555,0.00010714989329311098,80.86864610012042,0,60,3.0,5,0.07926226117930388
6.56,7.440535854020571e-05,80.51532537751636,0,60,3.0,5,0.07094883241214969
6.565,5.1260276743925106e-05,80.18399304420547,0,60,3.0,5,0.06315277751071682
6.57,3.503659887882241e-05,79.87572953684843,0,60,3.0,5,0.055899518514080586
6.575,2.375894748103639e-05,79.59112992222373,0,60,3.0,5,0.04920305699349951
6.58,1.5984413869232557e-05,79.33034705046295,0,60,3.0,5,0.04306698942265758
6.585,1.0669166579899869e-05,79.09314123688262,0,60,3.0,5,0.037485676161943905
6.59,7.06526633560511e-06,78.87893413465613,0,60,3.0,5,0.032445509050732575
6.595,4.641847214699205e-06,78.68686459254717,0,60,3.0,5,0.02792622570699216
6.6,3.025641074479182e-06,78.51584449930009,0,60,3.0,5,0.023902223512943223
6.605,1.9566278676921314e-06,78.36461287981392,0,60,3.0,5,0.020343832466209855
6.61,1.2553456560008793e-06,78.23178680825401,0,60,3.0,5,0.017218513135388573
6.615,7.990660428214668e-07,78.115908020864,0,60,3.0,5,0.014491953432094066
6.62,5.046221251618276e-07,78.01548442923266,0,60,3.0,5,0.012129045393709582
6.625,3.1616527078858815e-07,77.9290260383968,0,60,3.0,5,0.0100947303152188
6.63,1.9652884407760343e-07,77.85507505159521,0,60,3.0,5,0.008354707096357822
6.635,1.2120002189836396e-07,77.79223018604874,0,60,3.0,5,0.006876004377617432
6.64,7.415549848886236e-08,77.73916542629568,0,60,3.0,5,0.005627421795192584
6.645,4.501406988770349e-08,77.69464360077374,0,60,3.0,5,0.004579849429970462
6.65,0.0,77.65752528354044,0,60,3.0,5,0.0037064772597749894
6.655,0.0,77.62677359845337,0,60,3.0,5,0.002982908198902792
6.66,0.0,77.60145554165466,0,60,3.0,5,0.00238718921540373
6.665,0.0,77.58074044483718,0,60,3.0,5,0.0018997751726394254
6.67,0.0,77.56389618220217,0,60,3.0,5,0.00150343958122756
6.675,0.0,77.55028368416444,0,60,3.0,5,0.001183145509751552
6.68,0.0,77.53935026650197,0,60,3.0,5,0.0009258886235757553
6.685,0.0,77.53062222013041,0,60,3.0,5,0.0007205228265979044
6.69,0.0,77.52369703872787,0,60,3.0,5,0.0005575773818323422
6.695,0.0,77.51823559299608,0,60,3.0,5,0.0004290727763783011
6.7,0.0,77.51395449456273,0,60,3.0,5,0.00032834104853470626
6.705,0.0,77.5106188317357,0,60,3.0,5,0.00024985486436936724
6.71,0.0,77.5080354050833,0,60,3.0,5,0.00018906835490129731
6.715,0.0,77.50604654403189,0,60,3.0,5,0.0001422716242797485
6.72,0.0,77.50452454666993,0,60,3.0,5,0.00010645992164534298
6.725,0.0,77.5033667535964,0,60,3.0,5,7.921773167989908e-05
6.73,0.0,77.50249124248262,0,60,3.0,5,5.861747017928899e-05
6.735,0.0,77.50183311232645,0,60,3.0,5,4.313205474003927e-05
6.74,0.0,77.50134131432361,0,60,3.0,5,3.156033702613486e-05
6.745,0.0,77.50097597895923,0,60,3.0,5,2.296421080546572e-05
6.75,0.0,77.50070618543435,0,60,3.0,5,1.6616127867136504e-05
6.755,0.0,77.50050811903469,0,60,3.0,5,1.1955741992738588e-05
6.76,0.0,77.50036356375567,0,60,3.0,5,8.554441309878016e-06
6.765,0.0,77.5002586807467,0,60,3.0,5,6.086605804632521e-06
6.77,0.0,77.5001830273698,0,60,3.0,5,4.30652634824636e-06
6.775,0.0,77.50012877642952,0,60,3.0,5,3.030033635762747e-06
6.78,0.0,77.50009010007003,0,60,3.0,5,2.120001647654135e-06
6.785,0.0,77.50006268769272,0,60,3.0,5,1.475004534554233e-06
6.79,0.0,77.50004337184035,0,60,3.0,5,1.0205138905535826e-06
6.795,0.0,77.50002984020645,0,60,3.0,5,7.021225047430883e-07
6.8,0.001684486749771458,77.50002041569667,0,60,3.0,5,4.80369333351572e-07
6.805,0.003097557930867117,77.50001388976806,0,60,3.0,5,3.2681807189927736e-07
6.81,0.005475106668887023,77.5000093971074,0,60,3.0,5,2.2110840953192724e-07
6.815,0.00930222931468658,77.50000632210633,0,60,3.0,5,1.487554430589037e-07
6.82,0.01519157517868857,77.5000042295855,0,60,3.0,5,9.951965881448225e-08
6.825,0.023847336626128316,77.50000281385834,0,60,3.0,5,6.620843163652941e-08
6.83,0.0359830743700859,77.50000186155152,0,60,3.0,5,4.380121234081504e-08
6.835,0.05218887796857759,77.50000122466216,0,60,3.0,5,2.8815580154674963e-08
6.84,0.0727577001223134,77.50000080117233,0,60,3.0,5,1.885111373667314e-08
6.845,0.0974992498694751,77.50000052119951,0,60,3.0,5,1.2263517887464225e-08
6.85,0.12558706050443358,77.50000033717119,0,60,3.0,5,7.933439693421378e-09
6.855,0.15549263588878245,77.50000021690289,0,60,3.0,5,5.103597419185783e-09
6.86,0.1850529723539114,77.50000013875498,0,60,3.0,5,3.264823162145844e-09
6.865,0.21169159439317053,77.50000008826738,0,60,3.0,5,2.0768796355910393e-09
6.87,0.23277292922115492,77.50000005583678,0,60,3.0,5,1.313806558969458e-09
6.875,0.24602692519491282,77.5000000351244,0,60,3.0,5,8.264564980088514e-10
6.88,0.24995056064839283,77.5000000219718,0,60,3.0,5,5.169835383319022e-10
6.885,0.24408826520424054,77.50000001366756,0,60,3.0,5,3.215896359667086e-10
6.89,0.22911894216865275,77.50000000845444,0,60,3.0,5,1.9892789115307524e-10
6.895,0.20672661788705934,77.50000000520052,0,60,3.0,5,1.223651559164008e-10
6.9,0.17928878030241233,77.5000000031811,0,60,3.0,5,7.484940771759926e-11
6.905,0.14946211903866036,77.50000000193498,0,60,3.0,5,4.552890352309024e-11
6.91,0.1197651512573837,77.50000000117042,0,60,3.0,5,2.7539298945852995e-11
6.915,0.09224675744988023,77.500000000704,0,60,3.0,5,1.6564841002143702e-11
6.92,0.06829565320281596,77.5000000004211,0,60,3.0,5,9.90814228049096e-12
6.925,0.04860224607515734,77.50000000025047,0,60,3.0,5,5.893325043657301e-12
6.93,0.03324612389699793,77.50000000014815,0,60,3.0,5,3.4858390683760207e-12
6.935,0.021859876340472782,77.50000000008714,0,60,3.0,5,2.0503755556145573e-12
6.94,0.01381595518554205,77.50000000005096,0,60,3.0,5,1.1990617649109267e-12
6.945,0.008394095110402422,77.50000000002964,0,60,3.0,5,6.975021867273266e-13
6.95,0.0049052535271608,77.50000000001714,0,60,3.0,5,4.032539008596145e-13
6.955,0.0027671663551903634,77.50000000000986,0,60,3.0,5,2.3205489817294564e-13
6.96,0.0015425553464444616,77.50000000000564,0,60,3.0,5,1.3274610169259284e-13
6.965,0.0009638206637011801,77.50000000000321,0,60,3.0,5,7.556830977966242e-14
6.97,0.0009804935156568228,77.50000000000182,0,60,3.0,5,4.279975067166721e-14
6.975,0.0018793744894085216,77.50000000000102,0,60,3.0,5,2.4074859752812806e-14
6.98,0.004535525206900863,77.50000000000057,0,60,3.0,5,1.3374922084896003e-14
6.985,0.010832767979632273,77.50000000000031,0,60,3.0,5,7.356207146692803e-15
6.99,0.024208003392322392,77.50000000000017,0,60,3.0,5,4.012476625468801e-15
6.995,0.0500971897335304,77.5000000000001,0,60,3.0,5,2.3406113648568006e-15
7.0,0.09582894921774403,77.50000000000006,0,60,3.0,5,1.3374922084896003e-15
7.005,0.16937896721820658,77.50000000000003,0,60,3.0,5,6.687461042448002e-16
7.01,0.27661303008991756,77.50000000000001,0,60,3.0,5,3.343730521224001e-16
7.015,0.4173782800009149,77.50000000000001,0,60,3.0,5,3.343730521224001e-16
7.02,0.5818720934538056,77.5,0,60,3.0,5,0.0
7.025,0.7494718801585675,77.5,0,60,3.0,5,0.0
7.03,0.891813020752378,77.5,0,60,3.0,5,0.0
7.035,0.9800361632936612,77.5,0,60,3.0,5,0.0
7.04,0.993574479225126,77.50000249010722,1,60,3.0,5,5.859075813799898e-08
7.045,0.9263438449375362,77.50000399163918,0,60,3.0,5,9.392092177971362e-08
7.05,0.7873015962290536,77.50000657096535,0,60,3.0,5,1.546109495072468e-07
7.055,0.5959516244629897,77.50001126974868,0,60,3.0,5,2.6517055724017317e-07
7.06,0.376910120078773,77.50002039428047,0,60,3.0,5,4.798654227964588e-07
7.065,0.15739335672107918,77.50003914082407,0,60,3.0,5,9.209605663914665e-07
7.07,-0.033361226269301235,77.50007920029995,0,60,3.0,5,1.8635364694198548e-06
7.075,-0.1680180840843834,77.50016650152685,0,60,3.0,5,3.917682984673079e-06
7.08,-0.23069703190837854,77.50035727180848,0,60,3.0,5,8.406395493707083e-06
7.085,-0.22587267821131068,77.50077012988875,0,60,3.0,5,1.8120703264698666e-05
7.09,-0.17718181630665902,77.50164775318775,0,60,3.0,5,3.87706632412734e-05
7.095,-0.11494332516451301,77.50347061635955,0,60,3.0,5,8.166156140117998e-05
7.1,-0.061810214049552864,77.50715795071476,0,60,3.0,5,0.00016842236975896734
7.105,-0.026546104631500547,77.5144070811006,0,60,3.0,5,0.00033899014354353633
7.11,-0.00719600351942686,77.5282394047068,0,60,3.0,5,0.0006644565813363602
7.115,0.0022072757983807078,77.55383408336586,0,60,3.0,5,0.0012666843144907435
7.12,0.006917199873730717,77.59972940848522,0,60,3.0,5,0.0023465743172992274
7.125,0.01004859748264829,77.67944280833049,0,60,3.0,5,0.0042221837254233455
7.13,0.013037082251128167,77.81348721906859,0,60,3.0,5,0.0073761698604374384
7.135,0.01645163937690478,78.03163023176374,0,60,3.0,5,0.012508946629735111
7.14,0.020526639934696615,78.37505027511166,0,60,3.0,5,0.020589418237921445
7.145,0.02539629541761738,78.89780996475343,0,60,3.0,5,0.032889646229492586
7.15,0.031171612185577933,79.66684044473594,0,60,3.0,5,0.05098448105261034
7.155,0.03795853426638131,80.75949503280015,0,60,3.0,5,0.07669400077176813
7.16,0.0458588961882057,82.25779073232891,0,60,3.0,5,0.11194801723126856
7.165,0.054966995891435555,84.23881071354275,0,60,3.0,5,0.15856025208335878
7.17,0.06536491004445595,86.761438403634,0,60,3.0,5,0.21791619773256476
7.175,0.07711726085088699,89.85058638348076,0,60,3.0,5,0.29060203255248845
7.18,0.09026570629555215,93.48119551005387,0,60,3.0,5,0.37602812964832627
7.185,0.10482339848670268,97.56521644662017,0,60,3.0,5,0.4721227399204746
7.19,0.12076968927580028,101.9451924877681,0,60,3.0,5,0.5751809997121905
7.195,0.13804539501007884,106.39763376371725,0,60,3.0,5,0.6799443238521706
7.2,0.15654895051787066,110.64798059253941,0,60,3.0,5,0.779952484530339
7.205,0.17613378141900526,114.39674727457296,0,60,3.0,5,0.8681587594017167
7.21,0.19660720058055794,117.35386468352375,0,60,3.0,5,0.9377379925535001
7.215,0.21773108748496234,119.275959098321,0,60,3.0,5,0.9829637434899058
7.22,0.23922453870058807,120.0,0,60,3.0,5,1.0
7.225,0.2607685857914563,119.46690363747315,0,60,3.0,5,0.9874565561758388
7.23,0.2820129681603682,117.73038700594088,0,60,3.0,6,0.9465973413162561
7.235,0.30258482867153996,114.9492684905429,0,60,3.0,6,0.8811592586010095
7.24,0.3220990771751686,111.36478020898221,0,60,3.0,6,0.7968183578584049
7.245,0.3401700499968971,107.26741995506956,0,60,3.0,6,0.7004098812957542
7.25,0.3564239911198326,102.9596819088704,0,60,3.0,6,0.5990513390322446
7.255,0.3705118017738417,98.72127373241781,0,60,3.0,6,0.4993240878215956
7.26,0.3821214567925213,94.7822159773761,0,60,3.0,6,0.40664037593826113
7.265,0.39098947374066967,91.30698776473659,0,60,3.0,6,0.3248703003467433
7.27,0.3969108472035567,88.39030770032856,0,60,3.0,6,0.25624253412537795
7.275,0.3997469255491936,86.06288839070756,0,60,3.0,6,0.2014797268401778
7.28,0.3994308076379137,84.30404383436624,0,60,3.0,6,0.16009514904391153
7.285,0.3959699661768434,83.05753269632442,0,60,3.0,6,0.1307654752076333
7.29,0.38944595408114946,82.24737630134176,0,60,3.0,6,0.1117029717962767
7.295,0.38001120995358023,81.7913011449563,0,60,3.0,6,0.10097179164603043
7.3,0.3678831374098315,81.610566645603,0,60,3.0,6,0.09671921519065885
7.305,0.35333577933796634,81.63594764226887,0,60,3.0,6,0.09731641511220882
7.31,0.33668953221163944,81.81036294392507,0,60,3.0,6,0.10142030456294285
7.315,0.3182994390982644,82.08901958525325,0,60,3.0,6,0.10797693141772363
7.32,0.29854265738230645,82.43802057793512,0,60,3.0,6,0.11618871948082636
7.325,0.2778057157821067,82.83225838471738,0,60,3.0,6,0.12546490316982065
7.33,0.2564721553719815,83.25319276688843,0,60,3.0,6,0.13536924157384547
7.335,0.23491109433464996,83.686875206475,0,60,3.0,6,0.14557353426999986
7.34,0.21346717185309805,84.12238505385845,0,60,3.0,6,0.15582082479666945
7.345,0.19245222055656455,84.55070577299286,0,60,3.0,6,0.1658989593645378
7.35,0.17213889801761392,84.96399161125699,0,60,3.0,6,0.17562333202957614
7.355,0.15275638501270183,85.35514243552747,0,60,3.0,6,0.18482688083594045
7.36,0.13448814019607322,85.71760100195645,0,60,3.0,6,0.193355317693093
7.365,0.11747159495449566,86.0452983913444,0,60,3.0,6,0.20106584450222126
7.37,0.10179958433370105,86.3326898491463,0,60,3.0,6,0.20782799645050132
7.375,0.08752324394101413,86.57483918302297,0,60,3.0,6,0.21352562783583467
7.38,0.07465606047174059,86.76752278036646,0,60,3.0,6,0.2180593595380344
7.385,0.0631787448609295,86.90733378218441,0,60,3.0,6,0.22134903016904492
7.39,0.05304460019959574,86.9917735126748,0,60,3.0,6,0.22333584735705406
7.395,0.044185078305849994,87.01932172692784,0,60,3.0,6,0.22398404063359628
7.4,0.03651525513023255,86.98948034984315,0,60,3.0,6,0.22328189058454467
7.405,0.0299390014708757,86.90278769019186,0,60,3.0,6,0.22124206329863194
7.41,0.024353677220580638,86.76080197318645,0,60,3.0,6,0.2179012228985046
7.415,0.01965423034339045,86.56605462876595,0,60,3.0,6,0.21331893244155187
7.42,0.015736632374757337,86.32197517674452,0,60,3.0,6,0.20757588651163567
7.425,0.012500627640593535,86.03279077482928,0,60,3.0,6,0.2007715476430419
7.43,0.009851811652115898,85.70340452029305,0,60,3.0,6,0.19302128283042466
7.435,0.007703084175428559,85.33925738981765,0,60,3.0,6,0.18445311505453285
7.44,0.005975544002062424,84.94617923708564,0,60,3.0,6,0.17520421734319164
7.445,0.004598905818663047,84.53023452733424,0,60,3.0,6,0.16541728299609987
7.45,0.0035115256454839104,84.09756846997738,0,60,3.0,6,0.15523690517593824
7.455,0.002660121266303676,83.6542589276253,0,60,3.0,6,0.1448060924147131
7.46,0.0019992692560877024,83.20617895994317,0,60,3.0,6,0.13426303435160408
7.465,0.0014907520044639367,82.75887414363407,0,60,3.0,6,0.12373821514433116
7.47,0.0011028178277539807,82.31745794442939,0,60,3.0,6,0.11335195163363276
7.475,0.0008094059938923333,81.8865274579051,0,60,3.0,6,0.10321241077423772
7.48,0.0005893771793717645,81.47010083954896,0,60,3.0,6,0.09341413740115205
7.485,0.0004257792353490551,81.07157676517897,0,60,3.0,6,0.08403710035715235
7.49,0.0003051686392901525,80.69371534973111,0,60,3.0,6,0.07514624352308488
7.495,0.00021699992642659966,80.33863914687039,0,60,3.0,6,0.06679150933812687
7.5,0.00015308884054097838,80.00785218530105,0,60,3.0,6,0.05900828671296582
7.505,0.00010714989329311098,79.70227449064905,0,60,3.0,6,0.051818223309389316
7.51,7.440535854020571e-05,79.4222892038462,0,60,3.0,6,0.045230334208146
7.515,5.1260276743925106e-05,79.16779923698448,0,60,3.0,6,0.03924233498787009
7.52,3.503659887882241e-05,78.93829039520759,0,60,3.0,6,0.03384212694606089
7.525,2.375894748103639e-05,78.73289802028908,0,60,3.0,6,0.02900936518327258
7.53,1.5984413869232557e-05,78.55047445441544,0,60,3.0,6,0.02471704598624556
7.535,1.0669166579899869e-05,78.38965495417689,0,60,3.0,6,0.0209330577453386
7.54,7.06526633560511e-06,78.24892007634156,0,60,3.0,6,0.017621648855095588
7.545,4.641847214699205e-06,78.12665298069128,0,60,3.0,6,0.014744776016265311
7.55,3.025641074479182e-06,78.02119052526635,0,60,3.0,6,0.012263306476855258
7.555,1.9566278676921314e-06,77.93086744348022,0,60,3.0,6,0.010138057493652335
7.56,1.2553456560008793e-06,77.85405327268292,0,60,3.0,6,0.00833066523959808
7.565,7.990660428214668e-07,77.78918203653959,0,60,3.0,6,0.006804283212696138
7.57,5.046221251618276e-07,77.7347749604743,0,60,3.0,6,0.005524116717042288
7.575,3.1616527078858815e-07,77.68945671631874,0,60,3.0,6,0.004457805089852814
7.58,1.9652884407760343e-07,77.65196584908803,0,60,3.0,6,0.0035756670373653858
7.585,1.2120002189836396e-07,77.62116013864468,0,60,3.0,6,0.0028508267916396
7.59,7.415549848886236e-08,77.59601769757931,0,60,3.0,6,0.002259239943042664
7.595,4.501406988770349e-08,77.57563461130631,0,60,3.0,6,0.00177963791308972
7.6,0.0,77.55921989546478,0,60,3.0,6,0.0013934093050536108
7.605,0.0,77.54608848781899,0,60,3.0,6,0.0010844350075056835
7.61,0.0,77.53565291526658,0,60,3.0,6,0.0008388921239195631
7.615,0.0,77.52741418887024,0,60,3.0,6,0.0006450397381232666
7.62,0.0,77.52095238759824,0,60,3.0,6,0.0004929973552527693
7.625,0.0,77.51591730008352,0,60,3.0,6,0.0003745247078474195
7.63,0.0,77.5120194073441,0,60,3.0,6,0.00028280958456702247
7.635,0.0,77.50902141100669,0,60,3.0,6,0.0002122684942749482
7.64,0.0,77.50673044299404,0,60,3.0,6,0.0001583633645656632
7.645,0.0,77.50499103478336,0,60,3.0,6,0.00011743611254961948
7.65,0.0,77.5036788773436,0,60,3.0,6,8.656181984948115e-05
7.655,0.0,77.50269536624779,0,60,3.0,6,6.342038230099314e-05
7.66,0.0,77.5019628993377,0,60,3.0,6,4.618586676937251e-05
7.665,0.0,77.50142087553571,0,60,3.0,6,3.343236554622522e-05
7.67,0.0,77.50102233166015,0,60,3.0,6,2.4054862591824263e-05
7.675,0.0,77.50073114808981,0,60,3.0,6,1.7203484466175294e-05
7.68,0.0,77.5005197525807,0,60,3.0,6,1.2229472487072544e-05
7.685,0.0,77.50036725331495,0,60,3.0,6,8.641254469373107e-06
7.69,0.0,77.50025793635609,0,60,3.0,6,6.069090731590918e-06
7.695,0.0,77.50018006825722,0,60,3.0,6,4.236900169938535e-06
7.7,0.0,77.50012495094008,0,60,3.0,6,2.9400221194464394e-06
7.705,0.0,77.5000861826135,0,60,3.0,6,2.0278262000187275e-06
7.71,0.0,77.50005908504322,0,60,3.0,6,1.3902363110339458e-06
7.715,0.001684486749771458,77.50004026365725,0,60,3.0,6,9.473801706944334e-07
7.72,0.003097557930867117,77.50002727260667,0,60,3.0,6,6.417083922957211e-07
7.725,0.005475106668887023,77.50001836190953,0,60,3.0,6,4.320449300073104e-07
7.73,0.00930222931468658,77.50001228815844,0,60,3.0,6,2.891331398720521e-07
7.735,0.01519157517868857,77.50000817397918,0,60,3.0,6,1.9232892193887144e-07
7.74,0.023847336626128316,77.50000540453107,0,60,3.0,6,1.271654368525453e-07
7.745,0.0359830743700859,77.50000355189627,0,60,3.0,6,8.357402989264194e-08
7.75,0.05218887796857759,77.50000232027946,0,60,3.0,6,5.4594810909988796e-08
7.755,0.0727577001223134,77.50000150660041,0,60,3.0,6,3.544942146885767e-08
7.76,0.0974992498694751,77.50000097237466,0,60,3.0,6,2.2879403866895968e-08
7.765,0.12558706050443358,77.50000062380226,0,60,3.0,6,1.4677700351860361e-08
7.77,0.15549263588878245,77.50000039777551,0,60,3.0,6,9.359423730155173e-09
7.775,0.1850529723539114,77.50000025211976,0,60,3.0,6,5.932229682644795e-09
7.78,0.21169159439317053,77.50000015883766,0,60,3.0,6,3.737356818793855e-09
7.785,0.23277292922115492,77.50000009946673,0,60,3.0,6,2.340393687999869e-09
7.79,0.24602692519491282,77.50000006191274,0,60,3.0,6,1.4567704323888072e-09
7.795,0.24995056064839283,77.50000003830539,0,60,3.0,6,9.013032307420336e-10
7.8,0.24408826520424054,77.50000002355686,0,60,3.0,6,5.542791741925826e-10
7.805,0.22911894216865275,77.50000001439969,0,60,3.0,6,3.3881620123900256e-10
7.81,0.20672661788705934,77.50000000874915,0,60,3.0,6,2.058624538810417e-10
7.815,0.17928878030241233,77.50000000528394,0,60,3.0,6,1.2432792573235928e-10
7.82,0.14946211903866036,77.50000000317195,0,60,3.0,6,7.463407147203244e-11
7.825,0.1197651512573837,77.50000000189266,0,60,3.0,6,4.453314057386973e-11
7.83,0.09224675744988023,77.50000000112253,0,60,3.0,6,2.6412461760200504e-11
7.835,0.06829565320281596,77.50000000066176,0,60,3.0,6,1.5570749918183806e-11
7.84,0.04860224607515734,77.50000000038777,0,60,3.0,6,9.12403747326393e-12
7.845,0.03324612389699793,77.50000000022585,0,60,3.0,6,5.314190917381304e-12
7.85,0.021859876340472782,77.50000000013075,0,60,3.0,6,3.0765664525782033e-12
7.855,0.01381595518554205,77.50000000007525,0,60,3.0,6,1.7705053109881085e-12
7.86,0.008394095110402422,77.50000000004304,0,60,3.0,6,1.0128159748787498e-12
7.865,0.0049052535271608,77.50000000002447,0,60,3.0,6,5.757903957547729e-13
7.87,0.0027671663551903634,77.50000000001383,0,60,3.0,6,3.253449797150953e-13
7.875,0.0015425553464444616,77.50000000000777,0,60,3.0,6,1.8290205951095285e-13
7.88,0.0009638206637011801,77.50000000000433,0,60,3.0,6,1.0198378089733203e-13
7.885,0.0009804935156568228,77.5000000000024,0,60,3.0,6,5.6509045808685616e-14
7.89,0.0018793744894085216,77.50000000000132,0,60,3.0,6,3.109669384738321e-14
7.895,0.004535525206900863,77.50000000000072,0,60,3.0,6,1.7053025658242404e-14
7.9,0.010832767979632273,77.5000000000004,0,60,3.0,6,9.362445459427202e-15
7.905,0.024208003392322392,77.50000000000021,0,60,3.0,6,5.015595781836002e-15
7.91,0.0500971897335304,77.50000000000011,0,60,3.0,6,2.6749844169792007e-15
7.915,0.09582894921774403,77.50000000000006,0,60,3.0,6,1.3374922084896003e-15
7.92,0.16937896721820658,77.50000000000003,0,60,3.0,6,6.687461042448002e-16
7.925,0.27661303008991756,77.50000000000001,0,60,3.0,6,3.343730521224001e-16
7.93,0.4173782800009149,77.50000000000001,0,60,3.0,6,3.343730521224001e-16
7.935,0.5818720934538056,77.5,0,60,3.0,6,0.0
7.94,0.7494718801585675,77.5,0,60,3.0,6,0.0
7.945,0.891813020752378,77.5,0,60,3.0,6,0.0
7.95,0.9800361632936612,77.5,0,60,3.0,6,0.0
7.955,0.993574479225126,77.500002493001,1,60,3.0,6,5.865884719134877e-08
7.96,0.9263438449375362,77.50000403990495,0,60,3.0,6,9.505658708268824e-08
7.965,0.7873015962290536,77.50000673338658,0,60,3.0,6,1.5843262551296743e-07
7.97,0.5959516244629897,77.50001172205435,0,60,3.0,6,2.758130435990204e-07
7.975,0.376910120078773,77.50002159836598,0,60,3.0,6,5.08196846487194e-07
7.98,0.15739335672107918,77.5000423130374,0,60,3.0,6,9.956008799396358e-07
7.985,-0.033361226269301235,77.5000874863636,0,60,3.0,6,2.0585026728734674e-06
7.99,-0.1680180840843834,77.50018779571332,0,60,3.0,6,4.418722666260317e-06
7.995,-0.23069703190837854,77.5004106754075,0,60,3.0,6,9.662950764563635e-06
8.0,-0.22587267821131068,77.50090006717714,0,60,3.0,6,2.117805122686471e-05
8.005,-0.17718181630665902,77.50195339128197,0,60,3.0,6,4.596214781111699e-05
8.01,-0.11494332516451301,77.50416429525522,0,60,3.0,6,9.798341776993712e-05
8.015,-0.061810214049552864,77.50867565958697,0,60,3.0,6,0.00020413316675223862
8.02,-0.026546104631500547,77.51760701827061,0,60,3.0,6,0.00041428278283787864
8.025,-0.00719600351942686,77.53474047080725,0,60,3.0,6,0.0008174228425235362
8.03,0.0022072757983807078,77.56656145142368,0,60,3.0,6,0.001566151798204253
8.035,0.006917199873730717,77.62374195804661,0,60,3.0,6,0.0029115754834496033
8.04,0.01004859748264829,77.72310544372154,0,60,3.0,6,0.005249539852271442
8.045,0.013037082251128167,77.89000429606669,0,60,3.0,6,0.009176571672157467
8.05,0.01645163937690478,78.16085865745615,0,60,3.0,6,0.015549615469556369
8.055,0.020526639934696615,78.5853536553238,0,60,3.0,6,0.025537733066442355
8.06,0.02539629541761738,79.22750755467197,0,60,3.0,6,0.04064723658051702
8.065,0.031171612185577933,80.16458440084935,0,60,3.0,6,0.06269610354939646
8.07,0.03795853426638131,81.48274868783383,0,60,3.0,6,0.09371173383138431
8.075,0.0458588961882057,83.26857903806466,0,60,3.0,6,0.13573127148387432
8.08,0.054966995891435555,85.59617429809057,0,60,3.0,6,0.19049821877860174
8.085,0.06536491004445595,88.5106083760204,0,60,3.0,6,0.25907313825930356
8.09,0.07711726085088699,92.00978288438272,0,60,3.0,6,0.3414066561031227
8.095,0.09026570629555215,96.0279882058141,0,60,3.0,6,0.43595266366621405
8.1,0.10482339848670268,100.42529330261053,0,60,3.0,6,0.5394186659437771
8.105,0.12076968927580028,104.98681717941321,0,60,3.0,6,0.6467486395156049
8.11,0.13804539501007884,109.43472228121598,0,60,3.0,6,0.7514052301462584
8.115,0.15654895051787066,113.45345423965574,0,60,3.0,6,0.8459636291683704
8.12,0.17613378141900526,116.72575887299736,0,60,3.0,6,0.9229590323058202
8.125,0.19660720058055794,118.97408494436186,0,60,3.0,6,0.9758608222202791
8.13,0.21773108748496234,120.0,0,60,3.0,6,1.0
8.135,0.23922453870058807,119.71391048883474,0,60,3.0,6,0.9932684820902292
8.14,0.2607685857914563,118.14895487370191,0,60,3.0,6,0.9564459970282803
8.145,0.2820129681603682,115.45612497999082,0,60,3.0,6,0.8930852936468427
8.15,0.30258482867153996,111.88165094363816,0,60,3.0,6,0.8089800222032509
8.155,0.3220990771751686,107.7313845806095,0,60,3.0,6,0.7113266960143412
8.16,0.3401700499968971,103.32935256522416,0,60,3.0,6,0.6077494721229213
8.165,0.3564239911198326,98.97824975042373,0,60,3.0,6,0.5053705823629112
8.17,0.3705118017738417,94.92839875542202,0,60,3.0,6,0.4100799707158123
8.175,0.3821214567925213,91.35913385331799,0,60,3.0,6,0.32609726713689374
8.18,0.39098947374066967,88.37350173832209,0,60,3.0,6,0.2558470997252257
8.185,0.3969108472035567,86.0044494287054,0,60,3.0,6,0.20010469244012705
8.19,0.3997469255491936,84.2288904969198,0,60,3.0,6,0.15832683522164243
8.195,0.3994308076379137,82.98543242148853,0,60,3.0,6,0.12906899815267117
8.2,0.3959699661768434,82.1919774842303,0,60,3.0,6,0.1103994702171837
8.205,0.38944595408114946,81.76050742568438,0,60,3.0,6,0.10024723354551483
8.21,0.38001120995358023,81.60768684122719,0,60,3.0,6,0.09665145508769864
8.215,0.3678831374098315,81.66110253364617,0,60,3.0,6,0.0979082949093217
8.22,0.35333577933796634,81.86177768865832,0,60,3.0,6,0.10263006326254874
8.225,0.33668953221163944,82.16400423581229,0,60,3.0,6,0.10974127613675966
8.23,0.3182994390982644,82.53358852952317,0,60,3.0,6,0.1184373771652511
8.235,0.29854265738230645,82.94542897378797,0,60,3.0,6,0.12812774055971693
8.24,0.2778057157821067,83.3810685904837,0,60,3.0,6,0.13837808448196925
8.245,0.2564721553719815,83.8265897549496,0,60,3.0,6,0.1488609354105787
8.25,0.23491109433464996,84.2709988703455,0,60,3.0,6,0.1593176204787175
8.255,0.21346717185309805,84.70510416059224,0,60,3.0,6,0.1695318626021704
8.26,0.19245222055656455,85.12081333354132,0,60,3.0,6,0.1793132549068546
8.265,0.17213889801761392,85.5107511902045,0,60,3.0,6,0.18848826329892945
8.27,0.15275638501270183,85.86810032171306,0,60,3.0,6,0.1968964781579543
8.275,0.13448814019607322,86.18658476289214,0,60,3.0,6,0.20439022971510915
8.28,0.11747159495449566,86.46053642232512,0,60,3.0,6,0.21083615111353224
8.285,0.10179958433370105,86.6850018841999,0,60,3.0,6,0.21611769139293896
8.29,0.08752324394101413,86.8558608849188,0,60,3.0,6,0.22013790317455995
8.295,0.07465606047174059,86.96993747496032,0,60,3.0,6,0.22282205823436044
8.3,0.0631787448609295,87.02509146159689,0,60,3.0,6,0.22411979909639734
8.305,0.05304460019959574,87.0202821976199,0,60,3.0,6,0.2240066399439978
8.31,0.044185078305849994,86.95559995930003,0,60,3.0,6,0.2224847049247066
8.315,0.03651525513023255,86.83226260182144,0,60,3.0,6,0.21958264945462214
8.32,0.0299390014708757,86.65257721375858,0,60,3.0,6,0.21535475797079004
8.325,0.024353677220580638,86.41986826370831,0,60,3.0,6,0.20987925326372492
8.33,0.01965423034339045,86.1383752850487,0,60,3.0,6,0.2032558890599693
8.335,0.015736632374757337,85.81312446541017,0,60,3.0,6,0.19560292859788633
8.34,0.012500627640593535,85.44977955977001,0,60,3.0,6,0.18705363670047076
8.345,0.009851811652115898,85.05447829289321,0,60,3.0,6,0.17775243042101666
8.35,0.007703084175428559,84.63366083201846,0,60,3.0,6,0.1678508431063168
8.355,0.005975544002062424,84.19389698542516,0,60,3.0,6,0.15750345848059188
8.36,0.004598905818663047,83.7417185275606,0,60,3.0,6,0.1468639653543669
8.365,0.0035115256454839104,83.2834624964952,0,60,3.0,6,0.13608147050576952
8.37,0.002660121266303676,82.82513050088303,0,60,3.0,6,0.1252971882560714
8.375,0.0019992692560877024,82.37226807034166,0,60,3.0,6,0.11464160165509792
8.38,0.0014907520044639367,81.92986695236372,0,60,3.0,6,0.1042321635850288
8.385,0.0011028178277539807,81.50229207083176,0,60,3.0,6,0.09417157813721781
8.39,0.0008094059938923333,81.09323368453238,0,60,3.0,6,0.08454667493017362
8.395,0.0005893771793717645,80.70568418126729,0,60,3.0,6,0.07542786308864205
8.4,0.0004257792353490551,80.34193796704291,0,60,3.0,6,0.06686912863630375
8.405,0.0003051686392901525,80.00361210088053,0,60,3.0,6,0.05890852002071838
8.41,0.00021699992642659966,79.69168471069607,0,60,3.0,6,0.05156905201637802
8.415,0.00015308884054097838,79.40654781693993,0,60,3.0,6,0.044859948633880806
8.42,0.00010714989329311098,79.14807098723111,0,60,3.0,6,0.038778140876026074
8.425,7.440535854020571e-05,78.91567223406882,0,60,3.0,6,0.0333099349192664
8.43,5.1260276743925106e-05,78.70839272612717,0,60,3.0,6,0.028432770026521708
8.435,3.503659887882241e-05,78.52497218179676,0,60,3.0,7,0.024116992512864834
8.44,2.375894748103639e-05,78.36392221741946,0,60,3.0,7,0.020327581586340168
8.445,1.5984413869232557e-05,78.22359539641143,0,60,3.0,7,0.017025774033210022
8.45,1.0669166579899869e-05,78.10224823448479,0,60,3.0,7,0.014170546693759768
8.455,7.06526633560511e-06,77.99809692877393,0,60,3.0,7,0.011719927735857241
8.46,4.641847214699205e-06,77.90936506774395,0,60,3.0,7,0.009632119241034081
8.465,3.025641074479182e-06,77.83432302279226,0,60,3.0,7,0.007866424065700277
8.47,1.9566278676921314e-06,77.77131910598851,0,60,3.0,7,0.006383978964435541
8.475,1.2553456560008793e-06,77.71880289200688,0,60,3.0,7,0.005148303341338292
8.48,7.990660428214668e-07,77.67534134216179,0,60,3.0,7,0.004125678639100857
8.485,5.046221251618276e-07,77.63962853559796,0,60,3.0,7,0.003285377308187395
8.49,3.1616527078858815e-07,77.61048991206685,0,60,3.0,7,0.0025997626368671396
8.495,1.9652884407760343e-07,77.58688197019153,0,60,3.0,7,0.0020442816515653436
8.5,1.2120002189836396e-07,77.56788835438546,0,60,3.0,7,0.001597373044363755
8.505,7.415549848886236e-08,77.5527132132434,0,60,3.0,7,0.0012403108998445505
8.51,4.501406988770349e-08,77.54067263293041,0,60,3.0,7,0.000957003127774335
8.515,0.0,77.5311848509153,0,60,3.0,7,0.0007337611980069462
8.52,0.0,77.52375984729784,0,60,3.0,7,0.0005590552305373903
8.525,0.0,77.51798880053254,0,60,3.0,7,0.00042326589488318273
8.53,0.0,77.51353378756535,0,60,3.0,7,0.00031844206036118843
8.535,0.0,77.51011800972186,0,60,3.0,7,0.00023807081698504697
8.54,0.0,77.50751673807936,0,60,3.0,7,0.00017686442539670947
8.545,0.0,77.50554909718198,0,60,3.0,7,0.00013056699251726112
8.55,0.0,77.50407074438012,0,60,3.0,7,9.578222070859631e-05
8.555,0.0,77.50296745349311,0,60,3.0,7,6.98224351320759e-05
8.56,0.0,77.50214957498069,0,60,3.0,7,5.057823483980428e-05
8.565,0.0,77.50154731901995,0,60,3.0,7,3.640750635173283e-05
8.57,0.0,77.50110679125095,0,60,3.0,7,2.6042147081117196e-05
8.575,0.0,77.50078670182728,0,60,3.0,7,1.8510631230128637e-05
8.58,0.0,77.50055566518674,0,60,3.0,7,1.3074474982070516e-05
8.585,0.0,77.50039000915886,0,60,3.0,7,9.17668609090202e-06
8.59,0.0,77.50027201635174,0,60,3.0,7,6.400384746912631e-06
8.595,0.0,77.5001885271079,0,60,3.0,7,4.435931950464532e-06
8.6,0.0,77.50012984080128,0,60,3.0,7,3.0550776771446288e-06
8.605,0.0,77.50008886017346,0,60,3.0,7,2.0908276108938857e-06
8.61,0.001684486749771458,77.50006043126905,0,60,3.0,7,1.4219122129040496e-06
8.615,0.003097557930867117,77.50004083897754,0,60,3.0,7,9.609171185917042e-07
8.62,0.005475106668887023,77.50002742499734,0,60,3.0,7,6.452940550950777e-07
8.625,0.00930222931468658,77.50001830108829,0,60,3.0,7,4.3061384210030906e-07
8.63,0.01519157517868857,77.50001213572779,0,60,3.0,7,2.8554653614692675e-07
8.635,0.023847336626128316,77.5000079967464,0,60,3.0,7,1.881587389321152e-07
8.64,0.0359830743700859,77.50000523623838,0,60,3.0,7,1.2320560893599844e-07
8.645,0.05218887796857759,77.50000340709376,0,60,3.0,7,8.016691193755405e-08
8.65,0.0727577001223134,77.50000220296373,0,60,3.0,7,5.1834440656046566e-08
8.655,0.0974992498694751,77.5000014154326,0,60,3.0,7,3.33042966277015e-08
8.66,0.12558706050443358,77.50000090371114,0,60,3.0,7,2.1263791522334726e-08
8.665,0.15549263588878245,77.50000057336167,0,60,3.0,7,1.3490862931361976e-08
8.67,0.1850529723539114,77.50000036148167,0,60,3.0,7,8.505451004941065e-09
8.675,0.21169159439317053,77.50000022646572,0,60,3.0,7,5.328605070912197e-09
8.68,0.23277292922115492,77.50000014098642,0,60,3.0,7,3.3173274219092597e-09
8.685,0.24602692519491282,77.50000008721891,0,60,3.0,7,2.0522095918054486e-09
8.69,0.24995056064839283,77.50000005361701,0,60,3.0,7,1.2615768194818348e-09
8.695,0.24408826520424054,77.50000003275315,0,60,3.0,7,7.706623417856034e-10
8.7,0.22911894216865275,77.50000001988211,0,60,3.0,7,4.678143153903554e-10
8.705,0.20672661788705934,77.50000001199307,0,60,3.0,7,2.8218979048902197e-10
8.71,0.17928878030241233,77.5000000071888,0,60,3.0,7,1.6914829275800216e-10
8.715,0.14946211903866036,77.50000000428194,0,60,3.0,7,1.0075161620026099e-10
8.72,0.1197651512573837,77.50000000253445,0,60,3.0,7,5.963409635382156e-11
8.725,0.09224675744988023,77.50000000149069,0,60,3.0,7,3.507506442153552e-11
8.73,0.06829565320281596,77.50000000087125,0,60,3.0,7,2.0500077452572226e-11
