Time,ECG,Pressure,R_Peaks,mean_hr,hrv_scale,Phase_Bin,Normalized_Pressure
0.0,0.001684486749771458,77.5,0,60,3.0,0,0.0
0.005,0.003097557930867117,77.5,0,60,3.0,0,0.0
0.01,0.005475106668887023,77.5,0,60,3.0,0,0.0
0.015,0.00930222931468658,77.5,0,60,3.0,0,0.0
0.02,0.01519157517868857,77.5,0,60,3.0,0,0.0
0.025,0.023847336626128316,77.5,0,60,3.0,0,0.0
0.03,0.0359830743700859,77.5,0,60,3.0,0,0.0
0.035,0.05218887796857759,77.5,0,60,3.0,0,0.0
0.04,0.0727577001223134,77.5,0,60,3.0,0,0.0
0.045,0.0974992498694751,77.5,0,60,3.0,0,0.0
0.05,0.12558706050443358,77.5,0,60,3.0,0,0.0
0.055,0.15549263588878245,77.5,0,60,3.0,0,0.0
0.06,0.1850529723539114,77.5,0,60,3.0,0,0.0
0.065,0.21169159439317053,77.5,0,60,3.0,0,0.0
0.07,0.23277292922115492,77.5,0,60,3.0,0,0.0
0.075,0.24602692519491282,77.5,0,60,3.0,0,0.0
0.08,0.24995056064839283,77.5,0,60,3.0,0,0.0
0.085,0.24408826520424054,77.5,0,60,3.0,0,0.0
0.09,0.22911894216865275,77.5,0,60,3.0,0,0.0
0.095,0.20672661788705934,77.5,0,60,3.0,0,0.0
0.1,0.17928878030241233,77.5,0,60,3.0,0,0.0
0.105,0.14946211903866036,77.5,0,60,3.0,0,0.0
0.11,0.1197651512573837,77.5,0,60,3.0,0,0.0
0.115,0.09224675744988023,77.5,0,60,3.0,0,0.0
0.12,0.06829565320281596,77.5,0,60,3.0,0,0.0
0.125,0.04860224607515734,77.5,0,60,3.0,0,0.0
0.13,0.03324612389699793,77.5,0,60,3.0,0,0.0
0.135,0.021859876340472782,77.5,0,60,3.0,0,0.0
0.14,0.01381595518554205,77.5,0,60,3.0,0,0.0
0.145,0.008394095110402422,77.5,0,60,3.0,0,0.0
0.15,0.0049052535271608,77.5,0,60,3.0,0,0.0
0.155,0.0027671663551903634,77.5,0,60,3.0,0,0.0
0.16,0.0015425553464444616,77.5,0,60,3.0,0,0.0
0.165,0.0009638206637011801,77.5,0,60,3.0,0,0.0
0.17,0.0009804935156568228,77.5,0,60,3.0,0,0.0
0.175,0.0018793744894085216,77.5,0,60,3.0,0,0.0
0.18,0.004535525206900863,77.5,0,60,3.0,0,0.0
0.185,0.010832767979632273,77.5,0,60,3.0,0,0.0
0.19,0.024208003392322392,77.5,0,60,3.0,0,0.0
0.195,0.0500971897335304,77.5,0,60,3.0,0,0.0
0.2,0.09582894921774403,77.5,0,60,3.0,0,0.0
0.205,0.16937896721820658,77.5,0,60,3.0,0,0.0
0.21,0.27661303008991756,77.5,0,60,3.0,0,0.0
0.215,0.4173782800009149,77.5,0,60,3.0,0,0.0
0.22,0.5818720934538056,77.5,0,60,3.0,0,0.0
0.225,0.7494718801585675,77.5,0,60,3.0,0,0.0
0.23,0.891813020752378,77.5,0,60,3.0,0,0.0
0.235,0.9800361632936612,77.5,0,60,3.0,0,0.0
0.24,0.993574479225126,77.5,0,60,3.0,0,0.0
0.245,0.9263438449375362,77.5,0,60,3.0,0,0.0
0.25,0.7873015962290536,77.5,0,60,3.0,0,0.0
0.255,0.5959516244629897,77.5,0,60,3.0,0,0.0
0.26,0.376910120078773,77.5,0,60,3.0,0,0.0
0.265,0.15739335672107918,77.5,0,60,3.0,0,0.0
0.27,-0.033361226269301235,77.5,0,60,3.0,0,0.0
0.275,-0.1680180840843834,77.5,0,60,3.0,0,0.0
0.28,-0.23069703190837854,77.5,0,60,3.0,0,0.0
0.285,-0.22587267821131068,77.5,0,60,3.0,0,0.0
0.29,-0.17718181630665902,77.5,0,60,3.0,0,0.0
0.295,-0.11494332516451301,77.5,0,60,3.0,0,0.0
0.3,-0.061810214049552864,77.5,0,60,3.0,0,0.0
0.305,-0.026546104631500547,77.5,0,60,3.0,0,0.0
0.31,-0.00719600351942686,77.5,0,60,3.0,0,0.0
0.315,0.0022072757983807078,77.5,0,60,3.0,0,0.0
0.32,0.006917199873730717,77.5,0,60,3.0,0,0.0
0.325,0.01004859748264829,77.5,0,60,3.0,0,0.0
0.33,0.013037082251128167,77.5,0,60,3.0,0,0.0
0.335,0.01645163937690478,77.5,0,60,3.0,0,0.0
0.34,0.020526639934696615,77.5,0,60,3.0,0,0.0
0.345,0.02539629541761738,77.5,0,60,3.0,0,0.0
0.35,0.031171612185577933,77.5,0,60,3.0,0,0.0
0.355,0.03795853426638131,77.5,0,60,3.0,0,0.0
0.36,0.0458588961882057,77.5,0,60,3.0,0,0.0
0.365,0.054966995891435555,77.5,0,60,3.0,0,0.0
0.37,0.06536491004445595,77.5,0,60,3.0,0,0.0
0.375,0.07711726085088699,77.5,0,60,3.0,0,0.0
0.38,0.09026570629555215,77.5,0,60,3.0,0,0.0
0.385,0.10482339848670268,77.5,0,60,3.0,0,0.0
0.39,0.12076968927580028,77.5,0,60,3.0,0,0.0
0.395,0.13804539501007884,77.5,0,60,3.0,0,0.0
0.4,0.15654895051787066,77.5,0,60,3.0,0,0.0
0.405,0.17613378141900526,77.5,0,60,3.0,0,0.0
0.41,0.19660720058055794,77.5,0,60,3.0,0,0.0
0.415,0.21773108748496234,77.5,0,60,3.0,0,0.0
0.42,0.23922453870058807,77.5,0,60,3.0,0,0.0
0.425,0.2607685857914563,77.5,0,60,3.0,0,0.0
0.43,0.2820129681603682,77.5,0,60,3.0,0,0.0
0.435,0.30258482867153996,77.5,0,60,3.0,0,0.0
0.44,0.3220990771751686,77.5,0,60,3.0,0,0.0
0.445,0.3401700499968971,77.5,0,60,3.0,0,0.0
0.45,0.3564239911198326,77.5,0,60,3.0,0,0.0
0.455,0.3705118017738417,77.5,0,60,3.0,0,0.0
0.46,0.3821214567925213,77.5,0,60,3.0,0,0.0
0.465,0.39098947374066967,77.5,0,60,3.0,0,0.0
0.47,0.3969108472035567,77.5,0,60,3.0,0,0.0
0.475,0.3997469255491936,77.5,0,60,3.0,0,0.0
0.48,0.3994308076379137,77.5,0,60,3.0,0,0.0
0.485,0.3959699661768434,77.5,0,60,3.0,0,0.0
0.49,0.38944595408114946,77.5,0,60,3.0,0,0.0
0.495,0.38001120995358023,77.5,0,60,3.0,0,0.0
0.5,0.3678831374098315,77.5,0,60,3.0,0,0.0
0.505,0.35333577933796634,77.5,0,60,3.0,0,0.0
0.51,0.33668953221163944,77.5,0,60,3.0,0,0.0
0.515,0.3182994390982644,77.5,0,60,3.0,0,0.0
0.52,0.29854265738230645,77.5,0,60,3.0,0,0.0
0.525,0.2778057157821067,77.5,0,60,3.0,0,0.0
0.53,0.2564721553719815,77.5,0,60,3.0,0,0.0
0.535,0.23491109433464996,77.5,0,60,3.0,0,0.0
0.54,0.21346717185309805,77.5,0,60,3.0,0,0.0
0.545,0.19245222055656455,77.5,0,60,3.0,0,0.0
0.55,0.17213889801761392,77.5,0,60,3.0,0,0.0
0.555,0.15275638501270183,77.5,0,60,3.0,0,0.0
0.56,0.13448814019607322,77.5,0,60,3.0,0,0.0
0.565,0.11747159495449566,77.5,0,60,3.0,0,0.0
0.57,0.10179958433370105,77.5,0,60,3.0,0,0.0
0.575,0.08752324394101413,77.5,0,60,3.0,0,0.0
0.58,0.07465606047174059,77.5,0,60,3.0,0,0.0
0.585,0.0631787448609295,77.5,0,60,3.0,0,0.0
0.59,0.05304460019959574,77.5,0,60,3.0,0,0.0
0.595,0.044185078305849994,77.5,0,60,3.0,0,0.0
0.6,0.03651525513023255,77.5,0,60,3.0,0,0.0
0.605,0.0299390014708757,77.5,0,60,3.0,0,0.0
0.61,0.024353677220580638,77.5,0,60,3.0,0,0.0
0.615,0.01965423034339045,77.5,0,60,3.0,0,0.0
0.62,0.015736632374757337,77.5,0,60,3.0,0,0.0
0.625,0.012500627640593535,77.5,0,60,3.0,0,0.0
0.63,0.009851811652115898,77.5,0,60,3.0,0,0.0
0.635,0.007703084175428559,77.5,0,60,3.0,0,0.0
0.64,0.005975544002062424,77.5,0,60,3.0,0,0.0
0.645,0.004598905818663047,77.5,0,60,3.0,0,0.0
0.65,0.0035115256454839104,77.5,0,60,3.0,0,0.0
0.655,0.002660121266303676,77.5,0,60,3.0,0,0.0
0.66,0.0019992692560877024,77.5,0,60,3.0,0,0.0
0.665,0.0014907520044639367,77.5,0,60,3.0,0,0.0
0.67,0.0011028178277539807,77.5,0,60,3.0,0,0.0
0.675,0.0008094059938923333,77.5,0,60,3.0,0,0.0
0.68,0.0005893771793717645,77.5,0,60,3.0,0,0.0
0.685,0.0004257792353490551,77.5,0,60,3.0,0,0.0
0.69,0.0003051686392901525,77.5,0,60,3.0,0,0.0
0.695,0.00021699992642659966,77.5,0,60,3.0,0,0.0
0.7,0.00015308884054097838,77.5,0,60,3.0,0,0.0
0.705,0.00010714989329311098,77.5,0,60,3.0,0,0.0
0.71,7.440535854020571e-05,77.5,0,60,3.0,0,0.0
0.715,5.1260276743925106e-05,77.5,0,60,3.0,0,0.0
0.72,3.503659887882241e-05,77.5,0,60,3.0,0,0.0
0.725,2.375894748103639e-05,77.5,0,60,3.0,0,0.0
0.73,1.5984413869232557e-05,77.5,0,60,3.0,0,0.0
0.735,1.0669166579899869e-05,77.5,0,60,3.0,0,0.0
0.74,7.06526633560511e-06,77.5,0,60,3.0,0,0.0
0.745,4.641847214699205e-06,77.5,0,60,3.0,0,0.0
0.75,3.025641074479182e-06,77.5,0,60,3.0,0,0.0
0.755,1.9566278676921314e-06,77.5,0,60,3.0,0,0.0
0.76,1.2553456560008793e-06,77.5,0,60,3.0,0,0.0
0.765,7.990660428214668e-07,77.5,0,60,3.0,0,0.0
0.77,5.046221251618276e-07,77.5,0,60,3.0,0,0.0
0.775,3.1616527078858815e-07,77.5,0,60,3.0,0,0.0
0.78,1.9652884407760343e-07,77.5,0,60,3.0,0,0.0
0.785,1.2120002189836396e-07,77.5,0,60,3.0,0,0.0
0.79,7.415549848886236e-08,77.5,0,60,3.0,0,0.0
0.795,4.501406988770349e-08,77.5,0,60,3.0,0,0.0
0.8,0.0,77.5,0,60,3.0,0,0.0
0.805,0.0,77.5,0,60,3.0,0,0.0
0.81,0.0,77.5,0,60,3.0,0,0.0
0.815,0.0,77.5,0,60,3.0,0,0.0
0.82,0.0,77.5,0,60,3.0,0,0.0
0.825,0.0,77.5,0,60,3.0,0,0.0
0.83,0.0,77.5,0,60,3.0,0,0.0
0.835,0.0,77.5,0,60,3.0,0,0.0
0.84,0.0,77.5,0,60,3.0,0,0.0
0.845,0.0,77.5,0,60,3.0,0,0.0
0.85,0.0,77.5,0,60,3.0,0,0.0
0.855,0.0,77.5,0,60,3.0,0,0.0
0.86,0.0,77.5,0,60,3.0,0,0.0
0.865,0.0,77.5,0,60,3.0,0,0.0
0.87,0.0,77.5,0,60,3.0,0,0.0
0.875,0.0,77.5,0,60,3.0,0,0.0
0.88,0.0,77.5,0,60,3.0,0,0.0
0.885,0.0,77.5,0,60,3.0,0,0.0
0.89,0.0,77.5,0,60,3.0,0,0.0
0.895,0.0,77.5,0,60,3.0,0,0.0
0.9,0.0,77.5,0,60,3.0,0,0.0
0.905,0.0,77.5,0,60,3.0,0,0.0
0.91,0.0,77.5,0,60,3.0,0,0.0
0.915,0.0,77.5,0,60,3.0,0,0.0
0.92,0.0,77.5,0,60,3.0,0,0.0
0.925,0.0,77.5,0,60,3.0,0,0.0
0.93,0.0,77.5,0,60,3.0,0,0.0
0.935,0.0,77.5,0,60,3.0,0,0.0
0.94,0.0,77.5,0,60,3.0,0,0.0
0.945,0.0,77.5,0,60,3.0,0,0.0
0.95,0.0,77.5,0,60,3.0,0,0.0
0.955,0.0,77.5,0,60,3.0,0,0.0
0.96,0.0,77.5,0,60,3.0,0,0.0
0.965,0.0,77.5,0,60,3.0,0,0.0
0.97,0.0,77.5,0,60,3.0,0,0.0
0.975,0.0,77.5,0,60,3.0,0,0.0
0.98,0.0,77.5,0,60,3.0,0,0.0
0.985,0.0,77.5,0,60,3.0,0,0.0
0.99,0.001684486749771458,77.5,0,60,3.0,0,0.0
0.995,0.003097557930867117,77.5,0,60,3.0,0,0.0
1.0,0.005475106668887023,77.5,0,60,3.0,0,0.0
1.005,0.00930222931468658,77.5,0,60,3.0,0,0.0
1.01,0.01519157517868857,77.5,0,60,3.0,0,0.0
1.015,0.023847336626128316,77.5,0,60,3.0,0,0.0
1.02,0.0359830743700859,77.5,0,60,3.0,0,0.0
1.025,0.05218887796857759,77.5,0,60,3.0,0,0.0
1.03,0.0727577001223134,77.5,0,60,3.0,0,0.0
1.035,0.0974992498694751,77.5,0,60,3.0,0,0.0
1.04,0.12558706050443358,77.5,0,60,3.0,0,0.0
1.045,0.15549263588878245,77.5,0,60,3.0,0,0.0
1.05,0.1850529723539114,77.5,0,60,3.0,0,0.0
1.055,0.21169159439317053,77.5,0,60,3.0,0,0.0
1.06,0.23277292922115492,77.5,0,60,3.0,0,0.0
1.065,0.24602692519491282,77.5,0,60,3.0,0,0.0
1.07,0.24995056064839283,77.5,0,60,3.0,0,0.0
1.075,0.24408826520424054,77.5,0,60,3.0,0,0.0
1.08,0.22911894216865275,77.5,0,60,3.0,0,0.0
1.085,0.20672661788705934,77.5,0,60,3.0,0,0.0
1.09,0.17928878030241233,77.5,0,60,3.0,0,0.0
1.095,0.14946211903866036,77.5,0,60,3.0,0,0.0
1.1,0.1197651512573837,77.5,0,60,3.0,0,0.0
1.105,0.09224675744988023,77.5,0,60,3.0,0,0.0
1.11,0.06829565320281596,77.5,0,60,3.0,0,0.0
1.115,0.04860224607515734,77.5,0,60,3.0,0,0.0
1.12,0.03324612389699793,77.5,0,60,3.0,0,0.0
1.125,0.021859876340472782,77.5,0,60,3.0,0,0.0
1.13,0.01381595518554205,77.5,0,60,3.0,0,0.0
1.135,0.008394095110402422,77.5,0,60,3.0,0,0.0
1.14,0.0049052535271608,77.5,0,60,3.0,0,0.0
1.145,0.0027671663551903634,77.5,0,60,3.0,0,0.0
1.15,0.0015425553464444616,77.5,0,60,3.0,0,0.0
1.155,0.0009638206637011801,77.5,0,60,3.0,0,0.0
1.16,0.0009804935156568228,77.5,0,60,3.0,0,0.0
1.165,0.0018793744894085216,77.5,0,60,3.0,0,0.0
1.17,0.004535525206900863,77.5,0,60,3.0,0,0.0
1.175,0.010832767979632273,77.5,0,60,3.0,0,0.0
1.18,0.024208003392322392,77.5,0,60,3.0,0,0.0
1.185,0.0500971897335304,77.5,0,60,3.0,0,0.0
1.19,0.09582894921774403,77.5,0,60,3.0,0,0.0
1.195,0.16937896721820658,77.5,0,60,3.0,0,0.0
1.2,0.27661303008991756,77.5,0,60,3.0,0,0.0
1.205,0.4173782800009149,77.5,0,60,3.0,1,0.0
1.21,0.5818720934538056,77.5,0,60,3.0,1,0.0
1.215,0.7494718801585675,77.5,0,60,3.0,1,0.0
1.22,0.891813020752378,77.5,0,60,3.0,1,0.0
1.225,0.9800361632936612,77.5,0,60,3.0,1,0.0
1.23,0.993574479225126,77.50000249181176,1,60,3.0,1,5.863086484810885e-08
1.235,0.9263438449375362,77.50000384183856,0,60,3.0,1,9.039620147846375e-08
1.24,0.7873015962290536,77.50000605203118,0,60,3.0,1,1.4240073369364837e-07
1.245,0.5959516244629897,77.5000098502643,0,60,3.0,1,2.317709248365966e-07
1.25,0.376910120078773,77.50001674040978,0,60,3.0,1,3.9389199474392037e-07
1.255,0.15739335672107918,77.50002988936268,0,60,3.0,1,7.032791218615089e-07
1.26,-0.033361226269301235,77.50005598658028,0,60,3.0,1,1.3173313006705832e-06
1.265,-0.1680180840843834,77.50010904250446,0,60,3.0,1,2.565705987348445e-06
1.27,-0.23069703190837854,77.50021792763697,0,60,3.0,1,5.127709105114691e-06
1.275,-0.22587267821131068,77.50044088337641,0,60,3.0,1,1.0373726503838256e-05
1.28,-0.17718181630665902,77.50089256449868,0,60,3.0,1,2.1001517616107722e-05
1.285,-0.11494332516451301,77.50179276579377,0,60,3.0,1,4.218272455920455e-05
1.29,-0.061810214049552864,77.50355118942913,0,60,3.0,1,8.355739833251285e-05
1.295,-0.026546104631500547,77.50690959240086,0,60,3.0,1,0.00016257864472610142
1.3,-0.00719600351942686,77.51317112223475,0,60,3.0,1,0.00030990875846475104
1.305,0.0022072757983807078,77.52455545137923,0,60,3.0,1,0.0005777753265700834
1.31,0.006917199873730717,77.54472497706796,0,60,3.0,1,0.0010523524015990033
1.315,0.01004859748264829,77.57952766654348,0,60,3.0,1,0.001871239212787861
1.32,0.013037082251128167,77.63799012210991,0,60,3.0,1,0.0032468264025861597
1.325,0.01645163937690478,77.7335629797193,0,60,3.0,1,0.005495599522806943
1.33,0.020526639934696615,77.88556318136334,0,60,3.0,1,0.009072074855607954
1.335,0.02539629541761738,78.12067063847793,0,60,3.0,1,0.014604015023010173
1.34,0.031171612185577933,78.47422412231587,0,60,3.0,1,0.022922920525079396
1.345,0.03795853426638131,78.99093771170499,0,60,3.0,1,0.03508088733423499
1.35,0.0458588961882057,79.72455313644113,0,60,3.0,1,0.05234242673979131
1.355,0.054966995891435555,80.7358957043249,0,60,3.0,1,0.07613872245470361
1.36,0.06536491004445595,82.08885917455554,0,60,3.0,1,0.10797315704836559
1.365,0.07711726085088699,83.84404871167135,0,60,3.0,1,0.149271734392267
1.37,0.09026570629555215,86.05017854498587,0,60,3.0,1,0.20118067164672632
1.375,0.10482339848670268,88.73382931864452,0,60,3.0,1,0.26432539573281233
1.38,0.12076968927580028,91.88874480991677,0,60,3.0,1,0.33855870140980643
1.385,0.13804539501007884,95.46636445671342,0,60,3.0,1,0.4227379872167864
1.39,0.15654895051787066,99.36959295544153,0,60,3.0,1,0.5145786577750949
1.395,0.17613378141900526,103.45175485582882,0,60,3.0,1,0.6106295260195017
1.4,0.19660720058055794,107.5221797930646,0,60,3.0,1,0.7064042304250493
1.405,0.21773108748496234,111.35892106398657,0,60,3.0,1,0.7966804956232134
1.41,0.23922453870058807,114.72785713078791,0,60,3.0,1,0.8759495795479508
1.415,0.2607685857914563,117.40610393874456,0,60,3.0,1,0.9389671514998721
1.42,0.2820129681603682,119.20657953132158,0,60,3.0,1,0.9813312830899196
1.425,0.30258482867153996,120.0,0,60,3.0,1,1.0
1.43,0.3220990771751686,119.73073626244305,0,60,3.0,1,0.9936643826457188
1.435,0.3401700499968971,118.4238494759471,0,60,3.0,1,0.9629141053164022
1.44,0.3564239911198326,116.18208945321945,0,60,3.0,1,0.910166810663987
1.445,0.3705118017738417,113.1733745291447,0,60,3.0,1,0.8393735183328164
1.45,0.3821214567925213,109.61089082664786,0,60,3.0,1,0.7555503723917144
1.455,0.39098947374066967,105.7291023657552,0,60,3.0,1,0.6642141733118869
1.46,0.3969108472035567,101.75942264604797,0,60,3.0,1,0.5708099446128934
1.465,0.3997469255491936,97.90901232617857,0,60,3.0,1,0.4802120547336134
1.47,0.3994308076379137,94.34526416670559,0,60,3.0,1,0.39635915686366097
1.475,0.3959699661768434,91.18727314888353,0,60,3.0,1,0.3220534858560832
1.48,0.38944595408114946,88.50427463175579,0,60,3.0,1,0.2589241089824892
1.485,0.38001120995358023,86.3199414541806,0,60,3.0,1,0.20752803421601396
1.49,0.3678831374098315,84.62074135275094,0,60,3.0,1,0.16754685535884564
1.495,0.35333577933796634,83.36632600348436,0,60,3.0,1,0.13803120008198494
1.5,0.33668953221163944,82.5000975498113,0,60,3.0,1,0.11764935411320708
1.505,0.3182994390982644,81.95854814001777,0,60,3.0,1,0.1049070150592416
1.51,0.29854265738230645,81.67853656537754,0,60,3.0,1,0.09831850742064803
1.515,0.2778057157821067,81.60221366217804,0,60,3.0,1,0.09652267440418928
1.52,0.2564721553719815,81.67973868879486,0,60,3.0,1,0.09834679267752602
1.525,0.23491109433464996,81.87019922391292,0,60,3.0,1,0.10282821703324517
1.53,0.21346717185309805,82.14126026801704,0,60,3.0,1,0.109206123953342
1.535,0.19245222055656455,82.46805768409277,0,60,3.0,1,0.11689547491982988
1.54,0.17213889801761392,82.83176315010746,0,60,3.0,1,0.12545325059076384
1.545,0.15275638501270183,83.21812687136497,0,60,3.0,1,0.13454416167917582
1.55,0.13448814019607322,83.61618424954153,0,60,3.0,1,0.14391021763627135
1.555,0.11747159495449566,84.01721373745077,0,60,3.0,1,0.15334620558707704
1.56,0.10179958433370105,84.41396310723198,0,60,3.0,1,0.16268148487604656
1.565,0.08752324394101413,84.80011942466255,0,60,3.0,1,0.17176751587441305
1.57,0.07465606047174059,85.1699784655929,0,60,3.0,1,0.18047008154336247
1.575,0.0631787448609295,85.51826494996435,0,60,3.0,1,0.18866505764621994
1.58,0.05304460019959574,85.840059253804,0,60,3.0,1,0.1962366883248
1.585,0.044185078305849994,86.13079426679849,0,60,3.0,1,0.20307751215996445
1.59,0.03651525513023255,86.38629466659549,0,60,3.0,1,0.20908928627283505
1.595,0.0299390014708757,86.60283845793114,0,60,3.0,1,0.21418443430426218
1.6,0.024353677220580638,86.77722659458583,0,60,3.0,1,0.21828768457849004
1.605,0.01965423034339045,86.90685088831356,0,60,3.0,1,0.22133766796031898
1.61,0.015736632374757337,86.98975350722205,0,60,3.0,1,0.22328831781698935
1.615,0.012500627640593535,87.02467353697683,0,60,3.0,1,0.22410996557592552
1.62,0.009851811652115898,87.0110776394444,0,60,3.0,1,0.223790062104574
1.625,0.007703084175428559,86.94917303121116,0,60,3.0,1,0.2223334830873214
1.63,0.005975544002062424,86.83990197261397,0,60,3.0,1,0.2197623993556229
1.635,0.004598905818663047,86.68491779355341,0,60,3.0,1,0.21611571278949201
1.64,0.0035115256454839104,86.4865432253902,0,60,3.0,1,0.21144807589153394
1.645,0.002660121266303676,86.2477124690008,0,60,3.0,1,0.20582852868237184
1.65,0.0019992692560877024,85.9718990017495,0,60,3.0,1,0.19933880004116483
1.655,0.0014907520044639367,85.66303159799958,0,60,3.0,1,0.1920713317176371
1.66,0.0011028178277539807,85.32540139533346,0,60,3.0,1,0.1841270916549049
1.665,0.0008094059938923333,84.96356307129537,0,60,3.0,1,0.1756132487363616
1.67,0.0005893771793717645,84.58223329764274,0,60,3.0,1,0.16664078347394692
1.675,0.0004257792353490551,84.18618961118601,0,60,3.0,1,0.15732210849849432
1.68,0.0003051686392901525,83.78017268883372,0,60,3.0,1,0.14776876914902862
1.685,0.00021699992642659966,83.36879475167348,0,60,3.0,1,0.13808928827467004
1.69,0.00015308884054097838,82.95645646592097,0,60,3.0,1,0.12838721096284625
1.695,0.00010714989329311098,82.5472742782177,0,60,3.0,1,0.11875939478159292
1.7,7.440535854020571e-05,82.1450196423469,0,60,3.0,1,0.10929457981992695
1.705,5.1260276743925106e-05,81.75307108830053,0,60,3.0,1,0.10007226090118894
1.71,3.503659887882241e-05,81.37437957677281,0,60,3.0,1,0.09116187239465436
1.715,2.375894748103639e-05,81.01144709498455,0,60,3.0,1,0.08262228458787169
1.72,1.5984413869232557e-05,80.66631800298667,0,60,3.0,1,0.0745016000702746
1.725,1.0669166579899869e-05,80.34058224944994,0,60,3.0,1,0.06683722939882206
1.73,7.06526633560511e-06,80.03538925452028,0,60,3.0,1,0.059656217753418415
1.735,4.641847214699205e-06,79.75147101231343,0,60,3.0,1,0.0529757885250219
1.74,3.025641074479182e-06,79.4891728003454,0,60,3.0,1,0.046804065890480015
1.745,1.9566278676921314e-06,79.24848979680112,0,60,3.0,1,0.041140936395320564
1.75,1.2553456560008793e-06,79.02910789449058,0,60,3.0,1,0.035979009282131276
1.755,7.990660428214668e-07,78.8304470550233,0,60,3.0,1,0.03130463658878351
1.76,5.046221251618276e-07,78.65170565820313,0,60,3.0,1,0.027098956663602996
1.765,3.1616527078858815e-07,78.49190445841805,0,60,3.0,1,0.02333892843336584
1.77,1.9652884407760343e-07,78.34992894961812,0,60,3.0,1,0.01999832822630865
1.775,1.2120002189836396e-07,78.22456915105091,0,60,3.0,1,0.017048685907080346
1.78,7.415549848886236e-08,78.11455604558064,0,60,3.0,1,0.014460142248956278
1.785,4.501406988770349e-08,78.018594120612,0,60,3.0,1,0.01220221460263514
1.79,0.0,77.93538966935525,0,60,3.0,1,0.010244462808358723
1.795,0.0,77.86367470016516,0,60,3.0,1,0.008557051768592066
1.8,0.0,77.80222646861542,0,60,3.0,1,0.00711121102624508
1.805,0.0,77.74988278736755,0,60,3.0,1,0.0058795949968836175
1.81,0.0,77.70555338106993,0,60,3.0,1,0.004836550142821954
1.815,0.0,77.66822763736607,0,60,3.0,1,0.0039582973497899465
1.82,0.0,77.63697916182198,0,60,3.0,1,0.0032230391016937307
1.825,0.0,77.61096757646521,0,60,3.0,1,0.0026110017991815017
1.83,0.0,77.58943801168321,0,60,3.0,1,0.002104423804310914
1.835,0.0,77.57171873294385,0,60,3.0,1,0.0016874995986788288
1.84,0.0,77.55721732087633,0,60,3.0,1,0.0013462899029725443
1.845,0.0,77.54541578936765,0,60,3.0,1,0.0010686068086506431
1.85,0.0,77.53586498497702,0,60,3.0,1,0.0008438819994594001
1.855,0.0,77.52817856529884,0,60,3.0,1,0.0006630250658551685
1.86,0.0,77.52202680664169,0,60,3.0,1,0.0005182778033338978
1.865,0.0,77.5171304447848,0,60,3.0,1,0.0004030692890540542
1.87,0.0,77.51325470838246,0,60,3.0,1,0.0003118754913520447
1.875,0.0,77.51020366409061,0,60,3.0,1,0.00024008621389672204
1.88,0.0,77.50781495653038,0,60,3.0,1,0.00018388133012663008
1.885,0.0,77.50595499523384,0,60,3.0,1,0.00014011753491378358
1.89,0.0,77.50451461486995,0,60,3.0,1,0.00010622623223405433
1.895,0.0,77.50340521419459,0,60,3.0,1,8.012268693144452e-05
1.9,0.0,77.50255536298914,0,60,3.0,1,6.012618797981037e-05
1.905,0.0,77.50190785429267,0,60,3.0,1,4.489068923924285e-05
1.91,0.0,77.50141717096078,0,60,3.0,1,3.334519907712895e-05
1.915,0.0,77.50104733043376,0,60,3.0,1,2.4643069029734227e-05
1.92,0.0,77.50077006899966,0,60,3.0,1,1.811927058016034e-05
1.925,0.0,77.50056332625815,0,60,3.0,1,1.3254735485776002e-05
1.93,0.0,77.50040999143872,0,60,3.0,1,9.646857381540031e-06
1.935,0.0,77.50029687526775,0,60,3.0,1,6.985300417655333e-06
1.94,0.0,77.50021387384992,0,60,3.0,1,5.032325880366068e-06
1.945,0.0,77.50015329422482,0,60,3.0,1,3.6069229368502634e-06
1.95,0.0,77.50010931464227,0,60,3.0,1,2.5721092299590965e-06
1.955,0.0,77.50007755598538,0,60,3.0,1,1.824846714939935e-06
1.96,0.0,77.50005474402688,0,60,3.0,1,1.288094750193255e-06
1.965,0.0,77.50003844524194,0,60,3.0,1,9.045939280253258e-07
1.97,0.0,77.50002686166287,0,60,3.0,1,6.320391264580394e-07
1.975,0.0,77.50001867272185,0,60,3.0,1,4.393581611887331e-07
1.98,0.0,77.50001291417894,0,60,3.0,1,3.0386303385111047e-07
1.985,0.001684486749771458,77.5000088860839,0,60,3.0,1,2.0908432715901547e-07
1.99,0.003097557930867117,77.50000608328911,0,60,3.0,1,1.431362143060088e-07
1.995,0.005475106668887023,77.50000414334353,0,60,3.0,1,9.7490436032518e-08
2.0,0.00930222931468658,77.50000280768167,0,60,3.0,1,6.606309806128968e-08
2.005,0.01519157517868857,77.50000189290678,0,60,3.0,1,4.453898307420947e-08
2.01,0.023847336626128316,77.50000126968219,0,60,3.0,1,2.9874874986917885e-08
2.015,0.0359830743700859,77.50000084731572,0,60,3.0,1,1.9936840424313284e-08
2.02,0.05218887796857759,77.50000056257437,0,60,3.0,1,1.3237044025599436e-08
2.025,0.0727577001223134,77.50000037161998,0,60,3.0,1,8.743999427786228e-09
2.03,0.0974992498694751,77.50000024423203,0,60,3.0,1,5.7466359200642566e-09
2.035,0.12558706050443358,77.50000015969474,0,60,3.0,1,3.757523191940409e-09
2.04,0.15549263588878245,77.50000010388743,0,60,3.0,1,2.444410122681053e-09
2.045,0.1850529723539114,77.50000006723879,0,60,3.0,1,1.5820891054746051e-09
2.05,0.21169159439317053,77.50000004329733,0,60,3.0,1,1.018760793372434e-09
2.055,0.23277292922115492,77.50000002773875,0,60,3.0,1,6.526764697328498e-10
2.06,0.24602692519491282,77.5000000176806,0,60,3.0,1,4.1601424527470956e-10
2.065,0.24995056064839283,77.50000001121222,0,60,3.0,1,2.6381699439405244e-10
2.07,0.24408826520424054,77.50000000707409,0,60,3.0,1,1.6644923348127014e-10
2.075,0.22911894216865275,77.50000000444052,0,60,3.0,1,1.0448288508889484e-10
2.08,0.20672661788705934,77.5000000027732,0,60,3.0,1,6.525189800253001e-11
2.085,0.17928878030241233,77.50000000172311,0,60,3.0,1,4.054373568899738e-11
2.09,0.14946211903866036,77.5000000010652,0,60,3.0,1,2.5063600867938744e-11
2.095,0.1197651512573837,77.50000000065513,0,60,3.0,1,1.5414932075894767e-11
2.1,0.09224675744988023,77.50000000040089,0,60,3.0,1,9.432663800372906e-12
2.105,0.06829565320281596,77.50000000024406,0,60,3.0,1,5.7425227971500995e-12
2.11,0.04860224607515734,77.50000000014782,0,60,3.0,1,3.4781484881772057e-12
2.115,0.03324612389699793,77.50000000008907,0,60,3.0,1,2.0958502907032036e-12
2.12,0.021859876340472782,77.5000000000534,0,60,3.0,1,1.2565739298759795e-12
2.125,0.01381595518554205,77.50000000003186,0,60,3.0,1,7.49664382858421e-13
2.13,0.008394095110402422,77.5000000000189,0,60,3.0,1,4.447161593227921e-13
2.135,0.0049052535271608,77.50000000001116,0,60,3.0,1,2.6248284591608404e-13
2.14,0.0027671663551903634,77.50000000000655,0,60,3.0,1,1.5414597702842645e-13
2.145,0.0015425553464444616,77.50000000000384,0,60,3.0,1,9.028072407304802e-14
2.15,0.0009638206637011801,77.50000000000223,0,60,3.0,1,5.2496569183216817e-14
2.155,0.0009804935156568228,77.5000000000013,0,60,3.0,1,3.042794774313841e-14
2.16,0.0018793744894085216,77.50000000000074,0,60,3.0,1,1.7387398710364806e-14
2.165,0.004535525206900863,77.50000000000043,0,60,3.0,1,1.0031191563672003e-14
2.17,0.010832767979632273,77.50000000000024,0,60,3.0,1,5.684341886080802e-15
2.175,0.024208003392322392,77.50000000000014,0,60,3.0,1,3.343730521224001e-15
2.18,0.0500971897335304,77.50000000000007,0,60,3.0,1,1.6718652606120004e-15
2.185,0.09582894921774403,77.50000000000004,0,60,3.0,1,1.0031191563672002e-15
2.19,0.16937896721820658,77.50000000000003,0,60,3.0,1,6.687461042448002e-16
2.195,0.27661303008991756,77.50000000000001,0,60,3.0,1,3.343730521224001e-16
2.2,0.4173782800009149,77.5,0,60,3.0,1,0.0
2.205,0.5818720934538056,77.5,0,60,3.0,1,0.0
2.21,0.7494718801585675,77.5,0,60,3.0,1,0.0
2.215,0.891813020752378,77.5,0,60,3.0,1,0.0
2.22,0.9800361632936612,77.5,0,60,3.0,1,0.0
2.225,0.993574479225126,77.50000249050753,1,60,3.0,1,5.860017709250421e-08
2.23,0.9263438449375362,77.50000395106206,0,60,3.0,1,9.296616600723236e-08
2.235,0.7873015962290536,77.50000642787194,0,60,3.0,1,1.5124404559601852e-07
2.24,0.5959516244629897,77.50001086957876,0,60,3.0,1,2.5575479432571977e-07
2.245,0.376910120078773,77.50001933821008,0,60,3.0,1,4.5501670777358574e-07
2.25,0.15739335672107918,77.50003639731811,0,60,3.0,1,8.564074849961317e-07
2.255,-0.033361226269301235,77.50007214536325,0,60,3.0,1,1.6975379587754158e-06
2.26,-0.1680180840843834,77.50014864662121,0,60,3.0,1,3.497567557949022e-06
2.265,-0.23069703190837854,77.5003131184379,0,60,3.0,1,7.36749265650574e-06
2.27,-0.22587267821131068,77.500664030793,0,60,3.0,1,1.5624253953038694e-05
2.275,-0.17718181630665902,77.5014008725421,0,60,3.0,1,3.296170687309207e-05
2.28,-0.11494332516451301,77.50291542048535,0,60,3.0,1,6.859812906708719e-05
2.285,-0.061810214049552864,77.50595243758998,0,60,3.0,1,0.0001400573550584153
2.29,-0.026546104631500547,77.5118807386687,0,60,3.0,1,0.00027954679220456186
2.295,-0.00719600351942686,77.52313007196037,0,60,3.0,1,0.0005442369873027447
2.3,0.0022072757983807078,77.54386157357962,0,60,3.0,1,0.0010320370254028014
2.305,0.006917199873730717,77.5809427790935,0,60,3.0,1,0.001904535978670698
2.31,0.01004859748264829,77.64528190999502,0,60,3.0,1,0.003418397882235775
2.315,0.013037082251128167,77.75352741193507,0,60,3.0,1,0.005965350869060411
2.32,0.01645163937690478,77.93004507355718,0,60,3.0,1,0.010118707613110152
2.325,0.020526639934696615,78.20894036195537,0,60,3.0,1,0.016680949693067545
2.33,0.02539629541761738,78.63570592691048,0,60,3.0,1,0.026722492397893535
2.335,0.031171612185577933,79.26787381502005,0,60,3.0,1,0.04159703094164831
2.34,0.03795853426638131,80.17389566837979,0,60,3.0,1,0.06291519219717141
2.345,0.0458588961882057,81.42944155332607,0,60,3.0,1,0.09245744831355462
2.35,0.054966995891435555,83.11048484112004,0,60,3.0,1,0.1320114080263539
2.355,0.06536491004445595,85.28298955260263,0,60,3.0,1,0.18312916594359127
2.36,0.07711726085088699,87.98974091129064,0,60,3.0,1,0.24681743320683855
2.365,0.09026570629555215,91.23577088555736,0,60,3.0,1,0.3231946090719378
2.37,0.10482339848670268,94.97473679171395,0,60,3.0,1,0.41117027745209295
2.375,0.12076968927580028,99.09924303115474,0,60,3.0,1,0.5082174830859939
2.38,0.13804539501007884,103.43817155566782,0,60,3.0,1,0.6103099189568899
2.385,0.15654895051787066,107.76340569231442,0,60,3.0,1,0.7120801339368099
2.39,0.17613378141900526,111.80687226714731,0,60,3.0,1,0.8072205239328779
2.395,0.19660720058055794,115.28680180953708,0,60,3.0,1,0.8891012190479314
2.4,0.21773108748496234,117.939950994308,0,60,3.0,1,0.9515282586896001
2.405,0.23922453870058807,119.55480470673967,0,60,3.0,1,0.9895248166291688
2.41,0.2607685857914563,120.0,0,60,3.0,2,1.0
2.415,0.2820129681603682,119.2427031271878,0,60,3.0,2,0.9821812500514775
2.42,0.30258482867153996,117.35340246649798,0,60,3.0,2,0.9377271168587761
2.425,0.3220990771751686,114.49617856710162,0,60,3.0,2,0.8704983192259206
2.43,0.3401700499968971,110.90634455456376,0,60,3.0,2,0.7860316365779708
2.435,0.3564239911198326,106.85971216406287,0,60,3.0,2,0.6908167568014792
2.44,0.3705118017738417,102.63906838027276,0,60,3.0,2,0.5915074913005356
2.445,0.3821214567925213,98.50348592407586,0,60,3.0,2,0.49419966880178495
2.45,0.39098947374066967,94.6649394119341,0,60,3.0,2,0.4038809273396259
2.455,0.3969108472035567,91.27476045846622,0,60,3.0,2,0.32411201078744045
2.46,0.3997469255491936,88.42029491575614,0,60,3.0,2,0.2569481156648505
2.465,0.3994308076379137,86.1302561255255,0,60,3.0,2,0.20306485001236485
2.47,0.3959699661768434,84.38606505349605,0,60,3.0,2,0.1620250600822601
2.475,0.38944595408114946,83.13606111329378,0,60,3.0,2,0.13261320266573595
2.48,0.38001120995358023,82.3097636967015,0,60,3.0,2,0.1131709105106234
2.485,0.3678831374098315,81.83012410121097,0,60,3.0,2,0.10188527296966989
2.49,0.35333577933796634,81.62264316265689,0,60,3.0,2,0.09700336853310318
2.495,0.33668953221163944,81.62109337541757,0,60,3.0,2,0.09696690295100172
2.5,0.3182994390982644,81.77021876896845,0,60,3.0,2,0.10047573574043407
2.505,0.29854265738230645,82.02613689034814,0,60,3.0,2,0.10649733859642685
2.51,0.2778057157821067,82.35526274278222,0,60,3.0,2,0.11424147630075802
2.515,0.2564721553719815,82.732489112525,0,60,3.0,2,0.12311739088294123
2.52,0.23491109433464996,83.1391776893984,0,60,3.0,2,0.1326865338681975
2.525,0.21346717185309805,83.56131364110216,0,60,3.0,2,0.1426191444965214
2.53,0.19245222055656455,83.98800050530251,0,60,3.0,2,0.15265883541888256
2.535,0.17213889801761392,84.41034429853448,0,60,3.0,2,0.16259633643610547
2.54,0.15275638501270183,84.82069785711761,0,60,3.0,2,0.17225171428512018
2.545,0.13448814019607322,85.21219955540259,0,60,3.0,2,0.18146351895064922
2.55,0.11747159495449566,85.57853160195718,0,60,3.0,2,0.19008309651663954
2.555,0.10179958433370105,85.91382981547181,0,60,3.0,2,0.19797246624639564
2.56,0.08752324394101413,86.21268994914546,0,60,3.0,2,0.2050044693916578
2.565,0.07465606047174059,86.47022959575179,0,60,3.0,2,0.21106422578239503
2.57,0.0631787448609295,86.68217668609483,0,60,3.0,2,0.21605121614340786
2.575,0.05304460019959574,86.84496474003129,0,60,3.0,2,0.2198815232948538
2.58,0.044185078305849994,86.95582153533789,0,60,3.0,2,0.22248991847853858
2.585,0.03651525513023255,87.01284233156939,0,60,3.0,2,0.22383158427222088
2.59,0.0299390014708757,87.015041873607,0,60,3.0,2,0.22388333820251774
2.595,0.024353677220580638,86.96238162945944,0,60,3.0,2,0.22264427363433983
2.6,0.01965423034339045,86.85577044944225,0,60,3.0,2,0.22013577528099404
2.605,0.015736632374757337,86.69703828162079,0,60,3.0,2,0.21640090074401863
2.61,0.012500627640593535,86.48888384506544,0,60,3.0,2,0.21150314929565753
2.615,0.009851811652115898,86.2347982820105,0,60,3.0,2,0.20552466545907064
2.62,0.007703084175428559,85.93896777761937,0,60,3.0,2,0.198563947708691
2.625,0.005975544002062424,85.60615892982422,0,60,3.0,2,0.1907331512899816
2.63,0.004598905818663047,85.24159124658097,0,60,3.0,2,0.18215508815484627
2.635,0.0035115256454839104,84.85080152406493,0,60,3.0,2,0.17296003586035139
2.64,0.002660121266303676,84.43950500685918,0,60,3.0,2,0.16328247074962773
2.645,0.0019992692560877024,84.01345815191472,0,60,3.0,2,0.15325783886858163
2.65,0.0014907520044639367,83.57832752591341,0,60,3.0,2,0.14301947119796254
2.655,0.0011028178277539807,83.13956888561076,0,60,3.0,2,0.132695738484959
2.66,0.0008094059938923333,82.70231985687685,0,60,3.0,2,0.12240752604416129
2.665,0.0005893771793717645,82.27130888121326,0,60,3.0,2,0.1122660913226649
2.67,0.0004257792353490551,81.85078228299193,0,60,3.0,2,0.10237134783510421
2.675,0.0003051686392901525,81.444450471864,0,60,3.0,2,0.09281059933797652
2.68,0.00021699992642659966,81.0554534760675,0,60,3.0,2,0.08365772884864701
2.685,0.00015308884054097838,80.68634524262295,0,60,3.0,2,0.07497282923818703
2.69,0.00010714989329311098,80.3390954720994,0,60,3.0,2,0.06680224640233887
2.695,7.440535854020571e-05,80.01510720336908,0,60,3.0,2,0.05917899302044903
2.7,5.1260276743925106e-05,79.71524794354049,0,60,3.0,2,0.05212348102448212
2.705,3.503659887882241e-05,79.43989185731093,0,60,3.0,2,0.045644514289668835
2.71,2.375894748103639e-05,79.18897038725449,0,60,3.0,2,0.039740479700105545
2.715,1.5984413869232557e-05,78.96202866364585,0,60,3.0,2,0.03440067443872595
2.72,1.0669166579899869e-05,78.75828516485582,0,60,3.0,2,0.02960670976131342
2.725,7.06526633560511e-06,78.5766922881991,0,60,3.0,2,0.025333936192919952
2.73,4.641847214699205e-06,78.4159957646006,0,60,3.0,2,0.021552841520014
2.735,3.025641074479182e-06,78.27479117561786,0,60,3.0,2,0.018230380602773266
2.74,1.9566278676921314e-06,78.15157618557559,0,60,3.0,2,0.015331204366484531
2.745,1.2553456560008793e-06,78.04479746378966,0,60,3.0,2,0.012818763853874437
2.75,7.990660428214668e-07,77.95289162363875,0,60,3.0,2,0.010656273497382325
2.755,5.046221251618276e-07,77.87431983143102,0,60,3.0,2,0.008807525445435846
2.76,3.1616527078858815e-07,77.80759602713341,0,60,3.0,2,0.007237553579609739
2.765,1.9652884407760343e-07,77.75130894337182,0,60,3.0,2,0.005913151608748822
2.77,1.2120002189836396e-07,77.70413830456492,0,60,3.0,2,0.0048032542250569694
2.775,7.415549848886236e-08,77.66486573376456,0,60,3.0,2,0.003879193735636644
2.78,4.501406988770349e-08,77.63238099262017,0,60,3.0,2,0.003114846885180481
2.785,0.0,77.60568423390187,0,60,3.0,2,0.0024866878565145563
2.79,0.0,77.58388496177875,0,60,3.0,2,0.0019737638065588296
2.795,0.0,77.5661983790632,0,60,3.0,2,0.0015576089191340007
2.8,0.0,77.55193975979994,0,60,3.0,2,0.0012221119952926073
2.805,0.0,77.54051742672102,0,60,3.0,2,0.0009533512169652755
2.81,0.0,77.5314248425821,0,60,3.0,2,0.0007394080607552415
2.815,0.0,77.52423224790535,0,60,3.0,2,0.0005701705389493086
2.82,0.0,77.51857819995757,0,60,3.0,2,0.00043713411664879565
2.825,0.0,77.51416129270432,0,60,3.0,2,0.0003332068871603657
2.83,0.0,77.51073226785044,0,60,3.0,2,0.0002525239494221911
2.835,0.0,77.5080866648387,0,60,3.0,2,0.00019027446679294424
2.84,0.0,77.50605810395308,0,60,3.0,2,0.00014254362242541795
2.845,0.0,77.50451225189414,0,60,3.0,2,0.00010617063280332171
2.85,0.0,77.50334148324333,0,60,3.0,2,7.862313513723006e-05
2.855,0.0,77.50246022357778,0,60,3.0,2,5.788761359493786e-05
2.86,0.0,77.50180093982529,0,60,3.0,2,4.2375054712639374e-05
2.865,0.0,77.50131072977383,0,60,3.0,2,3.084070056080932e-05
2.87,0.0,77.5009484544194,0,60,3.0,2,2.2316574574139902e-05
2.875,0.0,77.5006823529937,0,60,3.0,2,1.605536455780138e-05
2.88,0.0,77.50048808007092,0,60,3.0,2,1.1484236962895224e-05
2.885,0.0,77.50034710621185,0,60,3.0,2,8.167204984655494e-06
2.89,0.0,77.50024542739276,0,60,3.0,2,5.7747621824814014e-06
2.895,0.0,77.5001725333356,0,60,3.0,2,4.059607896485485e-06
2.9,0.0,77.50012059029027,0,60,3.0,2,2.837418594481278e-06
2.905,0.0,77.50008379941742,0,60,3.0,2,1.971750998229575e-06
2.91,0.0,77.50005789739122,0,60,3.0,2,1.3622915580125504e-06
2.915,0.0,77.50003977098328,0,60,3.0,2,9.357878418407328e-07
2.92,0.001684486749771458,77.5000271620784,0,60,3.0,2,6.391077269707988e-07
2.925,0.003097557930867117,77.50001844374059,0,60,3.0,2,4.339703667376264e-07
2.93,0.005475106668887023,77.50001245157674,0,60,3.0,2,2.929782761598557e-07
2.935,0.00930222931468658,77.50000835774334,0,60,3.0,2,1.9665278447224836e-07
2.94,0.01519157517868857,77.50000557754456,0,60,3.0,2,1.312363424938881e-07
2.945,0.023847336626128316,77.5000037007215,0,60,3.0,2,8.707580016508633e-08
2.95,0.0359830743700859,77.50000244128844,0,60,3.0,2,5.744208104207407e-08
2.955,0.05218887796857759,77.50000160118357,0,60,3.0,2,3.767490752312262e-08
2.96,0.0727577001223134,77.50000104412499,0,60,3.0,2,2.4567646719600922e-08
2.965,0.0974992498694751,77.50000067694471,0,60,3.0,2,1.5928110783266567e-08
2.97,0.12558706050443358,77.50000043635829,0,60,3.0,2,1.0267253922874636e-08
2.975,0.15549263588878245,77.50000027965501,0,60,3.0,2,6.580117930271252e-09
2.98,0.1850529723539114,77.50000017819328,0,60,3.0,2,4.192782946976127e-09
2.985,0.21169159439317053,77.50000011288842,0,60,3.0,2,2.656198001418756e-09
2.99,0.23277292922115492,77.50000007110445,0,60,3.0,2,1.6730459318590446e-09
2.995,0.24602692519491282,77.50000004452804,0,60,3.0,2,1.0477185028053902e-09
3.0,0.24995056064839283,77.50000002772423,0,60,3.0,2,6.523347404735806e-10
3.005,0.24408826520424054,77.50000001716228,0,60,3.0,2,4.038183225715971e-10
3.01,0.22911894216865275,77.50000001056281,0,60,3.0,2,2.48536814658163e-10
3.015,0.20672661788705934,77.5000000064636,0,60,3.0,2,1.5208456716209184e-10
3.02,0.17928878030241233,77.5000000039324,0,60,3.0,2,9.252704223720631e-11
3.025,0.14946211903866036,77.50000000237864,0,60,3.0,2,5.596803021035157e-11
3.03,0.1197651512573837,77.50000000143051,0,60,3.0,2,3.365899454579716e-11
3.035,0.09224675744988023,77.50000000085535,0,60,3.0,2,2.012591400724726e-11
3.04,0.06829565320281596,77.50000000050849,0,60,3.0,2,1.196453655104372e-11
3.045,0.04860224607515734,77.50000000030055,0,60,3.0,2,7.0716556793366395e-12
3.05,0.03324612389699793,77.50000000017661,0,60,3.0,2,4.1555882917771885e-12
3.055,0.021859876340472782,77.50000000010319,0,60,3.0,2,2.427882731460747e-12
3.06,0.01381595518554205,77.50000000005994,0,60,3.0,2,1.4103855338522836e-12
3.065,0.008394095110402422,77.50000000003462,0,60,3.0,2,8.145327549701666e-13
3.07,0.0049052535271608,77.50000000001988,0,60,3.0,2,4.677878999192377e-13
3.075,0.0027671663551903634,77.50000000001135,0,60,3.0,2,2.671640686457977e-13
3.08,0.0015425553464444616,77.50000000000644,0,60,3.0,2,1.5147099261144723e-13
3.085,0.0009638206637011801,77.50000000000364,0,60,3.0,2,8.559950134333442e-14
3.09,0.0009804935156568228,77.50000000000203,0,60,3.0,2,4.781534645350321e-14
3.095,0.0018793744894085216,77.50000000000114,0,60,3.0,2,2.6749844169792007e-14
3.1,0.004535525206900863,77.50000000000063,0,60,3.0,2,1.4712414293385605e-14
3.105,0.010832767979632273,77.50000000000034,0,60,3.0,2,8.024953250937602e-15
3.11,0.024208003392322392,77.50000000000018,0,60,3.0,2,4.3468496775912015e-15
3.115,0.0500971897335304,77.5000000000001,0,60,3.0,2,2.3406113648568006e-15
3.12,0.09582894921774403,77.50000000000006,0,60,3.0,2,1.3374922084896003e-15
3.125,0.16937896721820658,77.50000000000003,0,60,3.0,2,6.687461042448002e-16
3.13,0.27661303008991756,77.50000000000001,0,60,3.0,2,3.343730521224001e-16
3.135,0.4173782800009149,77.50000000000001,0,60,3.0,2,3.343730521224001e-16
3.14,0.5818720934538056,77.5,0,60,3.0,2,0.0
3.145,0.7494718801585675,77.5,0,60,3.0,2,0.0
3.15,0.891813020752378,77.5,0,60,3.0,2,0.0
3.155,0.9800361632936612,77.5,0,60,3.0,2,0.0
3.16,0.993574479225126,77.50000249553136,1,60,3.0,2,5.871838498826358e-08
3.165,0.9263438449375362,77.5000037979206,0,60,3.0,2,8.936283761078598e-08
3.17,0.7873015962290536,77.50000589651982,0,60,3.0,2,1.387416429064187e-07
3.175,0.5959516244629897,77.5000094348155,0,60,3.0,2,2.2199565872891553e-07
3.18,0.376910120078773,77.50001571195249,0,60,3.0,2,3.6969299966425324e-07
3.185,0.15739335672107918,77.50002740197677,0,60,3.0,2,6.447523944911261e-07
3.19,-0.033361226269301235,77.5000500328844,0,60,3.0,2,1.177244338885644e-06
3.195,-0.1680180840843834,77.50009495573708,0,60,3.0,2,2.234252637248681e-06
3.2,-0.23069703190837854,77.50018514752661,0,60,3.0,2,4.356412390774601e-06
3.205,-0.22587267821131068,77.50036623180388,0,60,3.0,2,8.617218914838198e-06
3.21,-0.17718181630665902,77.50072678709442,0,60,3.0,2,1.710087280992625e-05
3.215,-0.11494332516451301,77.50143461155861,0,60,3.0,2,3.3755566084892054e-05
3.22,-0.061810214049552864,77.5027993939534,0,60,3.0,2,6.58680930210748e-05
3.225,-0.026546104631500547,77.50537738125638,0,60,3.0,2,0.0001265266177971866
3.23,-0.00719600351942686,77.5101400375162,0,60,3.0,2,0.0002385891180281038
3.235,0.0022072757983807078,77.51873573170647,0,60,3.0,2,0.00044084074603460975
3.24,0.006917199873730717,77.53387969714991,0,60,3.0,2,0.0007971693447038486
3.245,0.01004859748264829,77.55991023047092,0,60,3.0,2,0.0014096524816686858
3.25,0.013037082251128167,77.60354438392822,0,60,3.0,2,0.00243633844536997
3.255,0.01645163937690478,77.67484918417814,0,60,3.0,2,0.004114098451250423
3.26,0.020526639934696615,77.7884093308522,0,60,3.0,2,0.0067861019024047994
3.265,0.02539629541761738,77.96461536956245,0,60,3.0,2,0.01093212634264593
3.27,0.031171612185577933,78.23091721059663,0,60,3.0,2,0.017198052014038345
3.275,0.03795853426638131,78.6227928599652,0,60,3.0,2,0.02641865552859298
3.28,0.0458588961882057,79.18408665755831,0,60,3.0,2,0.03962556841313672
3.285,0.054966995891435555,79.96630039667855,0,60,3.0,2,0.058030597568907015
3.29,0.06536491004445595,81.02640747170874,0,60,3.0,2,0.08297429345197027
3.295,0.07711726085088699,82.42283947403011,0,60,3.0,2,0.11583151703600265
3.3,0.09026570629555215,84.20949296015137,0,60,3.0,2,0.15787042259179684
3.305,0.10482339848670268,86.42792724167438,0,60,3.0,2,0.21006887627469134
3.31,0.12076968927580028,89.09834551335945,0,60,3.0,2,0.2729022473731635
3.315,0.13804539501007884,92.21040668051529,0,60,3.0,2,0.3461272160121245
3.32,0.15654895051787066,95.71530488045332,0,60,3.0,2,0.4285954089518428
3.325,0.17613378141900526,99.52076142138833,0,60,3.0,2,0.518135562856196
3.33,0.19660720058055794,103.49049392863455,0,60,3.0,2,0.6115410336149306
3.335,0.21773108748496234,107.44929879905975,0,60,3.0,2,0.7046893835072882
3.34,0.23922453870058807,111.1941190293451,0,60,3.0,2,0.792802800690473
3.345,0.2607685857914563,114.51047262775617,0,60,3.0,2,0.8708346500648512
3.35,0.2820129681603682,117.1925695932531,0,60,3.0,2,0.9339428139588964
3.355,0.30258482867153996,119.06457506308963,0,60,3.0,2,0.977990001484462
3.36,0.3220990771751686,120.0,0,60,3.0,2,1.0
3.365,0.3401700499968971,119.93626626357627,0,60,3.0,2,0.9985003826723828
3.37,0.3564239911198326,118.88213103465766,0,60,3.0,2,0.9736972008154744
3.375,0.3705118017738417,116.91676286621725,0,60,3.0,2,0.9274532439109943
3.38,0.3821214567925213,114.18061934032266,0,60,3.0,2,0.8630733962428863
3.385,0.39098947374066967,110.85960266710498,0,60,3.0,2,0.7849318274612936
3.39,0.3969108472035567,107.16499075378253,0,60,3.0,2,0.6979997824419419
3.395,0.3997469255491936,103.31215997547778,0,60,3.0,2,0.6073449405994773
3.4,0.3994308076379137,99.50105733238124,0,60,3.0,2,0.5176719372324997
3.405,0.3959699661768434,95.90080270694628,0,60,3.0,2,0.43296006369285367
3.41,0.38944595408114946,92.63987384862794,0,60,3.0,2,0.35623232585006925
3.415,0.38001120995358023,89.80227211535595,0,60,3.0,2,0.2894652262436693
3.42,0.3678831374098315,87.429107562273,0,60,3.0,2,0.23362606028877655
3.425,0.35333577933796634,85.52434499291017,0,60,3.0,2,0.18880811748023937
3.43,0.33668953221163944,84.06310121889615,0,60,3.0,2,0.1544259110328506
3.435,0.3182994390982644,83.00087339718817,0,60,3.0,2,0.129432315227957
3.44,0.29854265738230645,82.28233533973716,0,60,3.0,2,0.11252553740558022
3.445,0.2778057157821067,81.84875222780497,0,60,3.0,2,0.10232358183070507
3.45,0.2564721553719815,81.64351943719842,0,60,3.0,2,0.09749457499290402
3.455,0.23491109433464996,81.61573561778272,0,60,3.0,2,0.09684083806547572
3.46,0.21346717185309805,81.7220173312601,0,60,3.0,2,0.09934158426494365
3.465,0.19245222055656455,81.92693369355118,0,60,3.0,2,0.10416314573061594
3.47,0.17213889801761392,82.20249593298601,0,60,3.0,2,0.1106469631290826
3.475,0.15275638501270183,82.52710789170109,0,60,3.0,2,0.11828489156943747
3.48,0.13448814019607322,82.88430441935833,0,60,3.0,2,0.12668951574960777
3.485,0.11747159495449566,83.26150706007847,0,60,3.0,2,0.1355648720018464
3.49,0.10179958433370105,83.64893355810317,0,60,3.0,2,0.14468078960242745
3.495,0.08752324394101413,84.03872273042094,0,60,3.0,2,0.1538522995393163
3.5,0.07465606047174059,84.42428381662813,0,60,3.0,2,0.16292432509713253
3.505,0.0631787448609295,84.79984820751459,0,60,3.0,2,0.17176113429446085
3.51,0.05304460019959574,85.16018700493531,0,60,3.0,2,0.18023969423377198
3.515,0.044185078305849994,85.50045479613394,0,60,3.0,2,0.18824599520315147
3.52,0.03651525513023255,85.81612348054294,0,60,3.0,2,0.1956734936598339
3.525,0.0299390014708757,86.10297630590426,0,60,3.0,2,0.20242297190362973
3.53,0.024353677220580638,86.35713909920837,0,60,3.0,2,0.20840327292254984
3.535,0.01965423034339045,86.5751317625649,0,60,3.0,2,0.21353251206035045
3.54,0.015736632374757337,86.75392796721998,0,60,3.0,2,0.21773948158164658
3.545,0.012500627640593535,86.89101460585793,0,60,3.0,2,0.22096504954959842
3.55,0.009851811652115898,86.98444515996042,0,60,3.0,2,0.22316341552848037
3.555,0.007703084175428559,87.0328829744056,0,60,3.0,2,0.22430312880954342
3.56,0.005975544002062424,87.03563175280645,0,60,3.0,2,0.22436780594838712
3.565,0.004598905818663047,86.99265158497569,0,60,3.0,2,0.22335650788178094
3.57,0.0035115256454839104,86.90455962174919,0,60,3.0,2,0.2212837558058632
3.575,0.002660121266303676,86.7726151996039,0,60,3.0,2,0.2181791811671507
3.58,0.0019992692560877024,86.5986898271919,0,60,3.0,2,0.21408681946333893
3.585,0.0014907520044639367,86.38522299196607,0,60,3.0,2,0.20906407039920175
3.59,0.0011028178277539807,86.13516522658897,0,60,3.0,2,0.20318035827268158
3.595,0.0008094059938923333,85.85191028364954,0,60,3.0,2,0.19651553608587163
3.6,0.0005893771793717645,85.53921859307545,0,60,3.0,2,0.1891580845429517
3.605,0.0004257792353490551,85.20113441032936,0,60,3.0,2,0.18120316259598493
3.61,0.0003051686392901525,84.84189919885794,0,60,3.0,2,0.17275056938489283
3.615,0.00021699992642659966,84.4658638252098,0,60,3.0,3,0.16390267824023047
3.62,0.00015308884054097838,84.07740208207215,0,60,3.0,3,0.15476240193110952
3.625,0.00010714989329311098,83.68082789985633,0,60,3.0,3,0.14543124470250177
3.63,7.440535854020571e-05,83.28031837196917,0,60,3.0,3,0.136007491105157
3.635,5.1260276743925106e-05,82.87984441636587,0,60,3.0,3,0.12658457450272637
3.64,3.503659887882241e-05,82.48311054260569,0,60,3.0,3,0.11724965982601615
3.645,2.375894748103639e-05,82.09350480709807,0,60,3.0,3,0.10808246604936639
3.65,1.5984413869232557e-05,81.71405963766578,0,60,3.0,3,0.09915434441566551
3.655,1.0669166579899869e-05,81.34742380962653,0,60,3.0,3,0.09052761905003609
3.66,7.06526633560511e-06,80.99584547562104,0,60,3.0,3,0.0822551876616715
3.665,4.641847214699205e-06,80.66116580464649,0,60,3.0,3,0.07438037187403498
3.67,3.025641074479182e-06,80.34482248380725,0,60,3.0,3,0.0669369996189941
3.675,1.9566278676921314e-06,80.04786208778954,0,60,3.0,3,0.05994969618328328
3.68,1.2553456560008793e-06,79.77096013143739,0,60,3.0,3,0.05343435603382097
3.685,7.990660428214668e-07,79.51444749231865,0,60,3.0,3,0.04739876452514476
3.69,5.046221251618276e-07,79.278341822098,0,60,3.0,3,0.041843336990541165
3.695,3.1616527078858815e-07,79.06238255449453,0,60,3.0,3,0.0367619424586949
3.7,1.9652884407760343e-07,78.86606815798669,0,60,3.0,3,0.03214278018792209
3.705,1.2120002189836396e-07,78.68869436592169,0,60,3.0,3,0.027969279198157438
3.71,7.415549848886236e-08,78.52939223681737,0,60,3.0,3,0.02422099380746759
3.715,4.501406988770349e-08,78.38716504432811,0,60,3.0,3,0.020874471631249742
3.72,0.0,78.26092316041584,0,60,3.0,3,0.017904074362725703
3.725,0.0,78.14951626792161,0,60,3.0,3,0.01528273571580264
3.73,0.0,78.05176241193382,0,60,3.0,3,0.012982644986678171
3.735,0.0,77.96647356610181,0,60,3.0,3,0.010975848614160268
3.74,0.0,77.89247754460511,0,60,3.0,3,0.009234765755414454
3.745,0.0,77.8286362284681,0,60,3.0,3,0.00773261714042586
3.75,0.0,77.77386019328746,0,60,3.0,3,0.0064437692538226255
3.755,0.0,77.72711992251153,0,60,3.0,3,0.005343998176741974
3.76,0.0,77.68745386566955,0,60,3.0,3,0.004410679192224787
3.765,0.0,77.65397365492345,0,60,3.0,3,0.003622909527610532
3.77,0.0,77.62586682737643,0,60,3.0,3,0.00296157240885711
3.775,0.0,77.60239741673563,0,60,3.0,3,0.0024093509820147575
3.78,0.0,77.58290477863605,0,60,3.0,3,0.0019507006737893896
3.785,0.0,77.56680100188535,0,60,3.0,3,0.0015717882796553462
3.79,0.0,77.55356723584703,0,60,3.0,3,0.0012604055493418
3.795,0.0,77.54274923483845,0,60,3.0,3,0.001005864349140077
3.8,0.0,77.5339523862881,0,60,3.0,3,0.000798879677367214
3.805,0.0,77.52683645271036,0,60,3.0,3,0.0006314459461260172
3.81,0.0,77.52111022023206,0,60,3.0,3,0.0004967110642837725
3.815,0.0,77.51652621000613,0,60,3.0,3,0.0003888520001443313
3.82,0.0,77.51287557458264,0,60,3.0,3,0.0003029546960620417
3.825,0.0,77.50998327004963,0,60,3.0,3,0.00023490047175601724
3.83,0.0,77.50770356706387,0,60,3.0,3,0.0001812604015028415
3.835,0.0,77.50591594005692,0,60,3.0,3,0.0001391985895746556
3.84,0.0,77.5045213539901,0,60,3.0,3,0.00010638479976705639
3.845,0.0,77.50343895192604,0,60,3.0,3,8.091651590689253e-05
3.85,0.0,77.50260313413699,0,60,3.0,3,6.125021498800218e-05
3.855,0.0,77.50196101013708,0,60,3.0,3,4.614141499012155e-05
3.86,0.0,77.50147019851048,0,60,3.0,3,3.459290612882422e-05
3.865,0.0,77.50109694528726,0,60,3.0,3,2.581047734726299e-05
3.87,0.0,77.50081452947285,0,60,3.0,3,1.9165399361126593e-05
3.875,0.0,77.50060192376263,0,60,3.0,3,1.4162912061893247e-05
3.88,0.0,77.50044267910418,0,60,3.0,3,1.041597892193589e-05
3.885,0.0,77.50032400327848,0,60,3.0,3,7.623606552442652e-06
3.89,0.0,77.5002360057779,0,60,3.0,3,5.553077126893079e-06
3.895,0.0,77.50017108373179,0,60,3.0,3,4.025499571432246e-06
3.9,0.0,77.50012342628081,0,60,3.0,3,2.9041477837247786e-06
3.905,0.0,77.50008861748469,0,60,3.0,3,2.0851172868841626e-06
3.91,0.0,77.50006332045746,0,60,3.0,3,1.4898931166338597e-06
3.915,0.0,77.50004502788177,0,60,3.0,3,1.0594795710136062e-06
3.92,0.0,77.50003186631457,0,60,3.0,3,7.49795636987555e-07
3.925,0.0,77.50002244372865,0,60,3.0,3,5.28087733019835e-07
3.93,0.0,77.50001573153237,0,60,3.0,3,3.701537028679441e-07
3.935,0.0,77.50001097387214,0,60,3.0,3,2.5820875614900773e-07
3.94,0.0,77.50000761836212,0,60,3.0,3,1.7925557926901092e-07
3.945,0.001684486749771458,77.50000526351877,0,60,3.0,3,1.2384750053730815e-07
3.95,0.003097557930867117,77.50000361912504,0,60,3.0,3,8.51558832651148e-08
3.955,0.005475106668887023,77.50000247653146,0,60,3.0,3,5.827132855194898e-08
3.96,0.00930222931468658,77.50000168654122,0,60,3.0,3,3.9683322938799394e-08
3.965,0.01519157517868857,77.50000114304392,0,60,3.0,3,2.6895150995187578e-08
3.97,0.023847336626128316,77.50000077097754,0,60,3.0,3,1.814064790671503e-08
3.975,0.0359830743700859,77.50000051752744,0,60,3.0,3,1.2177116225168849e-08
3.98,0.05218887796857759,77.50000034573065,0,60,3.0,3,8.134838935802691e-09
3.985,0.0727577001223134,77.50000022985567,0,60,3.0,3,5.408368759376839e-09
3.99,0.0974992498694751,77.50000015208467,0,60,3.0,3,3.5784627444252904e-09
3.995,0.12558706050443358,77.50000010014482,0,60,3.0,3,2.3563486325549412e-09
4.0,0.15549263588878245,77.50000006562728,0,60,3.0,3,1.544171201363925e-09
4.005,0.1850529723539114,77.50000004280092,0,60,3.0,3,1.0070804739156944e-09
4.01,0.21169159439317053,77.50000002778016,0,60,3.0,3,6.536508328067344e-10
4.015,0.23277292922115492,77.50000001794442,0,60,3.0,3,4.222215466143098e-10
4.02,0.24602692519491282,77.5000000115355,0,60,3.0,3,2.714236469567849e-10
4.025,0.24995056064839283,77.50000000738001,0,60,3.0,3,1.7364728217430907e-10
4.03,0.24408826520424054,77.50000000469883,0,60,3.0,3,1.1056078405732371e-10
4.035,0.22911894216865275,77.50000000297739,0,60,3.0,3,7.005617001542466e-11
4.04,0.20672661788705934,77.50000000187757,0,60,3.0,3,4.417803639251575e-11
4.045,0.17928878030241233,77.50000000117832,0,60,3.0,3,2.7725210362833048e-11
4.05,0.14946211903866036,77.50000000073595,0,60,3.0,3,1.7316511623314855e-11
4.055,0.1197651512573837,77.50000000045745,0,60,3.0,3,1.0763468547820058e-11
4.06,0.09224675744988023,77.50000000028298,0,60,3.0,3,6.658370586913353e-12
4.065,0.06829565320281596,77.50000000017421,0,60,3.0,3,4.0990792459685025e-12
4.07,0.04860224607515734,77.50000000010674,0,60,3.0,3,2.511475994491347e-12
4.075,0.03324612389699793,77.50000000006509,0,60,3.0,3,1.5314285787205924e-12
4.08,0.021859876340472782,77.50000000003949,0,60,3.0,3,9.292227118481499e-13
4.085,0.01381595518554205,77.50000000002385,0,60,3.0,3,5.610779814613874e-13
4.09,0.008394095110402422,77.50000000001434,0,60,3.0,3,3.373824095915017e-13
4.095,0.0049052535271608,77.50000000000857,0,60,3.0,3,2.0162695042980724e-13
4.1,0.0027671663551903634,77.5000000000051,0,60,3.0,3,1.2003992571194163e-13
4.105,0.0015425553464444616,77.50000000000303,0,60,3.0,3,7.122146010207122e-14
4.11,0.0009638206637011801,77.50000000000178,0,60,3.0,3,4.1796631515300014e-14
4.115,0.0009804935156568228,77.50000000000105,0,60,3.0,3,2.4743605857057607e-14
4.12,0.0018793744894085216,77.50000000000061,0,60,3.0,3,1.4378041241263203e-14
4.125,0.004535525206900863,77.50000000000036,0,60,3.0,3,8.359326303060002e-15
4.13,0.010832767979632273,77.5000000000002,0,60,3.0,3,4.681222729713601e-15
4.135,0.024208003392322392,77.50000000000011,0,60,3.0,3,2.6749844169792007e-15
4.14,0.0500971897335304,77.50000000000007,0,60,3.0,3,1.6718652606120004e-15
4.145,0.09582894921774403,77.50000000000004,0,60,3.0,3,1.0031191563672002e-15
4.15,0.16937896721820658,77.50000000000001,0,60,3.0,3,3.343730521224001e-16
4.155,0.27661303008991756,77.50000000000001,0,60,3.0,3,3.343730521224001e-16
4.16,0.4173782800009149,77.5,0,60,3.0,3,0.0
4.165,0.5818720934538056,77.5,0,60,3.0,3,0.0
4.17,0.7494718801585675,77.5,0,60,3.0,3,0.0
4.175,0.891813020752378,77.5,0,60,3.0,3,0.0
4.18,0.9800361632936612,77.5,0,60,3.0,3,0.0
4.185,0.993574479225126,77.5000024899223,1,60,3.0,3,5.858640694147171e-08
4.19,0.9263438449375362,77.50000376594136,0,60,3.0,3,8.86103848910459e-08
4.195,0.7873015962290536,77.50000580655897,0,60,3.0,3,1.366249170373254e-07
4.2,0.5959516244629897,77.50000921610113,0,60,3.0,3,2.1684943844240265e-07
4.205,0.376910120078773,77.50001520125163,0,60,3.0,3,3.5767650889711684e-07
4.21,0.15739335672107918,77.50002621870189,0,60,3.0,3,6.169106327166339e-07
4.215,-0.033361226269301235,77.5000472946736,0,60,3.0,3,1.1128158495707526e-06
4.22,-0.1680180840843834,77.50008865159667,0,60,3.0,3,2.085919921642819e-06
4.225,-0.23069703190837854,77.50017080335597,0,60,3.0,3,4.018902493432024e-06
4.23,-0.22587267821131068,77.50033416889595,0,60,3.0,3,7.862797551685136e-06
4.235,-0.17718181630665902,77.50065668969144,0,60,3.0,3,1.5451522151512537e-05
4.24,-0.11494332516451301,77.50128514742521,0,60,3.0,3,3.023876294605543e-05
4.245,-0.061810214049552864,77.50248910111931,0,60,3.0,3,5.8567085160214394e-05
4.25,-0.026546104631500547,77.50475076687931,0,60,3.0,3,0.00011178275010145038
4.255,-0.00719600351942686,77.50890971075603,0,60,3.0,3,0.00020964025308303996
4.26,0.0022072757983807078,77.51638746319077,0,60,3.0,3,0.0003855873691945282
4.265,0.006917199873730717,77.52952295821818,0,60,3.0,3,0.0006946578404277742
4.27,0.01004859748264829,77.55205296713095,0,60,3.0,3,0.0012247756971987655
4.275,0.013037082251128167,77.58976923193298,0,60,3.0,3,0.0021122172219523853
4.28,0.01645163937690478,77.65137158913011,0,60,3.0,3,0.0035616844501201767
4.285,0.020526639934696615,77.74950933960535,0,60,3.0,3,0.005870807990714197
4.29,0.02539629541761738,77.90195754734947,0,60,3.0,3,0.009457824643516901
4.295,0.031171612185577933,78.13280954845649,0,60,3.0,3,0.014889636434270414
4.3,0.03795853426638131,78.47348539969117,0,60,3.0,3,0.022905538816262845
4.305,0.0458588961882057,78.96326918151414,0,60,3.0,3,0.03442986309445025
4.31,0.054966995891435555,79.64901532307513,0,60,3.0,3,0.050565066425297255
4.315,0.06536491004445595,80.58363230643764,0,60,3.0,3,0.07255605426912085
4.32,0.07711726085088699,81.82299164268099,0,60,3.0,3,0.10171745041602327
4.325,0.09026570629555215,83.42104740979093,0,60,3.0,3,0.139318762583316
4.33,0.10482339848670268,85.42319949161549,0,60,3.0,3,0.18642822333212922
4.335,0.12076968927580028,87.85828024175694,0,60,3.0,3,0.24372424098251633
4.34,0.13804539501007884,90.72994635140763,0,60,3.0,3,0.31129285532723844
4.345,0.15654895051787066,94.00864020707704,0,60,3.0,3,0.38843859310769496
4.35,0.17613378141900526,97.62555096793857,0,60,3.0,3,0.47354237571620156
4.355,0.19660720058055794,101.4700561076917,0,60,3.0,3,0.5640013201809813
4.36,0.21773108748496234,105.39188588857056,0,60,3.0,3,0.656279667966366
4.365,0.23922453870058807,109.20870606171526,0,60,3.0,3,0.7460872014521238
4.37,0.2607685857914563,112.7190103692385,0,60,3.0,3,0.828682596923259
4.375,0.2820129681603682,115.71928120045192,0,60,3.0,3,0.8992772047165157
4.38,0.30258482867153996,118.02349647615935,0,60,3.0,3,0.9534940347331612
4.385,0.3220990771751686,119.48243235510543,0,60,3.0,3,0.9878219377671866
4.39,0.3401700499968971,120.0,0,60,3.0,3,1.0
4.395,0.3564239911198326,119.54414514623332,0,60,3.0,3,0.989274003440784
4.4,0.3705118017738417,118.15060626577718,0,60,3.0,3,0.9564848533124044
4.405,0.3821214567925213,115.9189340023266,0,60,3.0,3,0.9039749177018022
4.41,0.39098947374066967,113.0014023537604,0,60,3.0,3,0.835327114206127
4.415,0.3969108472035567,109.58654217728734,0,60,3.0,3,0.7549774629949962
4.42,0.3997469255491936,105.87978274020551,0,60,3.0,3,0.6677595938871885
4.425,0.3994308076379137,102.08396338043309,0,60,3.0,3,0.5784461971866609
4.43,0.3959699661768434,98.38225280045256,0,60,3.0,3,0.49134712471653086
4.435,0.38944595408114946,94.92537560220612,0,60,3.0,3,0.41000883769896745
4.44,0.38001120995358023,91.82416132737285,0,60,3.0,3,0.3370390900558317
4.445,0.3678831374098315,89.14749954500232,0,60,3.0,3,0.27405881282358396
4.45,0.35333577933796634,86.92498677093954,0,60,3.0,3,0.2217643946103421
4.455,0.33668953221163944,85.15301231421464,0,60,3.0,3,0.18007087798152083
4.46,0.3182994390982644,83.802800714477,0,60,3.0,3,0.1483011932818118
4.465,0.29854265738230645,82.82898633651617,0,60,3.0,3,0.1253879138003804
4.47,0.2778057157821067,82.17756644157681,0,60,3.0,3,0.11006038686063094
4.475,0.2564721553719815,81.79246348760998,0,60,3.0,3,0.10099914088494068
4.48,0.23491109433464996,81.6203288855974,0,60,3.0,3,0.096948914955233
4.485,0.21346717185309805,81.61356473758555,0,60,3.0,3,0.09678975853142467
4.49,0.19245222055656455,81.73178486073043,0,60,3.0,3,0.09957140848777479
4.495,0.17213889801761392,81.9420707420853,0,60,3.0,3,0.1045193115784778
4.5,0.15275638501270183,82.21841509548847,0,60,3.0,3,0.11102153165855216
4.505,0.13448814019607322,82.54071215799348,0,60,3.0,3,0.11860499195278781
4.51,0.11747159495449566,82.89358016634176,0,60,3.0,3,0.1269077686198062
4.515,0.10179958433370105,83.26521429635454,0,60,3.0,3,0.13565210109069512
4.52,0.08752324394101413,83.64638683025535,0,60,3.0,3,0.14462086659424359
4.525,0.07465606047174059,84.02964611158836,0,60,3.0,3,0.15363873203737324
4.53,0.0631787448609295,84.40872047275327,0,60,3.0,3,0.16255812877066525
4.535,0.05304460019959574,84.77810639599608,0,60,3.0,3,0.1712495622587312
4.54,0.044185078305849994,85.13280774851903,0,60,3.0,3,0.17959547643574184
4.545,0.03651525513023255,85.46819036181611,0,60,3.0,3,0.18748683204273206
4.55,0.0299390014708757,85.77991932370172,0,60,3.0,3,0.1948216311459228
4.555,0.024353677220580638,86.06395196190566,0,60,3.0,3,0.20150475204483903
4.56,0.01965423034339045,86.31656557761202,0,60,3.0,3,0.20744860182616529
4.565,0.015736632374757337,86.53440443454016,0,60,3.0,3,0.21257422198918033
4.57,0.012500627640593535,86.71453489258448,0,60,3.0,3,0.21681258570787015
4.575,0.009851811652115898,86.85450086784542,0,60,3.0,3,0.22010590277283335
4.58,0.007703084175428559,86.95237417392687,0,60,3.0,3,0.22240880409239694
4.585,0.005975544002062424,87.0067959844984,0,60,3.0,3,0.2236893172823152
4.59,0.004598905818663047,87.01700687163441,0,60,3.0,3,0.22392957345022135
4.595,0.0035115256454839104,86.98286378900848,0,60,3.0,3,0.22312620680019946
4.6,0.002660121266303676,86.90484310169278,0,60,3.0,3,0.22129042592218298
4.605,0.0019992692560877024,86.78402938747664,0,60,3.0,3,0.21844775029356792
4.61,0.0014907520044639367,86.62209028632776,0,60,3.0,3,0.21463741850182969
4.615,0.0011028178277539807,86.42123816980182,0,60,3.0,3,0.20991148634827822
4.62,0.0008094059938923333,86.18417984182693,0,60,3.0,3,0.20433364333710427
4.625,0.0005893771793717645,85.91405586012334,0,60,3.0,3,0.1979777849440786
4.63,0.0004257792353490551,85.61437137477117,0,60,3.0,3,0.19092638528873335
4.635,0.0003051686392901525,85.28892060876314,0,60,3.0,3,0.18326872020619142
4.64,0.00021699992642659966,84.94170724870098,0,60,3.0,3,0.17509899408708185
4.645,0.00015308884054097838,84.57686306932412,0,60,3.0,3,0.16651442516056753
4.65,0.00010714989329311098,84.19856708424052,0,60,3.0,3,0.15761334315860054
4.655,7.440535854020571e-05,83.81096740174658,0,60,3.0,3,0.1484933506293313
4.66,5.1260276743925106e-05,83.41810777713161,0,60,3.0,3,0.13924959475603788
4.665,3.503659887882241e-05,83.02386060247123,0,60,3.0,3,0.1299731906463819
4.67,2.375894748103639e-05,82.63186777501524,0,60,3.0,3,0.12074983000035854
4.675,1.5984413869232557e-05,82.24549055077581,0,60,3.0,3,0.11165860119472501
4.68,1.0669166579899869e-05,81.86776913642002,0,60,3.0,3,0.10277103850400053
4.685,7.06526633560511e-06,81.50139241554777,0,60,3.0,3,0.09415040977759458
4.69,4.641847214699205e-06,81.14867785950845,0,60,3.0,3,0.08585124375314007
4.695,3.025641074479182e-06,80.81156135115772,0,60,3.0,3,0.07791909061547579
4.7,1.9566278676921314e-06,80.49159636340788,0,60,3.0,3,0.07039050266842069
4.705,1.2553456560008793e-06,80.18996169166836,0,60,3.0,3,0.0632932162745496
4.71,7.990660428214668e-07,79.90747674623394,0,60,3.0,3,0.05664651167609269
4.715,5.046221251618276e-07,79.64462327056756,0,60,3.0,3,0.05046172401335445
4.72,3.1616527078858815e-07,79.40157226481837,0,60,3.0,3,0.04474287681925576
4.725,1.9652884407760343e-07,79.17821485897923,0,60,3.0,3,0.03948740844657015
4.73,1.2120002189836396e-07,78.97419589290332,0,60,3.0,3,0.034686962185960575
4.735,7.415549848886236e-08,78.78894901536232,0,60,3.0,3,0.030328212126172236
4.74,4.501406988770349e-08,78.62173220460336,0,60,3.0,3,0.0263936989318438
4.745,0.0,78.4716627308444,0,60,3.0,3,0.022862652490456478
4.75,0.0,78.33775071891439,0,60,3.0,3,0.019711781621515122
4.755,0.0,78.21893061897777,0,60,3.0,3,0.016916014564182714
4.76,0.0,78.11409004761917,0,60,3.0,3,0.014449177591039334
4.765,0.0,78.02209561389758,0,60,3.0,3,0.012284602679942977
4.77,0.0,77.94181548966863,0,60,3.0,3,0.010395658580438293
4.775,0.0,77.87213861598158,0,60,3.0,3,0.008756202728978438
4.78,0.0,77.81199055431146,0,60,3.0,3,0.0073409542190932715
4.785,0.0,77.76034609057041,0,60,3.0,3,0.006125790366362547
4.79,0.0,77.7162387801301,0,60,3.0,3,0.0050879712971787765
4.795,0.0,77.67876768333062,0,60,3.0,3,0.00420629843130869
4.8,0.0,77.64710158383804,0,60,3.0,3,0.00346121373736557
4.805,0.0,77.62048100809753,0,60,3.0,3,0.0028348472493535956
4.81,0.0,77.59821837486274,0,60,3.0,3,0.0023110205850056286
4.815,0.0,77.57969660154583,0,60,3.0,3,0.001875214154019619
4.82,0.0,77.56436648127566,0,60,3.0,4,0.0015145054417801287
4.825,0.0,77.55174312345649,0,60,3.0,4,0.0012174852577997546
4.83,0.0,77.54140172358554,0,60,3.0,4,0.0009741582020126316
4.835,0.0,77.53297289723739,0,60,3.0,4,0.0007758328761737817
4.84,0.0,77.52613778034294,0,60,3.0,4,0.0006150065963043637
4.845,0.0,77.52062306478282,0,60,3.0,4,0.0004852485831252927
4.85,0.0,77.51619610618371,0,60,3.0,4,0.0003810848513814883
4.855,0.0,77.51266021065541,0,60,3.0,4,0.0002978873095390982
4.86,0.0,77.50985017975476,0,60,3.0,4,0.00023176893540621408
4.865,0.0,77.50762816866609,0,60,3.0,4,0.00017948632155500544
4.87,0.0,77.50587989168099,0,60,3.0,4,0.0001383503924938957
4.875,0.0,77.50451119158359,0,60,3.0,4,0.0001061456843197394
4.88,0.0,77.50344497539443,0,60,3.0,4,8.105824457482627e-05
4.885,0.0,77.50261850787646,0,60,3.0,4,6.161195003441582e-05
4.89,0.0,77.50198104596413,0,60,3.0,4,4.6612846214804236e-05
4.895,0.0,77.5014917914954,0,60,3.0,4,3.510097636228024e-05
4.9,0.0,77.50111813594486,0,60,3.0,4,2.63090810556284e-05
4.905,0.0,77.50083416890804,0,60,3.0,4,1.962750371864572e-05
4.91,0.0,77.5006194215277,0,60,3.0,4,1.4574624181223578e-05
4.915,0.0,77.50045781656114,0,60,3.0,4,1.0772154379711698e-05
4.92,0.0,77.50033679808233,0,60,3.0,4,7.924660760703345e-06
4.925,0.0,77.50024661564738,0,60,3.0,4,5.802721114926445e-06
4.93,0.0,77.50017973992418,0,60,3.0,4,4.229174686543047e-06
4.935,0.0,77.50013038912986,0,60,3.0,4,3.0679795262291437e-06
4.94,0.0,77.50009414800623,0,60,3.0,4,2.2152472053328573e-06
4.945,0.0,77.50006766339348,0,60,3.0,4,1.5920798465926697e-06
4.95,0.0,77.5000484026712,0,60,3.0,4,1.1388863811134798e-06
4.955,0.0,77.5000344633739,0,60,3.0,4,8.109029151375366e-07
4.96,0.0,77.50002442413327,0,60,3.0,4,5.74685488760117e-07
4.965,0.0,77.50001722873685,0,60,3.0,4,4.053820435621995e-07
4.97,0.0,77.50001209652484,0,60,3.0,4,2.8462411391421267e-07
4.975,0.0,77.50000845358089,0,60,3.0,4,1.9890778563582418e-07
4.98,0.0,77.50000588022185,0,60,3.0,4,1.383581611528772e-07
4.985,0.001684486749771458,77.50000407117355,0,60,3.0,4,9.579231880921083e-08
4.99,0.003097557930867117,77.5000028055527,0,60,3.0,4,6.601300463123206e-08
4.995,0.005475106668887023,77.50000192437696,0,60,3.0,4,4.527945788247641e-08
5.0,0.00930222931468658,77.5000013138167,0,60,3.0,4,3.09133340311639e-08
5.005,0.01519157517868857,77.50000089279615,0,60,3.0,4,2.1006968274698867e-08
5.01,0.023847336626128316,77.50000060386903,0,60,3.0,4,1.4208682962228468e-08
5.015,0.0359830743700859,77.50000040654264,0,60,3.0,4,9.565709165947149e-09
5.02,0.05218887796857759,77.50000027242211,0,60,3.0,4,6.4099320779325135e-09
5.025,0.0727577001223134,77.50000018169858,0,60,3.0,4,4.2752607415048475e-09
5.03,0.0974992498694751,77.50000012062397,0,60,3.0,4,2.8382109629841153e-09
5.035,0.12558706050443358,77.50000007970556,0,60,3.0,4,1.875424887283075e-09
5.04,0.15549263588878245,77.50000005242235,0,60,3.0,4,1.233467080109061e-09
5.045,0.1850529723539114,77.50000003431762,0,60,3.0,4,8.074734710937585e-10
5.05,0.21169159439317053,77.50000002236098,0,60,3.0,4,5.261406787373262e-10
5.055,0.23277292922115492,77.50000001450232,0,60,3.0,4,3.412310434214305e-10
5.06,0.24602692519491282,77.50000000936176,0,60,3.0,4,2.202766074119341e-10
5.065,0.24995056064839283,77.50000000601518,0,60,3.0,4,1.4153375987542164e-10
5.07,0.24408826520424054,77.50000000384694,0,60,3.0,4,9.05161227017422e-11
5.075,0.22911894216865275,77.5000000024488,0,60,3.0,4,5.761882996867986e-11
5.08,0.20672661788705934,77.50000000155154,0,60,3.0,4,3.650684983072364e-11
5.085,0.17928878030241233,77.50000000097847,0,60,3.0,4,2.3022922130835734e-11
5.09,0.14946211903866036,77.5000000006142,0,60,3.0,4,1.4451603312730133e-11
5.095,0.1197651512573837,77.50000000038374,0,60,3.0,4,9.02907552646117e-12
5.1,0.09224675744988023,77.50000000023864,0,60,3.0,4,5.615126664291465e-12
5.105,0.06829565320281596,77.50000000014771,0,60,3.0,4,3.4754735037602265e-12
5.11,0.04860224607515734,77.500000000091,0,60,3.0,4,2.1413250257918502e-12
5.115,0.03324612389699793,77.5000000000558,0,60,3.0,4,1.3130829756846652e-12
5.12,0.021859876340472782,77.50000000003406,0,60,3.0,4,8.01492205937393e-13
5.125,0.01381595518554205,77.50000000002069,0,60,3.0,4,4.868471638902145e-13
5.13,0.008394095110402422,77.50000000001252,0,60,3.0,4,2.945826589198345e-13
5.135,0.0049052535271608,77.50000000000753,0,60,3.0,4,1.7721771762487205e-13
5.14,0.0027671663551903634,77.5000000000045,0,60,3.0,4,1.0599625752280083e-13
5.145,0.0015425553464444616,77.50000000000269,0,60,3.0,4,6.319650685113362e-14
5.15,0.0009638206637011801,77.50000000000159,0,60,3.0,4,3.744978183770881e-14
5.155,0.0009804935156568228,77.50000000000094,0,60,3.0,4,2.2068621440078406e-14
5.16,0.0018793744894085216,77.50000000000055,0,60,3.0,4,1.3040549032773603e-14
5.165,0.004535525206900863,77.50000000000033,0,60,3.0,4,7.690580198815202e-15
5.17,0.010832767979632273,77.50000000000018,0,60,3.0,4,4.3468496775912015e-15
5.175,0.024208003392322392,77.50000000000011,0,60,3.0,4,2.6749844169792007e-15
5.18,0.0500971897335304,77.50000000000006,0,60,3.0,4,1.3374922084896003e-15
5.185,0.09582894921774403,77.50000000000004,0,60,3.0,4,1.0031191563672002e-15
5.19,0.16937896721820658,77.50000000000001,0,60,3.0,4,3.343730521224001e-16
5.195,0.27661303008991756,77.50000000000001,0,60,3.0,4,3.343730521224001e-16
5.2,0.4173782800009149,77.5,0,60,3.0,4,0.0
5.205,0.5818720934538056,77.5,0,60,3.0,4,0.0
5.21,0.7494718801585675,77.5,0,60,3.0,4,0.0
5.215,0.891813020752378,77.5,0,60,3.0,4,0.0
5.22,0.9800361632936612,77.5,0,60,3.0,4,0.0
5.225,0.993574479225126,77.50000249206059,1,60,3.0,4,5.8636719720251515e-08
5.23,0.9263438449375362,77.50000388649308,0,60,3.0,4,9.144689590143303e-08
5.235,0.7873015962290536,77.50000620174501,0,60,3.0,4,1.4592341197866892e-07
5.24,0.5959516244629897,77.50001024868433,0,60,3.0,4,2.411455137221577e-07
5.245,0.376910120078773,77.50001773713392,0,60,3.0,4,4.1734432744199103e-07
5.25,0.15739335672107918,77.50003234050088,0,60,3.0,4,7.609529618816047e-07
5.255,-0.033361226269301235,77.50006196542242,0,60,3.0,4,1.4580099392493568e-06
5.26,-0.1680180840843834,77.50012345839556,0,60,3.0,4,2.9049034250259437e-06
5.265,-0.23069703190837854,77.50025207253846,0,60,3.0,4,5.93111855196452e-06
5.27,-0.22587267821131068,77.50051989833095,0,60,3.0,4,1.2232901904700852e-05
5.275,-0.17718181630665902,77.50107053879677,0,60,3.0,4,2.5189148159236486e-05
5.28,-0.11494332516451301,77.50218205581817,0,60,3.0,4,5.134248983923124e-05
5.285,-0.061810214049552864,77.50437705138005,0,60,3.0,4,0.00010298944423639382
5.29,-0.026546104631500547,77.50860779491533,0,60,3.0,4,0.00020253635094905697
5.295,-0.00719600351942686,77.5165549676137,0,60,3.0,4,0.00038952864973412836
5.3,0.0022072757983807078,77.53108897869964,0,60,3.0,4,0.0007315053811680627
5.305,0.006917199873730717,77.55694911283238,0,60,3.0,4,0.0013399791254678748
5.31,0.01004859748264829,77.60169183598806,0,60,3.0,4,0.0023927490820720805
5.315,0.013037082251128167,77.67693707547176,0,60,3.0,4,0.0041632253052177794
5.32,0.01645163937690478,77.7998909378598,0,60,3.0,4,0.0070562573614070595
5.325,0.020526639934696615,77.99503777956711,0,60,3.0,4,0.011647947754520306
5.33,0.02539629541761738,78.29577278054447,0,60,3.0,4,0.01872406542457571
5.335,0.031171612185577933,78.74559890656192,0,60,3.0,4,0.029308209566162906
5.34,0.03795853426638131,79.39836652237483,0,60,3.0,4,0.04466744758529009
5.345,0.0458588961882057,80.3169349302758,0,60,3.0,4,0.0662808218888425
5.35,0.054966995891435555,81.56964085920548,0,60,3.0,4,0.09575625551071713
5.355,0.06536491004445595,83.22412774219025,0,60,3.0,4,0.13468535863977055
5.36,0.07711726085088699,85.33845947360807,0,60,3.0,4,0.18443434055548397
5.365,0.09026570629555215,87.95000681664004,0,60,3.0,4,0.24588251333270686
5.37,0.10482339848670268,91.06328339863445,0,60,3.0,4,0.3191360799678695
5.375,0.12076968927580028,94.63858211835603,0,60,3.0,4,0.40326075572602416
5.38,0.13804539501007884,98.5837320054619,0,60,3.0,4,0.4960878118932211
5.385,0.15654895051787066,102.75136341377669,0,60,3.0,4,0.5941497273829809
5.39,0.17613378141900526,106.94359409913197,0,60,3.0,4,0.6927904493913405
5.395,0.19660720058055794,110.92500582405262,0,60,3.0,4,0.7864707252718264
5.4,0.21773108748496234,114.44330342499879,0,60,3.0,4,0.8692541982352656
5.405,0.23922453870058807,117.25542188596262,0,60,3.0,4,0.9354216914344146
5.41,0.2607685857914563,119.15545481965574,0,60,3.0,4,0.9801283486977822
5.415,0.2820129681603682,120.0,0,60,3.0,4,1.0
5.42,0.30258482867153996,119.72661680769721,0,60,3.0,4,0.9935674542987579
5.425,0.3220990771751686,118.36212003966133,0,60,3.0,4,0.9614616479920314
5.43,0.3401700499968971,116.0192046826335,0,60,3.0,4,0.9063342278266706
5.435,0.3564239911198326,112.88201428084409,0,60,3.0,4,0.8325179830786844
5.44,0.3705118017738417,109.18324133098602,0,60,3.0,4,0.7454880313173181
5.445,0.3821214567925213,105.17673159742563,0,60,3.0,4,0.6512172140570737
5.45,0.39098947374066967,101.1100694710858,0,60,3.0,4,0.5555310463784893
5.455,0.3969108472035567,97.20119773854125,0,60,3.0,4,0.46355759384802947
5.46,0.3997469255491936,93.62195394509827,0,60,3.0,4,0.37934009282584163
5.465,0.3994308076379137,90.48983035382798,0,60,3.0,4,0.3056430671488937
5.47,0.3959699661768434,87.86768093596174,0,60,3.0,4,0.24394543378733516
5.475,0.38944595408114946,85.76984429058865,0,60,3.0,4,0.19458457154326236
5.48,0.38001120995358023,84.17242779702583,0,60,3.0,4,0.15699830110649018
5.485,0.3678831374098315,83.02534578800257,0,60,3.0,4,0.1300081361882957
5.49,0.35333577933796634,82.26402464586049,0,60,3.0,4,0.11209469754965853
5.495,0.33668953221163944,81.8192991437891,0,60,3.0,4,0.10163056808915519
5.5,0.3182994390982644,81.62472762003841,0,60,3.0,4,0.09705241458913914
5.505,0.29854265738230645,81.62118407871675,0,60,3.0,4,0.09696903714627651
5.51,0.2778057157821067,81.75904264873614,0,60,3.0,4,0.10021276820555626
5.515,0.2564721553719815,81.9985219925281,0,60,3.0,4,0.10584757629477876
5.52,0.23491109433464996,82.30882611113378,0,60,3.0,4,0.11314884967373606
5.525,0.21346717185309805,82.66665602002601,0,60,3.0,4,0.12156837694178849
5.53,0.19245222055656455,83.05453424588724,0,60,3.0,4,0.13069492343264094
5.535,0.17213889801761392,83.45923266320771,0,60,3.0,4,0.14021723913429918
5.54,0.15275638501270183,83.87045877227034,0,60,3.0,4,0.1498931475828315
5.545,0.13448814019607322,84.2798534333411,0,60,3.0,4,0.15952596313743772
5.55,0.11747159495449566,84.68028767641711,0,60,3.0,4,0.16894794532746138
5.555,0.10179958433370105,85.06541226325399,0,60,3.0,4,0.1780097003118586
5.56,0.08752324394101413,85.42940233018484,0,60,3.0,4,0.18657417247493746
5.565,0.07465606047174059,85.76684174356433,0,60,3.0,4,0.19451392337798418
5.57,0.0631787448609295,86.07270061918209,0,60,3.0,4,0.20171060280428438
5.575,0.05304460019959574,86.34237003707361,0,60,3.0,4,0.20805576557820252
5.58,0.044185078305849994,86.57172770912837,0,60,3.0,4,0.21345241668537335
5.585,0.03651525513023255,86.75721616923929,0,60,3.0,4,0.21781685104092435
5.59,0.0299390014708757,86.89592083331073,0,60,3.0,4,0.2210804901955465
5.595,0.024353677220580638,86.98563934776703,0,60,3.0,4,0.22319151406510668
5.6,0.01965423034339045,87.02493647066403,0,60,3.0,4,0.22411615225091838
5.605,0.015736632374757337,87.01318073228062,0,60,3.0,4,0.22383954664189687
5.61,0.012500627640593535,86.95056062220486,0,60,3.0,4,0.2223661322871732
5.615,0.009851811652115898,86.83807925732597,0,60,3.0,4,0.2197195119370817
5.62,0.007703084175428559,86.67752751899921,0,60,3.0,4,0.21594182397645206
5.625,0.005975544002062424,86.47143656288762,0,60,3.0,4,0.21109262500912043
5.63,0.004598905818663047,86.22301141626089,0,60,3.0,4,0.20524732744143268
5.635,0.0035115256454839104,85.9360480776319,0,60,3.0,4,0.19849524888545636
5.64,0.002660121266303676,85.61483710619105,0,60,3.0,4,0.19093734367508344
5.645,0.0019992692560877024,85.26405711630112,0,60,3.0,4,0.18268369685414393
5.65,0.0014907520044639367,84.88866186212869,0,60,3.0,4,0.17385086734420438
5.655,0.0011028178277539807,84.49376470286529,0,60,3.0,4,0.16455916947918334
5.66,0.0008094059938923333,84.08452418143106,0,60,3.0,4,0.15492998073955444
5.665,0.0005893771793717645,83.66603423862483,0,60,3.0,4,0.1450831585558784
5.67,0.0004257792353490551,83.24322223736209,0,60,3.0,4,0.135134640879108
5.675,0.0003051686392901525,82.82075751109831,0,60,3.0,4,0.1251942943787837
5.68,0.00021699992642659966,82.40297260454615,0,60,3.0,4,0.11536406128343883
5.685,0.00015308884054097838,81.9937987739174,0,60,3.0,4,0.10573644173923305
5.69,0.00010714989329311098,81.5967166896027,0,60,3.0,4,0.09639333387300472
5.695,7.440535854020571e-05,81.21472266694637,0,60,3.0,4,0.08740523922226758
5.7,5.1260276743925106e-05,80.85031016848625,0,60,3.0,4,0.07883082749379401
5.705,3.503659887882241e-05,80.50546579764779,0,60,3.0,4,0.07071684229759499
5.71,2.375894748103639e-05,80.18167855835483,0,60,3.0,4,0.0630983190201137
5.715,1.5984413869232557e-05,79.87996080067171,0,60,3.0,4,0.055999077662863786
5.72,1.0669166579899869e-05,79.60087901688703,0,60,3.0,4,0.049432447456165526
5.725,7.06526633560511e-06,79.34459249714048,0,60,3.0,4,0.04340217640330546
5.73,4.641847214699205e-06,79.1108977952886,0,60,3.0,4,0.037903477536202206
5.735,3.025641074479182e-06,78.8992769862145,0,60,3.0,4,0.032924164381517705
5.74,1.9566278676921314e-06,78.70894780365752,0,60,3.0,4,0.028445830674294657
5.745,1.2553456560008793e-06,78.53891391879662,0,60,3.0,4,0.024445033383449968
5.75,7.990660428214668e-07,78.38801383874541,0,60,3.0,4,0.02089444326459784
5.755,5.046221251618276e-07,78.25496715486534,0,60,3.0,4,0.017763933055655077
5.76,3.1616527078858815e-07,78.13841713794321,0,60,3.0,4,0.015021579716310766
5.765,1.9652884407760343e-07,78.03696894665431,0,60,3.0,4,0.012634563450689699
5.77,1.2120002189836396e-07,77.94922297505981,0,60,3.0,4,0.010569952354348502
5.775,7.415549848886236e-08,77.8738031041554,0,60,3.0,4,0.008795367156597636
5.78,4.501406988770349e-08,77.8093798341656,0,60,3.0,4,0.007279525509778751
5.785,0.0,77.75468845334072,0,60,3.0,4,0.005992669490369869
5.79,0.0,77.7085425428285,0,60,3.0,4,0.004906883360670503
5.795,0.0,77.6698432252712,0,60,3.0,4,0.003996311182851621
5.8,0.0,77.63758463845281,0,60,3.0,4,0.0032372856106542927
5.805,0.0,77.6108561573609,0,60,3.0,4,0.002608380173197635
5.81,0.0,77.5888419022451,0,60,3.0,4,0.002090397699884547
5.815,0.0,77.5708180611178,0,60,3.0,4,0.0016663073204189432
5.82,0.0,77.55614852741415,0,60,3.0,4,0.0013211418215094534
5.825,0.0,77.54427931196614,0,60,3.0,4,0.001041866163909082
5.83,0.0,77.53473213754465,0,60,3.0,4,0.000817226765756499
5.835,0.0,77.52709756803894,0,60,3.0,4,0.0006375898362103485
5.84,0.0,77.52102796635984,0,60,3.0,4,0.0004947756790550236
5.845,0.0,77.5162305182252,0,60,3.0,4,0.0003818945464752901
5.85,0.0,77.51246050531307,0,60,3.0,4,0.0002931883603075809
5.855,0.0,77.50951496242737,0,60,3.0,4,0.00022388146887939966
5.86,0.0,77.50722681031257,0,60,3.0,4,0.0001700425955899685
5.865,0.0,77.50545951908494,0,60,3.0,4,0.00012845927258675093
5.87,0.0,77.50410232700878,0,60,3.0,4,9.652534138307173e-05
5.875,0.0,77.50306601530963,0,60,3.0,4,7.214153669712473e-05
5.88,0.0,77.50227922141525,0,60,3.0,4,5.362873918235945e-05
5.885,0.0,77.50168525983179,0,60,3.0,4,3.965317251266456e-05
5.89,0.0,77.50123941108798,0,60,3.0,4,2.916261383481523e-05
5.895,0.0,77.50090663407934,0,60,3.0,4,2.1332566572763266e-05
5.9,0.0,77.5006596549978,0,60,3.0,4,1.5521294065980756e-05
5.905,0.0,77.50047738616604,0,60,3.0,4,1.1232615671521189e-05
5.91,0.0,77.50034362990894,0,60,3.0,4,8.085409622120043e-06
5.915,0.0,77.50024602556587,0,60,3.0,4,5.788836844043116e-06
5.92,0.0,77.50017520144215,0,60,3.0,4,4.122386874047044e-06
5.925,0.0,77.50012409756755,0,60,3.0,4,2.919942765883581e-06
5.93,0.0,77.500087429303,0,60,3.0,4,2.057160070441622e-06
5.935,0.0,77.50006126591418,0,60,3.0,4,1.4415509219682409e-06
5.94,0.0,77.50004270207464,0,60,3.0,4,1.004754697345668e-06
5.945,0.0,77.50002960378131,0,60,3.0,4,6.96559560337311e-07
5.95,0.0,77.5000204133158,0,60,3.0,4,4.803133128247924e-07
5.955,0.001684486749771458,77.50001400064605,0,60,3.0,4,3.294269658106393e-07
5.96,0.003097557930867117,77.50000955104196,0,60,3.0,4,2.247303989540395e-07
5.965,0.005475106668887023,77.50000648069503,0,60,3.0,4,1.5248694199619744e-07
5.97,0.00930222931468658,77.50000437381664,0,60,3.0,4,1.0291333263226346e-07
5.975,0.01519157517868857,77.50000293607884,0,60,3.0,4,6.908420807442727e-08
5.98,0.023847336626128316,77.5000019603924,0,60,3.0,4,4.6126879905226385e-08
5.985,0.0359830743700859,77.50000130192649,0,60,3.0,4,3.063356443282614e-08
5.99,0.05218887796857759,77.50000085999925,0,60,3.0,4,2.0235276398285778e-08
5.995,0.0727577001223134,77.50000056503822,0,60,3.0,4,1.3295016956630313e-08
6.0,0.0974992498694751,77.50000036925445,0,60,3.0,4,8.688340023902984e-09
6.005,0.12558706050443358,77.5000002400169,0,60,3.0,4,5.6474565259550755e-09
6.01,0.15549263588878245,77.50000015517654,0,60,3.0,4,3.6512126237486133e-09
6.015,0.1850529723539114,77.50000009978802,0,60,3.0,4,2.347953528335304e-09
6.02,0.21169159439317053,77.50000006382619,0,60,3.0,4,1.5017927607379319e-09
6.025,0.23277292922115492,77.50000004060576,0,60,3.0,5,9.55429534181295e-10
6.03,0.24602692519491282,77.50000002569476,0,60,3.0,5,6.045825905269286e-10
6.035,0.24995056064839283,77.50000001617221,0,60,3.0,5,3.805225520302295e-10
6.04,0.24408826520424054,77.50000001012424,0,60,3.0,5,2.382173935235615e-10
6.045,0.22911894216865275,77.5000000063041,0,60,3.0,5,1.4833189839812215e-10
6.05,0.20672661788705934,77.50000000390439,0,60,3.0,5,9.186799295147306e-11
6.055,0.17928878030241233,77.5000000024052,0,60,3.0,5,5.659297344476834e-11
6.06,0.14946211903866036,77.50000000147372,0,60,3.0,5,3.467582299730138e-11
6.065,0.1197651512573837,77.50000000089815,0,60,3.0,5,2.113304564023993e-11
6.07,0.09224675744988023,77.50000000054445,0,60,3.0,5,1.2810500372913393e-11
6.075,0.06829565320281596,77.50000000032826,0,60,3.0,5,7.72368313097532e-12
6.08,0.04860224607515734,77.50000000019686,0,60,3.0,5,4.632069891051608e-12
6.085,0.03324612389699793,77.50000000011742,0,60,3.0,5,2.762924529687392e-12
6.09,0.021859876340472782,77.50000000006968,0,60,3.0,5,1.6394310745561276e-12
6.095,0.01381595518554205,77.50000000004111,0,60,3.0,5,9.673412397901036e-13
6.1,0.008394095110402422,77.50000000002413,0,60,3.0,5,5.677654425038354e-13
6.105,0.0049052535271608,77.50000000001408,0,60,3.0,5,3.3136369465329847e-13
6.11,0.0027671663551903634,77.50000000000819,0,60,3.0,5,1.9259887802250245e-13
6.115,0.0015425553464444616,77.50000000000472,0,60,3.0,5,1.1101185330463683e-13
6.12,0.0009638206637011801,77.50000000000271,0,60,3.0,5,6.386525295537842e-14
6.125,0.0009804935156568228,77.50000000000155,0,60,3.0,5,3.644666268134161e-14
6.13,0.0018793744894085216,77.50000000000088,0,60,3.0,5,2.0731129231588804e-14
6.135,0.004535525206900863,77.5000000000005,0,60,3.0,5,1.1703056824284003e-14
6.14,0.010832767979632273,77.50000000000028,0,60,3.0,5,6.687461042448002e-15
6.145,0.024208003392322392,77.50000000000016,0,60,3.0,5,3.678103573346401e-15
6.15,0.0500971897335304,77.50000000000009,0,60,3.0,5,2.0062383127344005e-15
6.155,0.09582894921774403,77.50000000000004,0,60,3.0,5,1.0031191563672002e-15
6.16,0.16937896721820658,77.50000000000003,0,60,3.0,5,6.687461042448002e-16
6.165,0.27661303008991756,77.50000000000001,0,60,3.0,5,3.343730521224001e-16
6.17,0.4173782800009149,77.50000000000001,0,60,3.0,5,3.343730521224001e-16
6.175,0.5818720934538056,77.5,0,60,3.0,5,0.0
6.18,0.7494718801585675,77.5,0,60,3.0,5,0.0
6.185,0.891813020752378,77.5,0,60,3.0,5,0.0
6.19,0.9800361632936612,77.5,0,60,3.0,5,0.0
6.195,0.993574479225126,77.50000249379623,1,60,3.0,5,5.8677558372972485e-08
6.2,0.9263438449375362,77.50000374914603,0,60,3.0,5,8.821520074942621e-08
6.205,0.7873015962290536,77.50000574205839,0,60,3.0,5,1.3510725626902592e-07
6.21,0.5959516244629897,77.50000904290425,0,60,3.0,5,2.1277421771682224e-07
6.215,0.376910120078773,77.50001477842311,0,60,3.0,5,3.477276025290955e-07
6.22,0.15739335672107918,77.50002521824138,0,60,3.0,5,5.93370385318207e-07
6.225,-0.033361226269301235,77.50004495906866,0,60,3.0,5,1.0578604390582981e-06
6.23,-0.1680180840843834,77.5000832626602,0,60,3.0,5,1.9591214164152276e-06
6.235,-0.23069703190837854,77.50015855775519,0,60,3.0,5,3.730770710235982e-06
6.24,-0.22587267821131068,77.50030687962926,0,60,3.0,5,7.220697159147997e-06
6.245,-0.17718181630665902,77.50059725115638,0,60,3.0,5,1.4052968385372237e-05
6.25,-0.11494332516451301,77.50115890175013,0,60,3.0,5,2.726827647366543e-05
6.255,-0.061810214049552864,77.502227982956,0,60,3.0,5,5.242312837648409e-05
6.26,-0.026546104631500547,77.50422523134473,0,60,3.0,5,9.941720811137683e-05
6.265,-0.00719600351942686,77.50788085207563,0,60,3.0,5,0.00018543181354422868
6.27,0.0022072757983807078,77.51442842473308,0,60,3.0,5,0.0003394923466607773
6.275,0.006917199873730717,77.52589499534879,0,60,3.0,5,0.0006092940082068895
6.28,0.01004859748264829,77.54551806446773,0,60,3.0,5,0.0010710132815936102
6.285,0.013037082251128167,77.57831931533336,0,60,3.0,5,0.001842807419608468
6.29,0.01645163937690478,77.63185613703956,0,60,3.0,5,0.0031024973421073594
6.295,0.020526639934696615,77.71715124028381,0,60,3.0,5,0.005109440947854396
6.3,0.02539629541761738,77.84976424958334,0,60,3.0,5,0.008229747049019874
6.305,0.031171612185577933,78.05091521223822,0,60,3.0,5,0.012962710876193488
6.31,0.03795853426638131,78.34850034697884,0,60,3.0,5,0.0199647140465609
6.315,0.0458588961882057,78.77776263344921,0,60,3.0,5,0.030065003139981505
6.32,0.054966995891435555,79.38130867176919,0,60,3.0,5,0.04426608639456918
6.325,0.06536491004445595,80.20812022232984,0,60,3.0,5,0.06372047581952563
6.33,0.07711726085088699,81.31122000278289,0,60,3.0,5,0.08967576477136209
6.335,0.09026570629555215,82.74374175486754,0,60,3.0,5,0.12338215893805983
6.34,0.10482339848670268,84.5533405253622,0,60,3.0,5,0.16596095353793416
6.345,0.12076968927580028,86.77515893010619,0,60,3.0,5,0.21823903364955735
6.35,0.13804539501007884,89.42391197979815,0,60,3.0,5,0.28056263481877997
6.355,0.15654895051787066,92.48601184868365,0,60,3.0,5,0.3526120434984387
6.36,0.17613378141900526,95.91294646423091,0,60,3.0,5,0.4332457991583744
6.365,0.19660720058055794,99.61726401786359,0,60,3.0,5,0.5204062121850257
6.37,0.21773108748496234,103.4724229370135,0,60,3.0,5,0.6111158338120825
6.375,0.23922453870058807,107.317402683545,0,60,3.0,5,0.7015859454951764
6.38,0.2607685857914563,110.96635024110174,0,60,3.0,5,0.7874435350847467
6.385,0.2820129681603682,114.22274096962201,0,60,3.0,5,0.8640644934028708
6.39,0.30258482867153996,116.8966991332729,0,60,3.0,5,0.9269811560770095
6.395,0.3220990771751686,118.82342375535035,0,60,3.0,5,0.972315853067067
6.4,0.3401700499968971,119.88026396726374,0,60,3.0,5,0.9971826815826763
6.405,0.3564239911198326,120.0,0,60,3.0,5,1.0
6.41,0.3705118017738417,119.1783433081767,0,60,3.0,5,0.9806669013688634
6.415,0.3821214567925213,117.47450566886323,0,60,3.0,5,0.9405766039732525
6.42,0.39098947374066967,115.00474839088832,0,60,3.0,5,0.8824646680209017
6.425,0.3969108472035567,111.92990155349591,0,60,3.0,5,0.810115330670492
6.43,0.3997469255491936,108.43872783044789,0,60,3.0,5,0.7279700665987738
6.435,0.3994308076379137,104.7295305019311,0,60,3.0,5,0.6406948353395552
6.44,0.3959699661768434,100.99248893952765,0,60,3.0,5,0.5527644456359446
6.445,0.38944595408114946,97.39486371458231,0,60,3.0,5,0.4681144403431133
6.45,0.38001120995358023,94.07055139237116,0,60,3.0,5,0.3898953268793214
6.455,0.3678831374098315,91.1146454134743,0,60,3.0,5,0.3203445979641013
6.46,0.35333577933796634,88.5828469468639,0,60,3.0,5,0.260772869337974
6.465,0.33668953221163944,86.49491404388809,0,60,3.0,5,0.21164503632677853
6.47,0.3182994390982644,84.84092970825792,0,60,3.0,5,0.17272775784136277
6.475,0.29854265738230645,83.58903512890866,0,60,3.0,5,0.14327141479785088
6.48,0.2778057157821067,82.69338027079178,0,60,3.0,5,0.12219718284215948
6.485,0.2564721553719815,82.10131785759242,0,60,3.0,5,0.10826630253158635
6.49,0.23491109433464996,81.75922079911874,0,60,3.0,5,0.10021695997926439
6.495,0.21346717185309805,81.61665631936843,0,60,3.0,5,0.09686250163219838
6.5,0.19245222055656455,81.62894315447333,0,60,3.0,5,0.09715160363466667
6.505,0.17213889801761392,81.75831982609262,0,60,3.0,5,0.10019576061394392
6.51,0.15275638501270183,81.9740569196691,0,60,3.0,5,0.10527192752162577
6.515,0.13448814019607322,82.25186848048502,0,60,3.0,5,0.11180867012905918
6.52,0.11747159495449566,82.57294133248891,0,60,3.0,5,0.11936332547032728
6.525,0.10179958433370105,82.92283264526998,0,60,3.0,5,0.12759606224164652
6.53,0.08752324394101413,83.29040798078412,0,60,3.0,5,0.1362448936655088
6.535,0.07465606047174059,83.66692017809487,0,60,3.0,5,0.1451040041904675
6.54,0.0631787448609295,84.04527242910562,0,60,3.0,5,0.1540064100966029
6.545,0.05304460019959574,84.41946941505594,0,60,3.0,5,0.16281104506013983
6.55,0.044185078305849994,84.78423701164296,0,60,3.0,5,0.17139381203865783
6.555,0.03651525513023255,85.13478033273678,0,60,3.0,5,0.1796418901820419
6.56,0.0299390014708757,85.466647720412,0,60,3.0,5,0.18745053459792937
6.565,0.024353677220580638,85.77567108148466,0,60,3.0,5,0.19472167250552141
6.57,0.01965423034339045,86.05795797916235,0,60,3.0,5,0.20136371715676124
6.575,0.015736632374757337,86.30991632969506,0,60,3.0,5,0.20729214893400133
6.58,0.012500627640593535,86.52829745546912,0,60,3.0,5,0.2124305283639792
6.585,0.009851811652115898,86.71024721641409,0,60,3.0,5,0.21671169920974329
6.59,0.007703084175428559,86.85335794517667,0,60,3.0,5,0.22007901047474515
6.595,0.005975544002062424,86.95571609025774,0,60,3.0,5,0.22248743741782911
6.6,0.004598905818663047,87.0159420257872,0,60,3.0,5,0.2239045182538164
6.605,0.0035115256454839104,87.03321960866413,0,60,3.0,5,0.2243110496156265
6.61,0.002660121266303676,87.0073139066997,0,60,3.0,5,0.2237015036870516
6.615,0.0019992692560877024,86.938576193165,0,60,3.0,5,0.22208414572152954
6.62,0.0014907520044639367,86.82793587151944,0,60,3.0,5,0.2194808440357516
6.625,0.0011028178277539807,86.67687949596854,0,60,3.0,5,0.21592657637573023
6.63,0.0008094059938923333,86.4874175045347,0,60,3.0,5,0.21146864716552247
6.635,0.0005893771793717645,86.26203968403271,0,60,3.0,5,0.20616563962429918
6.64,0.0004257792353490551,86.00366073614138,0,60,3.0,5,0.20008613496803257
6.645,0.0003051686392901525,85.71555760321358,0,60,3.0,5,0.19330723772267253
6.65,0.00021699992642659966,85.40130043404575,0,60,3.0,5,0.1859129513893118
6.655,0.00015308884054097838,85.06467921767266,0,60,3.0,5,0.17799245218053322
6.66,0.00010714989329311098,84.70962818415443,0,60,3.0,5,0.16963831021539824
6.665,7.440535854020571e-05,84.34015006520161,0,60,3.0,5,0.16094470741650854
6.67,5.1260276743925106e-05,83.9602422274949,0,60,3.0,5,0.1520056994704683
6.675,3.503659887882241e-05,83.57382654391216,0,60,3.0,5,0.14291356573910968
6.68,2.375894748103639e-05,83.18468466146989,0,60,3.0,5,0.13375728615223265
6.685,1.5984413869232557e-05,82.79640007066425,0,60,3.0,5,0.12462117813327642
6.69,1.0669166579899869e-05,82.41230809162077,0,60,3.0,5,0.11558371980284171
6.695,7.06526633560511e-06,82.03545458144112,0,60,3.0,5,0.10671657838684977
6.7,4.641847214699205e-06,81.66856384791926,0,60,3.0,5,0.09808385524515903
6.705,3.025641074479182e-06,81.31401594043791,0,60,3.0,5,0.08974155153971558
6.71,1.9566278676921314e-06,80.97383319129152,0,60,3.0,5,0.08173725155980044
6.715,1.2553456560008793e-06,80.64967561027302,0,60,3.0,5,0.07411001435936522
6.72,7.990660428214668e-07,80.34284450049499,0,60,3.0,5,0.06689045883517625
6.725,5.046221251618276e-07,80.0542934702713,0,60,3.0,5,0.06010102282991304
6.73,3.1616527078858815e-07,79.78464586832229,0,60,3.0,5,0.05375637337228909
6.735,1.9652884407760343e-07,79.53421756914149,0,60,3.0,5,0.04786394280332916
6.74,1.2120002189836396e-07,79.30304398146892,0,60,3.0,5,0.04242456426985688
6.745,7.415549848886236e-08,79.09091014291228,0,60,3.0,5,0.03743317983323008
6.75,4.501406988770349e-08,78.89738279368821,0,60,3.0,5,0.032879595145604915
6.755,0.0,78.72184338679693,0,60,3.0,5,0.028749256159927856
6.76,0.0,78.56352108441183,0,60,3.0,5,0.025024025515572517
6.765,0.0,78.42152490408645,0,60,3.0,5,0.021682938919681257
6.77,0.0,78.29487430668186,0,60,3.0,5,0.01870292486310264
6.775,0.0,78.18252765403497,0,60,3.0,5,0.016059474212587542
6.78,0.0,78.08340810217774,0,60,3.0,5,0.013727249463005698
6.785,0.0,77.99642662994414,0,60,3.0,5,0.01168062658692092
6.79,0.0,77.92050202852263,0,60,3.0,5,0.009894165377003153
6.795,0.0,77.85457779134715,0,60,3.0,5,0.008343006855227151
6.8,0.0,77.79763594309105,0,60,3.0,5,0.00700319866096593
6.805,0.0,77.7487079298358,0,60,3.0,5,0.0058519512902541785
6.81,0.0,77.70688275903142,0,60,3.0,5,0.004867829624268605
6.815,0.0,77.67131262775425,0,60,3.0,5,0.004030885358923463
6.82,0.0,77.64121631177731,0,60,3.0,5,0.0033227367477014894
6.825,0.0,77.61588060740796,0,60,3.0,5,0.0027266025272461
6.83,0.0,77.59466012461155,0,60,3.0,5,0.0022272970496835433
6.835,0.0,77.57697572556901,0,60,3.0,5,0.0018111935428003242
6.84,0.0,77.56231188956468,0,60,3.0,5,0.0014661621074042962
6.845,0.0,77.5502132650315,0,60,3.0,5,0.0011814885889765158
6.85,0.0,77.54028064465962,0,60,3.0,5,0.0009477798743439374
6.855,0.0,77.53216657151289,0,60,3.0,5,0.0007568605061856167
6.86,0.0,77.52557075468849,0,60,3.0,5,0.0006016648161997129
6.865,0.0,77.52023544355008,0,60,3.0,5,0.0004761280835312471
6.87,0.0,77.5159408810574,0,60,3.0,5,0.0003750795542918481
6.875,0.0,77.51250093004288,0,60,3.0,5,0.0002941395304206066
6.88,0.0,77.50975894204335,0,60,3.0,5,0.00022962216572583363
6.885,0.0,77.50758391686,0,60,3.0,5,0.000178445102588231
6.89,0.0,77.505866982575,0,60,3.0,5,0.00013804664882353362
6.895,0.0,77.50451821032726,0,60,3.0,5,0.00010631083122970107
6.9,0.0,77.50346376564148,0,60,3.0,5,8.150036803492773e-05
6.905,0.0,77.50264338831892,0,60,3.0,5,6.219737220977978e-05
6.91,0.0,77.50200818557703,0,60,3.0,5,4.72514253417825e-05
6.915,0.0,77.50151871796827,0,60,3.0,5,3.5734540429811044e-05
6.92,0.0,77.5011433542997,0,60,3.0,5,2.6902454110581055e-05
6.925,0.0,77.50085686999996,0,60,3.0,5,2.01616470579826e-05
6.93,0.0,77.50063926283588,0,60,3.0,5,1.5041478491184535e-05
6.935,0.0,77.50047476029029,0,60,3.0,5,1.1170830359721068e-05
6.94,0.0,77.50035099402773,0,60,3.0,5,8.258683005338111e-06
6.945,0.0,77.5002583184806,0,60,3.0,5,6.078081896569475e-06
6.95,0.0,77.5001892525059,0,60,3.0,5,4.453000138937569e-06
6.955,0.0,77.50013802514448,0,60,3.0,5,3.2476504583535324e-06
6.96,0.0,77.50010020864568,0,60,3.0,5,2.3578504865059477e-06
6.965,0.0,77.50007242401301,0,60,3.0,5,1.704094423824726e-06
6.97,0.0,77.50005210631836,0,60,3.0,5,1.2260310203306718e-06
6.975,0.0,77.50003731888009,0,60,3.0,5,8.780912962185325e-07
6.98,0.0,77.50002660708068,0,60,3.0,5,6.260489572816689e-07
6.985,0.0,77.5000188840987,0,60,3.0,5,4.443317339684975e-07
6.99,0.0,77.50001334214654,0,60,3.0,5,3.1393285988034384e-07
6.995,0.0,77.50000938394734,0,60,3.0,5,2.2079876102639794e-07
7.0,0.0,77.50000657015823,0,60,3.0,5,1.5459195845537846e-07
7.005,0.0,77.50000457927268,0,60,3.0,5,1.0774759255796466e-07
7.01,0.001684486749771458,77.50000317722223,0,60,3.0,5,7.475817001785104e-08
7.015,0.003097557930867117,77.50000219446719,0,60,3.0,5,5.163452201754005e-08
7.02,0.005475106668887023,77.5000015088324,0,60,3.0,5,3.5501938769170115e-08
7.025,0.00930222931468658,77.50000103272174,0,60,3.0,5,2.4299335082640242e-08
7.03,0.01519157517868857,77.50000070364895,0,60,3.0,5,1.6556445897924062e-08
7.035,0.023847336626128316,77.50000047726456,0,60,3.0,5,1.1229754443989162e-08
7.04,0.0359830743700859,77.50000032224986,0,60,3.0,5,7.58234966055812e-09
7.045,0.05218887796857759,77.50000021659912,0,60,3.0,5,5.0964498608236145e-09
7.05,0.0727577001223134,77.50000014492758,0,60,3.0,5,3.410060772319626e-09
7.055,0.0974992498694751,77.50000009653301,0,60,3.0,5,2.2713650463736165e-09
7.06,0.12558706050443358,77.50000006400752,0,60,3.0,5,1.5060593608830138e-09
7.065,0.15549263588878245,77.50000004224901,0,60,3.0,5,9.940944276904167e-10
7.07,0.1850529723539114,77.50000002776085,0,60,3.0,5,6.531964198289001e-10
7.075,0.21169159439317053,77.50000001815846,0,60,3.0,5,4.2725787352537734e-10
7.08,0.23277292922115492,77.50000001182377,0,60,3.0,5,2.782064043190878e-10
7.085,0.24602692519491282,77.50000000766414,0,60,3.0,5,1.8033273697844433e-10
7.09,0.24995056064839283,77.50000000494539,0,60,3.0,5,1.1636215651164735e-10
7.095,0.24408826520424054,77.50000000317665,0,60,3.0,5,7.474474895228495e-11
7.1,0.22911894216865275,77.50000000203127,0,60,3.0,5,4.779461532427162e-11
7.105,0.20672661788705934,77.50000000129299,0,60,3.0,5,3.0423266520408696e-11
7.11,0.17928878030241233,77.50000000081933,0,60,3.0,5,1.9278278320116976e-11
7.115,0.14946211903866036,77.50000000051682,0,60,3.0,5,1.2160479159587447e-11
7.12,0.1197651512573837,77.50000000032453,0,60,3.0,5,7.636077391319251e-12
7.125,0.09224675744988023,77.50000000020287,0,60,3.0,5,4.773509692099383e-12
7.13,0.06829565320281596,77.50000000012624,0,60,3.0,5,2.97023582200328e-12
7.135,0.04860224607515734,77.5000000000782,0,60,3.0,5,1.8400549058295675e-12
7.14,0.03324612389699793,77.50000000004822,0,60,3.0,5,1.1345277658513034e-12
7.145,0.021859876340472782,77.5000000000296,0,60,3.0,5,6.964990675709594e-13
7.15,0.01381595518554205,77.50000000001809,0,60,3.0,5,4.256568953518153e-13
7.155,0.008394095110402422,77.500000000011,0,60,3.0,5,2.5880474234273766e-13
7.16,0.0049052535271608,77.50000000000666,0,60,3.0,5,1.5682096144540564e-13
7.165,0.0027671663551903634,77.50000000000402,0,60,3.0,5,9.462757375063923e-14
7.17,0.0015425553464444616,77.50000000000242,0,60,3.0,5,5.684341886080802e-14
7.175,0.0009638206637011801,77.50000000000144,0,60,3.0,5,3.377167826436241e-14
7.18,0.0009804935156568228,77.50000000000085,0,60,3.0,5,2.0062383127344007e-14
7.185,0.0018793744894085216,77.50000000000051,0,60,3.0,5,1.2037429876406403e-14
7.19,0.004535525206900863,77.5000000000003,0,60,3.0,5,7.021834094570402e-15
7.195,0.010832767979632273,77.50000000000017,0,60,3.0,5,4.012476625468801e-15
7.2,0.024208003392322392,77.5000000000001,0,60,3.0,5,2.3406113648568006e-15
7.205,0.0500971897335304,77.50000000000006,0,60,3.0,5,1.3374922084896003e-15
7.21,0.09582894921774403,77.50000000000003,0,60,3.0,5,6.687461042448002e-16
7.215,0.16937896721820658,77.50000000000001,0,60,3.0,5,3.343730521224001e-16
7.22,0.27661303008991756,77.50000000000001,0,60,3.0,5,3.343730521224001e-16
7.225,0.4173782800009149,77.5,0,60,3.0,5,0.0
7.23,0.5818720934538056,77.5,0,60,3.0,6,0.0
7.235,0.7494718801585675,77.5,0,60,3.0,6,0.0
7.24,0.891813020752378,77.5,0,60,3.0,6,0.0
7.245,0.9800361632936612,77.5,0,60,3.0,6,0.0
7.25,0.993574479225126,77.5000024907942,1,60,3.0,6,5.860692240008468e-08
7.255,0.9263438449375362,77.50000370168296,0,60,3.0,6,8.709842250830073e-08
7.26,0.7873015962290536,77.50000559732517,0,60,3.0,6,1.3170176871694018e-07
7.265,0.5959516244629897,77.50000868528376,0,60,3.0,6,2.0435961787638113e-07
7.27,0.376910120078773,77.50001394785167,0,60,3.0,6,3.281847451783987e-07
7.275,0.15739335672107918,77.50002332361363,0,60,3.0,6,5.487909089986394e-07
7.28,-0.033361226269301235,77.50004066287902,0,60,3.0,6,9.567736239044762e-07
7.285,-0.1680180840843834,77.50007358415628,0,60,3.0,6,1.7313919125386104e-06
7.29,-0.23069703190837854,77.50013699814808,0,60,3.0,6,3.223485837157996e-06
7.295,-0.22587267821131068,77.50025963121455,0,60,3.0,6,6.108969754049052e-06
7.3,-0.17718181630665902,77.5004957861202,0,60,3.0,6,1.1665555769348109e-05
7.305,-0.11494332516451301,77.5009459677673,0,60,3.0,6,2.2258065112790813e-05
7.31,-0.061810214049552864,77.50179203370355,0,60,3.0,6,4.216549890710506e-05
7.315,-0.026546104631500547,77.50335533913052,0,60,3.0,6,7.894915601227963e-05
7.32,-0.00719600351942686,77.50618997755612,0,60,3.0,6,0.00014564653073220518
7.325,0.0022072757983807078,77.51122751320875,0,60,3.0,6,0.00026417678138239566
7.33,0.006917199873730717,77.51999405208973,0,60,3.0,6,0.0004704482844642023
7.335,0.01004859748264829,77.53492407870733,0,60,3.0,6,0.0008217430284078626
7.34,0.013037082251128167,77.5597965053602,0,60,3.0,6,0.001406976596710512
7.345,0.01645163937690478,77.60031444210082,0,60,3.0,6,0.002360339814137045
7.35,0.020526639934696615,77.66483834903529,0,60,3.0,6,0.003878549389065711
7.355,0.02539629541761738,77.76525944842403,0,60,3.0,6,0.006241398786447823
7.36,0.031171612185577933,77.91796430133022,0,60,3.0,6,0.009834454148946245
7.365,0.03795853426638131,78.14479205705722,0,60,3.0,6,0.015171577813110978
7.37,0.0458588961882057,78.47382629012718,0,60,3.0,6,0.022913559767698308
7.375,0.054966995891435555,78.93980153362324,0,60,3.0,6,0.033877683144076215
7.38,0.06536491004445595,79.58385394298729,0,60,3.0,6,0.049031857482053874
7.385,0.07711726085088699,80.45232396160812,0,60,3.0,6,0.06946644615548507
7.39,0.09026570629555215,81.59434646012087,0,60,3.0,6,0.09633756376754998
7.395,0.10482339848670268,83.05805814539562,0,60,3.0,6,0.13077783871519105
7.4,0.12076968927580028,84.88542207281273,0,60,3.0,6,0.17377463700735835
7.405,0.13804539501007884,87.10590891921052,0,60,3.0,6,0.2260213863343652
7.41,0.15654895051787066,89.72955874504295,0,60,3.0,6,0.2877543234127753
7.415,0.17613378141900526,92.74022929216065,0,60,3.0,6,0.35859363040377995
7.42,0.19660720058055794,96.09005573048681,0,60,3.0,6,0.43741307601145435
7.425,0.21773108748496234,99.69623571926265,0,60,3.0,6,0.5222643698650035
7.43,0.23922453870058807,103.44115724979734,0,60,3.0,6,0.6103801705834668
7.435,0.2607685857914563,107.1765779098145,0,60,3.0,6,0.6982724214074
7.44,0.2820129681603682,110.73205831883556,0,60,3.0,6,0.7819307839726013
7.445,0.30258482867153996,113.9272131458442,0,60,3.0,6,0.8571108975492754
7.45,0.3220990771751686,116.58667615229265,0,60,3.0,6,0.9196864977010036
7.455,0.3401700499968971,118.55611058611859,0,60,3.0,6,0.9660261314380845
7.46,0.3564239911198326,119.71725824702628,0,60,3.0,6,0.9933472528712066
7.465,0.3705118017738417,120.0,0,60,3.0,6,1.0
7.47,0.3821214567925213,119.38972767868773,0,60,3.0,6,0.9856406512632409
7.475,0.39098947374066967,117.928960255824,0,60,3.0,6,0.9512696530782117
7.48,0.3969108472035567,115.71296719634108,0,60,3.0,6,0.8991286399139078
7.485,0.3997469255491936,112.88003618911034,0,60,3.0,6,0.8324714397437728
7.49,0.3994308076379137,109.59777808833056,0,60,3.0,6,0.7552418373724837
7.495,0.3959699661768434,106.04736280680477,0,60,3.0,6,0.6717026542777593
7.5,0.38944595408114946,102.40774654607134,0,60,3.0,6,0.5860646246134432
7.505,0.38001120995358023,98.84177511307495,0,60,3.0,6,0.5021594144252928
7.51,0.3678831374098315,95.48559074062281,0,60,3.0,6,0.42319037036759555
7.515,0.35333577933796634,92.44214101065349,0,60,3.0,6,0.3515797884859644
7.52,0.33668953221163944,89.77891922140981,0,60,3.0,6,0.2889157463861131
7.525,0.3182994390982644,87.52947735808088,0,60,3.0,6,0.23598770254307957
7.53,0.29854265738230645,85.69783352955922,0,60,3.0,6,0.19289020069551102
7.535,0.2778057157821067,84.26468652216829,0,60,3.0,6,0.15916909463925388
7.54,0.2564721553719815,83.19434532822073,0,60,3.0,6,0.13398459595813492
7.545,0.23491109433464996,82.44143882176813,0,60,3.0,6,0.11626914874748542
7.55,0.21346717185309805,81.95672745633289,0,60,3.0,6,0.1048641754431267
7.555,0.19245222055656455,81.69162896855883,0,60,3.0,6,0.09862656396609014
7.56,0.17213889801761392,81.60133817646327,0,60,3.0,6,0.09650207474031229
7.565,0.15275638501270183,81.6466303296647,0,60,3.0,6,0.09756777246269889
7.57,0.13448814019607322,81.79457204803045,0,60,3.0,6,0.1010487540713046
7.575,0.11747159495449566,82.0184254014162,0,60,3.0,6,0.10631589179802813
7.58,0.10179958433370105,82.29703291343391,0,60,3.0,6,0.11287136266903317
7.585,0.08752324394101413,82.61393361697077,0,60,3.0,6,0.12032784981107691
7.59,0.07465606047174059,82.95640229029239,0,60,3.0,6,0.12838593624217384
7.595,0.0631787448609295,83.3145416910855,0,60,3.0,6,0.13681274567259988
7.6,0.05304460019959574,83.68050183919746,0,60,3.0,6,0.1454235726869991
7.605,0.044185078305849994,84.04785682983105,0,60,3.0,6,0.15406721952543642
7.61,0.03651525513023255,84.41113973526605,0,60,3.0,6,0.16261505259449524
7.615,0.0299390014708757,84.76551854057078,0,60,3.0,6,0.17095337742519484
7.62,0.024353677220580638,85.10658802224076,0,60,3.0,6,0.17897854169978253
7.625,0.01965423034339045,85.43025095384682,0,60,3.0,6,0.18659414009051348
7.63,0.015736632374757337,85.73266428905295,0,60,3.0,6,0.19370974797771642
7.635,0.012500627640593535,86.01022996494767,0,60,3.0,6,0.20024070505759223
7.64,0.009851811652115898,86.25961432746958,0,60,3.0,6,0.20610857241104888
7.645,0.007703084175428559,86.47778414733979,0,60,3.0,6,0.21124197993740682
7.65,0.005975544002062424,86.66205044872433,0,60,3.0,6,0.21557765761704303
7.655,0.004598905818663047,86.81011386775772,0,60,3.0,6,0.2190615027707699
7.66,0.0035115256454839104,86.92010709100687,0,60,3.0,6,0.22164957861192633
7.665,0.002660121266303676,86.99063124445878,0,60,3.0,6,0.2233089704578537
7.67,0.0019992692560877024,87.02078406058945,0,60,3.0,6,0.22401844848445762
7.675,0.0014907520044639367,87.01017836754043,0,60,3.0,6,0.22376890276565725
7.68,0.0011028178277539807,86.95895001011893,0,60,3.0,6,0.22256352964985707
7.685,0.0008094059938923333,86.86775478592403,0,60,3.0,6,0.2204177596688008
7.69,0.0005893771793717645,86.7377543953211,0,60,3.0,6,0.21735892694873188
7.695,0.0004257792353490551,86.57059177747234,0,60,3.0,6,0.2134256888817022
7.7,0.0003051686392901525,86.36835654093382,0,60,3.0,6,0.20866721272785452
7.705,0.00021699992642659966,86.13354149454099,0,60,3.0,6,0.20314215281272924
7.71,0.00015308884054097838,85.86899153734997,0,60,3.0,6,0.19691744793764634
7.715,0.00010714989329311098,85.57784636939925,0,60,3.0,6,0.19006697339762949
7.72,7.440535854020571e-05,85.26347863285459,0,60,3.0,6,0.18267008547893143
7.725,5.1260276743925106e-05,84.92942918219951,0,60,3.0,6,0.17481009840469441
7.73,3.503659887882241e-05,84.5793412112028,0,60,3.0,6,0.1665727343812424
7.735,2.375894748103639e-05,84.21689493445919,0,60,3.0,6,0.15804458669315744
7.74,1.5984413869232557e-05,83.84574443572966,0,60,3.0,6,0.1493116337818743
7.745,1.0669166579899869e-05,83.46945815961926,0,60,3.0,6,0.14045783904986506
7.75,7.06526633560511e-06,83.09146434467037,0,60,3.0,6,0.13156386693342048
7.755,4.641847214699205e-06,82.71500248349014,0,60,3.0,6,0.12270594078800326
7.76,3.025641074479182e-06,82.34308165880215,0,60,3.0,6,0.11395486256005055
7.765,1.9566278676921314e-06,81.97844635350938,0,60,3.0,6,0.10537520831786784
7.77,1.2553456560008793e-06,81.62355007815492,0,60,3.0,6,0.09702470772129225
7.775,7.990660428214668e-07,81.28053691025927,0,60,3.0,6,0.08895380965315934
7.78,5.046221251618276e-07,80.95123080570434,0,60,3.0,6,0.08120543072245509
7.785,3.1616527078858815e-07,80.63713233020238,0,60,3.0,6,0.07381487835770298
7.79,1.9652884407760343e-07,80.33942227503793,0,60,3.0,6,0.06680993588324548
7.795,1.2120002189836396e-07,80.05897147016721,0,60,3.0,6,0.06021109341569901
7.8,7.415549848886236e-08,79.7963559921641,0,60,3.0,6,0.05403190569797871
7.805,4.501406988770349e-08,79.5518768854916,0,60,3.0,6,0.04827945612921399
7.81,0.0,79.32558347264785,0,60,3.0,6,0.042954905238772934
7.815,0.0,79.11729931996666,0,60,3.0,6,0.0380541016462744
7.82,0.0,78.92664994813347,0,60,3.0,6,0.03356823407372878
7.825,0.0,78.75309142576543,0,60,3.0,6,0.029484504135657248
7.83,0.0,78.59593905599313,0,60,3.0,6,0.025786801317485362
7.835,0.0,78.45439545479327,0,60,3.0,6,0.02245636364219462
7.84,0.0,78.32757742066049,0,60,3.0,6,0.019472409897893866
7.845,0.0,78.21454110300745,0,60,3.0,6,0.016812731835469375
7.85,0.0,78.11430508671904,0,60,3.0,6,0.014454237334565705
7.855,0.0,78.02587111832956,0,60,3.0,6,0.012373438078342628
7.86,0.0,77.94824230174004,0,60,3.0,6,0.010546877688000892
7.865,0.0,77.88043868534147,0,60,3.0,6,0.00895149847862292
7.87,0.0,77.82151024568631,0,60,3.0,6,0.007564946957324991
7.875,0.0,77.77054734400774,0,60,3.0,6,0.006365819859005609
7.88,0.0,77.72668879016348,0,60,3.0,6,0.005333853886199503
7.885,0.0,77.68912769383309,0,60,3.0,6,0.004450063384307909
7.89,0.0,77.65711531541673,0,60,3.0,6,0.0036968309509819285
7.895,0.0,77.62996314989257,0,60,3.0,6,0.0030579564680605848
7.9,0.0,77.60704348704466,0,60,3.0,6,0.0025186702834038414
7.905,0.0,77.58778869236009,0,60,3.0,6,0.0020656162908257074
7.91,0.0,77.57168944602738,0,60,3.0,6,0.0016868104947618309
7.915,0.0,77.55829216441224,0,60,3.0,6,0.001371580339111447
7.92,0.0,77.54719581067285,0,60,3.0,6,0.001110489662890506
7.925,0.0,77.53804828025008,0,60,3.0,6,0.0008952536529430771
7.93,0.0,77.53054252413591,0,60,3.0,6,0.0007186476267273011
7.935,0.0,77.52441254923001,0,60,3.0,6,0.0005744129230589913
7.94,0.0,77.51942941169872,0,60,3.0,6,0.00045716262820526347
7.945,0.0,77.51539729682236,0,60,3.0,6,0.0003622893369966358
7.95,0.0,77.51214975793991,0,60,3.0,6,0.00028587665740962404
7.955,0.0,77.50954616818494,0,60,3.0,6,0.00022461572199858893
7.96,0.0,77.50746842200519,0,60,3.0,6,0.00017572757659268867
7.965,0.0,77.50581790908933,0,60,3.0,6,0.00013689197857248098
7.97,0.0,77.50451277129098,0,60,3.0,6,0.00010618285390531876
7.975,0.0,77.50348544335841,0,60,3.0,6,8.201043196269144e-05
7.98,0.0,77.5026804705957,0,60,3.0,6,6.306989636955757e-05
7.985,0.0,77.50205259079931,0,60,3.0,6,4.82962541013876e-05
7.99,0.0,77.5015650637076,0,60,3.0,6,3.682502841416756e-05
7.995,0.0,77.50118822853021,0,60,3.0,6,2.7958318357899344e-05
8.0,0.0,77.50089826865133,0,60,3.0,6,2.113573297238498e-05
8.005,0.0,77.50067616209898,0,60,3.0,6,1.590969644666984e-05
8.01,0.0,77.50050679662725,0,60,3.0,6,1.1924626523509955e-05
8.015,0.0,77.50037822908388,0,60,3.0,6,8.899507855965246e-06
8.02,0.0,77.500281069964,0,60,3.0,6,6.6134109177335845e-06
8.025,0.0,77.5002079755434,0,60,3.0,6,4.893542197738926e-06
8.03,0.0,77.50015323162589,0,60,3.0,6,3.6054500208806796e-06
8.035,0.0,77.50011241463747,0,60,3.0,6,2.645050293428058e-06
8.04,0.0,77.50008211748334,0,60,3.0,6,1.9321760786999005e-06
8.045,0.0,77.50005972920171,0,60,3.0,6,1.4053929813893346e-06
8.05,0.0,77.50004325896278,0,60,3.0,6,1.0178579476788025e-06
8.055,0.0,77.50003119635159,0,60,3.0,6,7.34031802012931e-07
8.06,0.0,77.50002240112465,0,60,3.0,6,5.270852859533025e-07
8.065,0.0,77.50001601674096,0,60,3.0,6,3.768644931182387e-07
8.07,0.0,77.50001140293878,0,60,3.0,6,2.6830444192134617e-07
8.075,0.0,77.50000808346843,0,60,3.0,6,1.901992571701532e-07
8.08,0.0,77.50000570580615,0,60,3.0,6,1.342542622537354e-07
8.085,0.0,77.50000401027903,0,60,3.0,6,9.435950654037964e-08
8.09,0.0,77.50000280653512,0,60,3.0,6,6.603612050907139e-08
8.095,0.001684486749771458,77.50000195571103,0,60,3.0,6,4.6016730065650123e-08
8.1,0.003097557930867117,77.50000135699173,0,60,3.0,6,3.1929217210049765e-08
8.105,0.005475106668887023,77.50000093753617,0,60,3.0,6,2.2059674620322768e-08
8.11,0.00930222931468658,77.50000064496652,0,60,3.0,6,1.5175682807132356e-08
8.115,0.01519157517868857,77.50000044179889,0,60,3.0,6,1.0395267977133592e-08
8.12,0.023847336626128316,77.50000030133556,0,60,3.0,6,7.090248492899906e-09
8.125,0.0359830743700859,77.50000020465129,0,60,3.0,6,4.815324379759498e-09
8.13,0.05218887796857759,77.50000013839387,0,60,3.0,6,3.256326408518362e-09
8.135,0.0727577001223134,77.50000009318748,0,60,3.0,6,2.1926466080699087e-09
8.14,0.0974992498694751,77.50000006247936,0,60,3.0,6,1.4701025547230314e-09
8.145,0.12558706050443358,77.50000004171132,0,60,3.0,6,9.814427545172614e-10
8.15,0.15549263588878245,77.50000002772742,0,60,3.0,6,6.524099744103082e-10
8.155,0.1850529723539114,77.50000001835285,0,60,3.0,6,4.3183176250535965e-10
8.16,0.21169159439317053,77.50000001209582,0,60,3.0,6,2.8460764202891904e-10
8.165,0.23277292922115492,77.50000000793791,0,60,3.0,6,1.8677443382758238e-10
8.17,0.24602692519491282,77.50000000518699,0,60,3.0,6,1.2204683277078027e-10
8.175,0.24995056064839283,77.50000000337491,0,60,3.0,6,7.940958740244455e-11
8.18,0.24408826520424054,77.5000000021865,0,60,3.0,6,5.14469721726046e-11
8.185,0.22911894216865275,77.5000000014105,0,60,3.0,6,3.318819728840882e-11
8.19,0.20672661788705934,77.50000000090601,0,60,3.0,6,2.1317953938063616e-11
8.195,0.17928878030241233,77.50000000057948,0,60,3.0,6,1.3634729946395109e-11
8.2,0.14946211903866036,77.50000000036904,0,60,3.0,6,8.683333790566607e-12
8.205,0.1197651512573837,77.50000000023402,0,60,3.0,6,5.506455422351685e-12
8.21,0.09224675744988023,77.50000000014776,0,60,3.0,6,3.476810995968716e-12
8.215,0.06829565320281596,77.5000000000929,0,60,3.0,6,2.1857966417241294e-12
8.22,0.04860224607515734,77.50000000005815,0,60,3.0,6,1.3682545292848611e-12
8.225,0.03324612389699793,77.50000000003625,0,60,3.0,6,8.529856559642426e-13
8.23,0.021859876340472782,77.5000000000225,0,60,3.0,6,5.293125415097594e-13
8.235,0.01381595518554205,77.50000000001391,0,60,3.0,6,3.273512180278297e-13
8.24,0.008394095110402422,77.50000000000855,0,60,3.0,6,2.0129257737768484e-13
8.245,0.0049052535271608,77.50000000000524,0,60,3.0,6,1.2338365623316562e-13
8.25,0.0027671663551903634,77.5000000000032,0,60,3.0,6,7.523393672754002e-14
8.255,0.0015425553464444616,77.50000000000195,0,60,3.0,6,4.5809108140768813e-14
8.26,0.0009638206637011801,77.50000000000118,0,60,3.0,6,2.7752963326159206e-14
8.265,0.0009804935156568228,77.50000000000071,0,60,3.0,6,1.6718652606120005e-14
8.27,0.0018793744894085216,77.50000000000043,0,60,3.0,6,1.0031191563672003e-14
8.275,0.004535525206900863,77.50000000000026,0,60,3.0,6,6.0187149382032015e-15
8.28,0.010832767979632273,77.50000000000016,0,60,3.0,6,3.678103573346401e-15
8.285,0.024208003392322392,77.50000000000009,0,60,3.0,6,2.0062383127344005e-15
8.29,0.0500971897335304,77.50000000000006,0,60,3.0,6,1.3374922084896003e-15
8.295,0.09582894921774403,77.50000000000003,0,60,3.0,6,6.687461042448002e-16
8.3,0.16937896721820658,77.50000000000001,0,60,3.0,6,3.343730521224001e-16
8.305,0.27661303008991756,77.50000000000001,0,60,3.0,6,3.343730521224001e-16
8.31,0.4173782800009149,77.5,0,60,3.0,6,0.0
8.315,0.5818720934538056,77.5,0,60,3.0,6,0.0
8.32,0.7494718801585675,77.5,0,60,3.0,6,0.0
8.325,0.891813020752378,77.5,0,60,3.0,6,0.0
8.33,0.9800361632936612,77.5,0,60,3.0,6,0.0
8.335,0.993574479225126,77.50000249379623,1,60,3.0,6,5.8677558372972485e-08
8.34,0.9263438449375362,77.50000382794776,0,60,3.0,6,9.006935917622125e-08
8.345,0.7873015962290536,77.50000600036053,0,60,3.0,6,1.4118495361050436e-07
8.35,0.5959516244629897,77.50000970943701,0,60,3.0,6,2.2845734138975198e-07
8.355,0.376910120078773,77.5000163868594,0,60,3.0,6,3.8557316235496463e-07
8.36,0.15739335672107918,77.50002902423199,0,60,3.0,6,6.829231056947131e-07
8.365,-0.033361226269301235,77.50005389476512,0,60,3.0,6,1.268112120388811e-06
8.37,-0.1680180840843834,77.50010404947875,0,60,3.0,6,2.4482230294191086e-06
8.375,-0.23069703190837854,77.50020622040319,0,60,3.0,6,4.852244780843595e-06
8.38,-0.22587267821131068,77.50041404783398,0,60,3.0,6,9.742301976115521e-06
8.385,-0.17718181630665902,77.50083263801669,0,60,3.0,6,1.959148274562829e-05
8.39,-0.11494332516451301,77.50166268015035,0,60,3.0,6,3.912188589050161e-05
8.395,-0.061810214049552864,77.5032770278292,0,60,3.0,6,7.710653715762687e-05
8.4,-0.026546104631500547,77.50634895429774,0,60,3.0,6,0.0001493871599467077
8.405,-0.00719600351942686,77.5120590120072,0,60,3.0,6,0.0002837414589929294
8.41,0.0022072757983807078,77.52241562190353,0,60,3.0,6,0.0005274263977302032
8.415,0.006917199873730717,77.54073109806174,0,60,3.0,6,0.0009583787779233182
8.42,0.01004859748264829,77.57229617891642,0,60,3.0,6,0.0017010865627392323
8.425,0.013037082251128167,77.62528706971409,0,60,3.0,6,0.0029479310520962505
8.43,0.01645163937690478,77.7119131132812,0,60,3.0,6,0.004986190900734086
8.435,0.020526639934696615,77.84976424958334,0,60,3.0,7,0.008229747049019874
8.44,0.02539629541761738,78.06324165455797,0,60,3.0,7,0.013252744813128709
8.445,0.031171612185577933,78.38485440731901,0,60,3.0,7,0.020820103701623793
8.45,0.03795853426638131,78.85605110071748,0,60,3.0,7,0.031907084722764226
8.455,0.0458588961882057,79.52715125776614,0,60,3.0,7,0.047697676653320836
8.46,0.054966995891435555,80.45588226229052,0,60,3.0,7,0.06955017087742389
8.465,0.06536491004445595,81.70405544530206,0,60,3.0,7,0.09891895165416613
8.47,0.07711726085088699,83.33206946519013,0,60,3.0,7,0.1372251638868266
8.475,0.09026570629555215,85.39123254573106,0,60,3.0,7,0.1856760598995543
8.48,0.10482339848670268,87.9143369512103,0,60,3.0,7,0.24504322238141887
8.485,0.12076968927580028,90.90544393360824,0,60,3.0,7,0.3154222102025468
8.49,0.13804539501007884,94.33034336266256,0,60,3.0,7,0.396008079121472
8.495,0.15654895051787066,98.10950421064753,0,60,3.0,7,0.4849295108387654
8.5,0.17613378141900526,102.11539119616134,0,60,3.0,7,0.5791856752037963
8.505,0.19660720058055794,106.17568759500095,0,60,3.0,7,0.6747220610588459
8.51,0.21773108748496234,110.08321153763839,0,60,3.0,7,0.7666638008856091
8.515,0.23922453870058807,113.61222628224048,0,60,3.0,7,0.8496994419350702
8.52,0.2607685857914563,116.53961398056285,0,60,3.0,7,0.9185791524838317
8.525,0.2820129681603682,118.66827111065578,0,60,3.0,7,0.9686652026036654
8.53,0.30258482867153996,119.84936740314373,0,60,3.0,7,0.9964557036033819
8.535,0.3220990771751686,120.0,0,60,3.0,7,1.0
8.54,0.3401700499968971,119.11335164043977,0,60,3.0,7,0.9791376856574064
8.545,0.3564239911198326,117.2596422087817,0,60,3.0,7,0.9355209931478047
8.55,0.3705118017738417,114.57771066593102,0,60,3.0,7,0.8724167215513182
8.555,0.3821214567925213,111.25864733544083,0,60,3.0,7,0.7943211137750783
8.56,0.39098947374066967,107.52417358062645,0,60,3.0,7,0.7064511430735636
8.565,0.3969108472035567,103.60317581973628,0,60,3.0,7,0.614192372229089
8.57,0.3997469255491936,99.70982687224779,0,60,3.0,7,0.5225841616999479
8.575,0.3994308076379137,96.02611916232044,0,60,3.0,7,0.43590868617224565
8.58,0.3959699661768434,92.69058107724302,0,60,3.0,7,0.3574254371116006
8.585,0.38944595408114946,89.79371843965717,0,60,3.0,7,0.28926396328605103
8.59,0.38001120995358023,87.37958938048318,0,60,3.0,7,0.2324609265996043
8.595,0.3678831374098315,85.45209135214775,0,60,3.0,7,0.1871080318152411
8.6,0.35333577933796634,83.98411918621723,0,60,3.0,7,0.15256751026393478
8.605,0.33668953221163944,82.92773974008752,0,60,3.0,7,0.12771152329617688
8.61,0.3182994390982644,82.22383282330381,0,60,3.0,7,0.11114900760714845
8.615,0.29854265738230645,81.81013488536829,0,60,3.0,7,0.10141493847925377
8.62,0.2778057157821067,81.62715266498432,0,60,3.0,7,0.09710947447021935
8.625,0.2564721553719815,81.62187846806819,0,60,3.0,7,0.09698537571925152
8.63,0.23491109433464996,81.74957199839405,0,60,3.0,7,0.09998992937397755
8.635,0.21346717185309805,81.9740569196691,0,60,3.0,7,0.10527192752162577
8.64,0.19245222055656455,82.2670305887381,0,60,3.0,7,0.11216542561736693
8.645,0.17213889801761392,82.6068399772209,0,60,3.0,7,0.12016094064049178
8.65,0.15275638501270183,82.97707830332679,0,60,3.0,7,0.12887243066651274
8.655,0.13448814019607322,83.36524231629802,0,60,3.0,7,0.13800570155995348
8.66,0.11747159495449566,83.76158527846451,0,60,3.0,7,0.14733141831681196
8.665,0.10179958433370105,84.15821910240557,0,60,3.0,7,0.156663978880131
8.67,0.08752324394101413,84.54846447631488,0,60,3.0,7,0.16584622297211474
8.675,0.07465606047174059,84.92641729835339,0,60,3.0,7,0.17473923054949142
8.68,0.0631787448609295,85.2866873918496,0,60,3.0,7,0.18321617392587286
8.685,0.05304460019959574,85.6242648120442,0,60,3.0,7,0.19115917204809887
8.69,0.044185078305849994,85.93447459191242,0,60,3.0,7,0.19845822569205693
8.695,0.03651525513023255,86.21298860076058,0,60,3.0,7,0.20501149648848427
8.7,0.0299390014708757,86.45587095455626,0,60,3.0,7,0.21072637540132377
8.705,0.024353677220580638,86.65963999461131,0,60,3.0,7,0.2155209410496779
8.71,0.01965423034339045,86.82133492105665,0,60,3.0,7,0.21932552755427404
8.715,0.015736632374757337,86.93857885017128,0,60,3.0,7,0.2220842082393243
8.72,0.012500627640593535,87.00963266008729,0,60,3.0,7,0.2237560625902892
8.725,0.009851811652115898,87.03343582049601,0,60,3.0,7,0.2243161369528473
8.73,0.007703084175428559,87.00963173891398,0,60,3.0,7,0.2237560409156231
8.735,0.005975544002062424,86.938576193165,0,60,3.0,7,0.22208414572152954
8.74,0.004598905818663047,86.82132827999462,0,60,3.0,7,0.219325371293991
8.745,0.0035115256454839104,86.65962406044066,0,60,3.0,7,0.2155205661280156
8.75,0.002660121266303676,86.45583375264079,0,60,3.0,7,0.21072550006213614
8.755,0.0019992692560877024,86.21290391749133,0,60,3.0,7,0.2050095039409725
8.76,0.0014907520044639367,85.93428659481444,0,60,3.0,7,0.19845380223092796
8.765,0.0011028178277539807,85.62385776540609,0,60,3.0,7,0.1911495944801432
8.77,0.0008094059938923333,85.28582782555713,0,60,3.0,7,0.18319594883663848
8.775,0.0005893771793717645,84.92464695644118,0,60,3.0,7,0.17469757544567482
8.78,0.0004257792353490551,84.54490834692771,0,60,3.0,7,0.1657625493394756
8.785,0.0003051686392901525,84.1512521860989,0,60,3.0,7,0.1565000514376212
8.79,0.00021699992642659966,83.74827318768754,0,60,3.0,7,0.14701819265147165
8.795,0.00015308884054097838,83.34043415451329,0,60,3.0,7,0.13742198010619505
8.8,0.00010714989329311098,82.93198775273756,0,60,3.0,7,0.1278114765350013
8.805,7.440535854020571e-05,82.52690826257488,0,60,3.0,7,0.11828019441352654
8.81,5.1260276743925106e-05,82.12883462523583,0,60,3.0,7,0.10891375588790177
8.815,3.503659887882241e-05,81.74102563739208,0,60,3.0,7,0.09978883852687258
8.82,2.375894748103639e-05,81.36632767600855,0,60,3.0,7,0.09097241590608358
8.825,1.5984413869232557e-05,81.00715488812935,0,60,3.0,7,0.08252129148539646
8.83,1.0669166579899869e-05,80.66548136982472,0,60,3.0,7,0.07448191458411102
8.835,7.06526633560511e-06,80.34284450049499,0,60,3.0,7,0.06689045883517625
