Time,ECG,Pressure,R_Peaks,mean_hr,hrv_scale,Phase_Bin,Normalized_Pressure
0.0,0.001684486749771458,77.5,0,60,3.0,0,0.0
0.005,0.003097557930867117,77.5,0,60,3.0,0,0.0
0.01,0.005475106668887023,77.5,0,60,3.0,0,0.0
0.015,0.00930222931468658,77.5,0,60,3.0,0,0.0
0.02,0.01519157517868857,77.5,0,60,3.0,0,0.0
0.025,0.023847336626128316,77.5,0,60,3.0,0,0.0
0.03,0.0359830743700859,77.5,0,60,3.0,0,0.0
0.035,0.05218887796857759,77.5,0,60,3.0,0,0.0
0.04,0.0727577001223134,77.5,0,60,3.0,0,0.0
0.045,0.0974992498694751,77.5,0,60,3.0,0,0.0
0.05,0.12558706050443358,77.5,0,60,3.0,0,0.0
0.055,0.15549263588878245,77.5,0,60,3.0,0,0.0
0.06,0.1850529723539114,77.5,0,60,3.0,0,0.0
0.065,0.21169159439317053,77.5,0,60,3.0,0,0.0
0.07,0.23277292922115492,77.5,0,60,3.0,0,0.0
0.075,0.24602692519491282,77.5,0,60,3.0,0,0.0
0.08,0.24995056064839283,77.5,0,60,3.0,0,0.0
0.085,0.24408826520424054,77.5,0,60,3.0,0,0.0
0.09,0.22911894216865275,77.5,0,60,3.0,0,0.0
0.095,0.20672661788705934,77.5,0,60,3.0,0,0.0
0.1,0.17928878030241233,77.5,0,60,3.0,0,0.0
0.105,0.14946211903866036,77.5,0,60,3.0,0,0.0
0.11,0.1197651512573837,77.5,0,60,3.0,0,0.0
0.115,0.09224675744988023,77.5,0,60,3.0,0,0.0
0.12,0.06829565320281596,77.5,0,60,3.0,0,0.0
0.125,0.04860224607515734,77.5,0,60,3.0,0,0.0
0.13,0.03324612389699793,77.5,0,60,3.0,0,0.0
0.135,0.021859876340472782,77.5,0,60,3.0,0,0.0
0.14,0.01381595518554205,77.5,0,60,3.0,0,0.0
0.145,0.008394095110402422,77.5,0,60,3.0,0,0.0
0.15,0.0049052535271608,77.5,0,60,3.0,0,0.0
0.155,0.0027671663551903634,77.5,0,60,3.0,0,0.0
0.16,0.0015425553464444616,77.5,0,60,3.0,0,0.0
0.165,0.0009638206637011801,77.5,0,60,3.0,0,0.0
0.17,0.0009804935156568228,77.5,0,60,3.0,0,0.0
0.175,0.0018793744894085216,77.5,0,60,3.0,0,0.0
0.18,0.004535525206900863,77.5,0,60,3.0,0,0.0
0.185,0.010832767979632273,77.5,0,60,3.0,0,0.0
0.19,0.024208003392322392,77.5,0,60,3.0,0,0.0
0.195,0.0500971897335304,77.5,0,60,3.0,0,0.0
0.2,0.09582894921774403,77.5,0,60,3.0,0,0.0
0.205,0.16937896721820658,77.5,0,60,3.0,0,0.0
0.21,0.27661303008991756,77.5,0,60,3.0,0,0.0
0.215,0.4173782800009149,77.5,0,60,3.0,0,0.0
0.22,0.5818720934538056,77.5,0,60,3.0,0,0.0
0.225,0.7494718801585675,77.5,0,60,3.0,0,0.0
0.23,0.891813020752378,77.5,0,60,3.0,0,0.0
0.235,0.9800361632936612,77.5,0,60,3.0,0,0.0
0.24,0.993574479225126,77.5,0,60,3.0,0,0.0
0.245,0.9263438449375362,77.5,0,60,3.0,0,0.0
0.25,0.7873015962290536,77.5,0,60,3.0,0,0.0
0.255,0.5959516244629897,77.5,0,60,3.0,0,0.0
0.26,0.376910120078773,77.5,0,60,3.0,0,0.0
0.265,0.15739335672107918,77.5,0,60,3.0,0,0.0
0.27,-0.033361226269301235,77.5,0,60,3.0,0,0.0
0.275,-0.1680180840843834,77.5,0,60,3.0,0,0.0
0.28,-0.23069703190837854,77.5,0,60,3.0,0,0.0
0.285,-0.22587267821131068,77.5,0,60,3.0,0,0.0
0.29,-0.17718181630665902,77.5,0,60,3.0,0,0.0
0.295,-0.11494332516451301,77.5,0,60,3.0,0,0.0
0.3,-0.061810214049552864,77.5,0,60,3.0,0,0.0
0.305,-0.026546104631500547,77.5,0,60,3.0,0,0.0
0.31,-0.00719600351942686,77.5,0,60,3.0,0,0.0
0.315,0.0022072757983807078,77.5,0,60,3.0,0,0.0
0.32,0.006917199873730717,77.5,0,60,3.0,0,0.0
0.325,0.01004859748264829,77.5,0,60,3.0,0,0.0
0.33,0.013037082251128167,77.5,0,60,3.0,0,0.0
0.335,0.01645163937690478,77.5,0,60,3.0,0,0.0
0.34,0.020526639934696615,77.5,0,60,3.0,0,0.0
0.345,0.02539629541761738,77.5,0,60,3.0,0,0.0
0.35,0.031171612185577933,77.5,0,60,3.0,0,0.0
0.355,0.03795853426638131,77.5,0,60,3.0,0,0.0
0.36,0.0458588961882057,77.5,0,60,3.0,0,0.0
0.365,0.054966995891435555,77.5,0,60,3.0,0,0.0
0.37,0.06536491004445595,77.5,0,60,3.0,0,0.0
0.375,0.07711726085088699,77.5,0,60,3.0,0,0.0
0.38,0.09026570629555215,77.5,0,60,3.0,0,0.0
0.385,0.10482339848670268,77.5,0,60,3.0,0,0.0
0.39,0.12076968927580028,77.5,0,60,3.0,0,0.0
0.395,0.13804539501007884,77.5,0,60,3.0,0,0.0
0.4,0.15654895051787066,77.5,0,60,3.0,0,0.0
0.405,0.17613378141900526,77.5,0,60,3.0,0,0.0
0.41,0.19660720058055794,77.5,0,60,3.0,0,0.0
0.415,0.21773108748496234,77.5,0,60,3.0,0,0.0
0.42,0.23922453870058807,77.5,0,60,3.0,0,0.0
0.425,0.2607685857914563,77.5,0,60,3.0,0,0.0
0.43,0.2820129681603682,77.5,0,60,3.0,0,0.0
0.435,0.30258482867153996,77.5,0,60,3.0,0,0.0
0.44,0.3220990771751686,77.5,0,60,3.0,0,0.0
0.445,0.3401700499968971,77.5,0,60,3.0,0,0.0
0.45,0.3564239911198326,77.5,0,60,3.0,0,0.0
0.455,0.3705118017738417,77.5,0,60,3.0,0,0.0
0.46,0.3821214567925213,77.5,0,60,3.0,0,0.0
0.465,0.39098947374066967,77.5,0,60,3.0,0,0.0
0.47,0.3969108472035567,77.5,0,60,3.0,0,0.0
0.475,0.3997469255491936,77.5,0,60,3.0,0,0.0
0.48,0.3994308076379137,77.5,0,60,3.0,0,0.0
0.485,0.3959699661768434,77.5,0,60,3.0,0,0.0
0.49,0.38944595408114946,77.5,0,60,3.0,0,0.0
0.495,0.38001120995358023,77.5,0,60,3.0,0,0.0
0.5,0.3678831374098315,77.5,0,60,3.0,0,0.0
0.505,0.35333577933796634,77.5,0,60,3.0,0,0.0
0.51,0.33668953221163944,77.5,0,60,3.0,0,0.0
0.515,0.3182994390982644,77.5,0,60,3.0,0,0.0
0.52,0.29854265738230645,77.5,0,60,3.0,0,0.0
0.525,0.2778057157821067,77.5,0,60,3.0,0,0.0
0.53,0.2564721553719815,77.5,0,60,3.0,0,0.0
0.535,0.23491109433464996,77.5,0,60,3.0,0,0.0
0.54,0.21346717185309805,77.5,0,60,3.0,0,0.0
0.545,0.19245222055656455,77.5,0,60,3.0,0,0.0
0.55,0.17213889801761392,77.5,0,60,3.0,0,0.0
0.555,0.15275638501270183,77.5,0,60,3.0,0,0.0
0.56,0.13448814019607322,77.5,0,60,3.0,0,0.0
0.565,0.11747159495449566,77.5,0,60,3.0,0,0.0
0.57,0.10179958433370105,77.5,0,60,3.0,0,0.0
0.575,0.08752324394101413,77.5,0,60,3.0,0,0.0
0.58,0.07465606047174059,77.5,0,60,3.0,0,0.0
0.585,0.0631787448609295,77.5,0,60,3.0,0,0.0
0.59,0.05304460019959574,77.5,0,60,3.0,0,0.0
0.595,0.044185078305849994,77.5,0,60,3.0,0,0.0
0.6,0.03651525513023255,77.5,0,60,3.0,0,0.0
0.605,0.0299390014708757,77.5,0,60,3.0,0,0.0
0.61,0.024353677220580638,77.5,0,60,3.0,0,0.0
0.615,0.01965423034339045,77.5,0,60,3.0,0,0.0
0.62,0.015736632374757337,77.5,0,60,3.0,0,0.0
0.625,0.012500627640593535,77.5,0,60,3.0,0,0.0
0.63,0.009851811652115898,77.5,0,60,3.0,0,0.0
0.635,0.007703084175428559,77.5,0,60,3.0,0,0.0
0.64,0.005975544002062424,77.5,0,60,3.0,0,0.0
0.645,0.004598905818663047,77.5,0,60,3.0,0,0.0
0.65,0.0035115256454839104,77.5,0,60,3.0,0,0.0
0.655,0.002660121266303676,77.5,0,60,3.0,0,0.0
0.66,0.0019992692560877024,77.5,0,60,3.0,0,0.0
0.665,0.0014907520044639367,77.5,0,60,3.0,0,0.0
0.67,0.0011028178277539807,77.5,0,60,3.0,0,0.0
0.675,0.0008094059938923333,77.5,0,60,3.0,0,0.0
0.68,0.0005893771793717645,77.5,0,60,3.0,0,0.0
0.685,0.0004257792353490551,77.5,0,60,3.0,0,0.0
0.69,0.0003051686392901525,77.5,0,60,3.0,0,0.0
0.695,0.00021699992642659966,77.5,0,60,3.0,0,0.0
0.7,0.00015308884054097838,77.5,0,60,3.0,0,0.0
0.705,0.00010714989329311098,77.5,0,60,3.0,0,0.0
0.71,7.440535854020571e-05,77.5,0,60,3.0,0,0.0
0.715,5.1260276743925106e-05,77.5,0,60,3.0,0,0.0
0.72,3.503659887882241e-05,77.5,0,60,3.0,0,0.0
0.725,2.375894748103639e-05,77.5,0,60,3.0,0,0.0
0.73,1.5984413869232557e-05,77.5,0,60,3.0,0,0.0
0.735,1.0669166579899869e-05,77.5,0,60,3.0,0,0.0
0.74,7.06526633560511e-06,77.5,0,60,3.0,0,0.0
0.745,4.641847214699205e-06,77.5,0,60,3.0,0,0.0
0.75,3.025641074479182e-06,77.5,0,60,3.0,0,0.0
0.755,1.9566278676921314e-06,77.5,0,60,3.0,0,0.0
0.76,1.2553456560008793e-06,77.5,0,60,3.0,0,0.0
0.765,7.990660428214668e-07,77.5,0,60,3.0,0,0.0
0.77,5.046221251618276e-07,77.5,0,60,3.0,0,0.0
0.775,3.1616527078858815e-07,77.5,0,60,3.0,0,0.0
0.78,1.9652884407760343e-07,77.5,0,60,3.0,0,0.0
0.785,1.2120002189836396e-07,77.5,0,60,3.0,0,0.0
0.79,7.415549848886236e-08,77.5,0,60,3.0,0,0.0
0.795,4.501406988770349e-08,77.5,0,60,3.0,0,0.0
0.8,0.0,77.5,0,60,3.0,0,0.0
0.805,0.0,77.5,0,60,3.0,0,0.0
0.81,0.0,77.5,0,60,3.0,0,0.0
0.815,0.0,77.5,0,60,3.0,0,0.0
0.82,0.0,77.5,0,60,3.0,0,0.0
0.825,0.0,77.5,0,60,3.0,0,0.0
0.83,0.0,77.5,0,60,3.0,0,0.0
0.835,0.0,77.5,0,60,3.0,0,0.0
0.84,0.0,77.5,0,60,3.0,0,0.0
0.845,0.0,77.5,0,60,3.0,0,0.0
0.85,0.0,77.5,0,60,3.0,0,0.0
0.855,0.0,77.5,0,60,3.0,0,0.0
0.86,0.0,77.5,0,60,3.0,0,0.0
0.865,0.0,77.5,0,60,3.0,0,0.0
0.87,0.0,77.5,0,60,3.0,0,0.0
0.875,0.0,77.5,0,60,3.0,0,0.0
0.88,0.0,77.5,0,60,3.0,0,0.0
0.885,0.0,77.5,0,60,3.0,0,0.0
0.89,0.0,77.5,0,60,3.0,0,0.0
0.895,0.0,77.5,0,60,3.0,0,0.0
0.9,0.0,77.5,0,60,3.0,0,0.0
0.905,0.0,77.5,0,60,3.0,0,0.0
0.91,0.0,77.5,0,60,3.0,0,0.0
0.915,0.0,77.5,0,60,3.0,0,0.0
0.92,0.0,77.5,0,60,3.0,0,0.0
0.925,0.0,77.5,0,60,3.0,0,0.0
0.93,0.0,77.5,0,60,3.0,0,0.0
0.935,0.0,77.5,0,60,3.0,0,0.0
0.94,0.0,77.5,0,60,3.0,0,0.0
0.945,0.0,77.5,0,60,3.0,0,0.0
0.95,0.0,77.5,0,60,3.0,0,0.0
0.955,0.0,77.5,0,60,3.0,0,0.0
0.96,0.0,77.5,0,60,3.0,0,0.0
0.965,0.0,77.5,0,60,3.0,0,0.0
0.97,0.0,77.5,0,60,3.0,0,0.0
0.975,0.0,77.5,0,60,3.0,0,0.0
0.98,0.0,77.5,0,60,3.0,0,0.0
0.985,0.0,77.5,0,60,3.0,0,0.0
0.99,0.0,77.5,0,60,3.0,0,0.0
0.995,0.0,77.5,0,60,3.0,0,0.0
1.0,0.0,77.5,0,60,3.0,0,0.0
1.005,0.0,77.5,0,60,3.0,0,0.0
1.01,0.0,77.5,0,60,3.0,0,0.0
1.015,0.0,77.5,0,60,3.0,0,0.0
1.02,0.0,77.5,0,60,3.0,0,0.0
1.025,0.0,77.5,0,60,3.0,0,0.0
1.03,0.0,77.5,0,60,3.0,0,0.0
1.035,0.0,77.5,0,60,3.0,0,0.0
1.04,0.0,77.5,0,60,3.0,0,0.0
1.045,0.0,77.5,0,60,3.0,0,0.0
1.05,0.0,77.5,0,60,3.0,0,0.0
1.055,0.0,77.5,0,60,3.0,0,0.0
1.06,0.0,77.5,0,60,3.0,0,0.0
1.065,0.0,77.5,0,60,3.0,0,0.0
1.07,0.0,77.5,0,60,3.0,0,0.0
1.075,0.0,77.5,0,60,3.0,0,0.0
1.08,0.0,77.5,0,60,3.0,0,0.0
1.085,0.0,77.5,0,60,3.0,0,0.0
1.09,0.0,77.5,0,60,3.0,0,0.0
1.095,0.001684486749771458,77.5,0,60,3.0,0,0.0
1.1,0.003097557930867117,77.5,0,60,3.0,0,0.0
1.105,0.005475106668887023,77.5,0,60,3.0,0,0.0
1.11,0.00930222931468658,77.5,0,60,3.0,0,0.0
1.115,0.01519157517868857,77.5,0,60,3.0,0,0.0
1.12,0.023847336626128316,77.5,0,60,3.0,0,0.0
1.125,0.0359830743700859,77.5,0,60,3.0,0,0.0
1.13,0.05218887796857759,77.5,0,60,3.0,0,0.0
1.135,0.0727577001223134,77.5,0,60,3.0,0,0.0
1.14,0.0974992498694751,77.5,0,60,3.0,0,0.0
1.145,0.12558706050443358,77.5,0,60,3.0,0,0.0
1.15,0.15549263588878245,77.5,0,60,3.0,0,0.0
1.155,0.1850529723539114,77.5,0,60,3.0,0,0.0
1.16,0.21169159439317053,77.5,0,60,3.0,0,0.0
1.165,0.23277292922115492,77.5,0,60,3.0,0,0.0
1.17,0.24602692519491282,77.5,0,60,3.0,0,0.0
1.175,0.24995056064839283,77.5,0,60,3.0,0,0.0
1.18,0.24408826520424054,77.5,0,60,3.0,0,0.0
1.185,0.22911894216865275,77.5,0,60,3.0,0,0.0
1.19,0.20672661788705934,77.5,0,60,3.0,0,0.0
1.195,0.17928878030241233,77.5,0,60,3.0,0,0.0
1.2,0.14946211903866036,77.5,0,60,3.0,0,0.0
1.205,0.1197651512573837,77.5,0,60,3.0,1,0.0
1.21,0.09224675744988023,77.5,0,60,3.0,1,0.0
1.215,0.06829565320281596,77.5,0,60,3.0,1,0.0
1.22,0.04860224607515734,77.5,0,60,3.0,1,0.0
1.225,0.03324612389699793,77.5,0,60,3.0,1,0.0
1.23,0.021859876340472782,77.5,0,60,3.0,1,0.0
1.235,0.01381595518554205,77.5,0,60,3.0,1,0.0
1.24,0.008394095110402422,77.5,0,60,3.0,1,0.0
1.245,0.0049052535271608,77.5,0,60,3.0,1,0.0
1.25,0.0027671663551903634,77.5,0,60,3.0,1,0.0
1.255,0.0015425553464444616,77.5,0,60,3.0,1,0.0
1.26,0.0009638206637011801,77.5,0,60,3.0,1,0.0
1.265,0.0009804935156568228,77.5,0,60,3.0,1,0.0
1.27,0.0018793744894085216,77.5,0,60,3.0,1,0.0
1.275,0.004535525206900863,77.5,0,60,3.0,1,0.0
1.28,0.010832767979632273,77.5,0,60,3.0,1,0.0
1.285,0.024208003392322392,77.5,0,60,3.0,1,0.0
1.29,0.0500971897335304,77.5,0,60,3.0,1,0.0
1.295,0.09582894921774403,77.5,0,60,3.0,1,0.0
1.3,0.16937896721820658,77.5,0,60,3.0,1,0.0
1.305,0.27661303008991756,77.5,0,60,3.0,1,0.0
1.31,0.4173782800009149,77.5,0,60,3.0,1,0.0
1.315,0.5818720934538056,77.5,0,60,3.0,1,0.0
1.32,0.7494718801585675,77.5,0,60,3.0,1,0.0
1.325,0.891813020752378,77.5,0,60,3.0,1,0.0
1.33,0.9800361632936612,77.5,0,60,3.0,1,0.0
1.335,0.993574479225126,77.50000249729354,1,60,3.0,1,5.875984791547286e-08
1.34,0.9263438449375362,77.50000393227262,0,60,3.0,1,9.25240616358197e-08
1.345,0.7873015962290536,77.50000634326607,0,60,3.0,1,1.4925331918354512e-07
1.35,0.5959516244629897,77.50001061853068,0,60,3.0,1,2.498477807180547e-07
1.355,0.376910120078773,77.50001866333935,0,60,3.0,1,4.391373963966651e-07
1.36,0.15739335672107918,77.5000346400049,0,60,3.0,1,8.150589387830277e-07
1.365,-0.033361226269301235,77.50006764856651,0,60,3.0,1,1.5917309767968726e-06
1.37,-0.1680180840843834,77.50013735562356,0,60,3.0,1,3.2318970250558136e-06
1.375,-0.23069703190837854,77.50028544051958,0,60,3.0,1,6.7162475194409665e-06
1.38,-0.22587267821131068,77.500598088742,0,60,3.0,1,1.4072676282239627e-05
1.385,-0.17718181630665902,77.5012486355544,0,60,3.0,1,2.9379660103626627e-05
1.39,-0.11494332516451301,77.50257543369767,0,60,3.0,1,6.0598439945218105e-05
1.395,-0.061810214049552864,77.50521857085394,0,60,3.0,1,0.00012278990244567466
1.4,-0.026546104631500547,77.51035022511448,0,60,3.0,1,0.0002435347085759745
1.405,-0.00719600351942686,77.52004622347734,0,60,3.0,1,0.00047167584652557334
1.41,0.0022072757983807078,77.53785797415782,0,60,3.0,1,0.0008907758625368575
1.415,0.006917199873730717,77.56964902320131,0,60,3.0,1,0.0016388005459131204
1.42,0.01004859748264829,77.62475069237783,0,60,3.0,1,0.0029353104088901253
1.425,0.013037082251128167,77.71745577339965,0,60,3.0,1,0.005116606432932927
1.43,0.01645163937690478,77.86879695371151,0,60,3.0,1,0.008677575381447282
1.435,0.020526639934696615,78.10844035963862,0,60,3.0,1,0.014316243756202846
1.44,0.02539629541761738,78.47636733926622,0,60,3.0,1,0.02297334915920514
1.445,0.031171612185577933,79.02383946781148,0,60,3.0,1,0.03585504630144669
1.45,0.03795853426638131,79.81298480498413,0,60,3.0,1,0.054423171881979426
1.455,0.0458588961882057,80.91427084037524,0,60,3.0,1,0.08033578447941736
1.46,0.054966995891435555,82.40121542205652,0,60,3.0,1,0.11532271581309467
1.465,0.06536491004445595,84.34199522017235,0,60,3.0,1,0.1609881228275847
1.47,0.07711726085088699,86.78816642223576,0,60,3.0,1,0.21854509228790026
1.475,0.09026570629555215,89.7614698877538,0,60,3.0,1,0.2885051738295013
1.48,0.10482339848670268,93.24052207061501,0,60,3.0,1,0.3703652251909415
1.485,0.12076968927580028,97.14988444916018,0,60,3.0,1,0.4623502223331808
1.49,0.13804539501007884,101.35431154880669,0,60,3.0,1,0.5612779187954515
1.495,0.15654895051787066,105.66068807456148,0,60,3.0,1,0.6626044252837995
1.5,0.17613378141900526,109.82918294110652,0,60,3.0,1,0.7606866574378005
1.505,0.19660720058055794,113.59355865930326,0,60,3.0,1,0.8492602037483119
1.51,0.21773108748496234,116.6886667904499,0,60,3.0,1,0.9220862774223506
1.515,0.23922453870058807,118.88137576601841,0,60,3.0,1,0.9736794297886684
1.52,0.2607685857914563,120.0,0,60,3.0,1,1.0
1.525,0.2820129681603682,119.95710897620492,0,60,3.0,1,0.9989907994401158
1.53,0.30258482867153996,118.7615370490011,0,60,3.0,1,0.9708596952706142
1.535,0.3220990771751686,116.51733188460247,0,60,3.0,1,0.9180548678729993
1.54,0.3401700499968971,113.40983908257753,0,60,3.0,1,0.844937390178295
1.545,0.3564239911198326,109.68153227755616,0,60,3.0,1,0.757212524177792
1.55,0.3705118017738417,105.60198566964596,0,60,3.0,1,0.6612231922269637
1.555,0.3821214567925213,101.4371540045614,0,60,3.0,1,0.5632271530485037
1.56,0.39098947374066967,97.422764291288,0,60,3.0,1,0.4687709245008942
1.565,0.3969108472035567,93.74532237651536,0,60,3.0,1,0.38224287944742025
1.57,0.3997469255491936,90.53240175874944,0,60,3.0,1,0.3066447472646928
1.575,0.3994308076379137,87.85199809938081,0,60,3.0,1,0.24357642586778372
1.58,0.3959699661768434,85.71922450867264,0,60,3.0,1,0.1933935178511209
1.585,0.38944595408114946,84.10774793473297,0,60,3.0,1,0.15547642199371695
1.59,0.38001120995358023,82.96318113142691,0,60,3.0,1,0.12854543838651547
1.595,0.3678831374098315,82.21602810766474,0,60,3.0,1,0.11096536723917037
1.6,0.35333577933796634,81.79251012512853,0,60,3.0,1,0.10100023823831834
1.605,0.33668953221163944,81.62242952229444,0,60,3.0,1,0.09699834170104563
1.61,0.3182994390982644,81.64396106938082,0,60,3.0,1,0.09750496633837229
1.615,0.29854265738230645,81.80577806979818,0,60,3.0,1,0.10131242517172187
1.62,0.2778057157821067,82.0671908817687,0,60,3.0,1,0.10746331486514578
1.625,0.2564721553719815,82.3970316464962,0,60,3.0,1,0.11522427403520477
1.63,0.23491109433464996,82.77192809116943,0,60,3.0,1,0.12404536685104538
1.635,0.21346717185309805,83.1744448392447,0,60,3.0,1,0.1335163491586988
1.64,0.19245222055656455,83.59139300208605,0,60,3.0,1,0.1433268941667306
1.645,0.17213889801761392,84.0124564670148,0,60,3.0,1,0.15323426981211294
1.65,0.15275638501270183,84.42917328586134,0,60,3.0,1,0.1630393714320315
1.655,0.13448814019607322,84.83424390403286,0,60,3.0,1,0.1725704448007732
1.66,0.11747159495449566,85.22110653223218,0,60,3.0,1,0.1816730948760514
1.665,0.10179958433370105,85.58371248503667,0,60,3.0,1,0.19020499964792167
1.67,0.08752324394101413,85.91644030794227,0,60,3.0,1,0.19803388959864157
1.675,0.07465606047174059,86.21409913961364,0,60,3.0,1,0.20503762681443852
1.68,0.0631787448609295,86.47198412748827,0,60,3.0,1,0.21110550888207694
1.685,0.05304460019959574,86.68595740280897,0,60,3.0,1,0.2161401741837404
1.69,0.044185078305849994,86.85253634861876,0,60,3.0,1,0.22005967879102956
1.695,0.03651525513023255,86.96897679592873,0,60,3.0,1,0.22279945402185236
1.7,0.0299390014708757,87.03334286760078,0,60,3.0,1,0.2243139498259007
1.705,0.024353677220580638,87.04455801855013,0,60,3.0,1,0.2245778357305914
1.71,0.01965423034339045,87.00243386008354,0,60,3.0,1,0.22358667906078922
1.715,0.015736632374757337,86.90767493113825,0,60,3.0,1,0.22135705720325283
1.72,0.012500627640593535,86.76185888714967,0,60,3.0,1,0.2179260914623452
1.725,0.009851811652115898,86.56739271881541,0,60,3.0,1,0.2133504169133038
1.73,0.007703084175428559,86.32744662507005,0,60,3.0,1,0.20770462647223653
1.735,0.005975544002062424,86.04586804742218,0,60,3.0,1,0.2010792481746394
1.74,0.004598905818663047,85.72707910938607,0,60,3.0,1,0.19357833198555455
1.745,0.0035115256454839104,85.3759612733947,0,60,3.0,1,0.18531673584458103
1.75,0.002660121266303676,84.99773140981047,0,60,3.0,1,0.1764172096425993
1.755,0.0019992692560877024,84.59781365754361,0,60,3.0,1,0.16700738017749672
1.76,0.0014907520044639367,84.1817114421235,0,60,3.0,1,0.1572167398146706
1.765,0.0011028178277539807,83.75488381385719,0,60,3.0,1,0.14717373679663978
1.77,0.0008094059938923333,83.3226298946003,0,60,3.0,1,0.1370030563435364
1.775,0.0005893771793717645,82.88998470356078,0,60,3.0,1,0.12682316949554787
1.78,0.0004257792353490551,82.46162900365687,0,60,3.0,1,0.11674421185074982
1.785,0.0003051686392901525,82.04181510746733,0,60,3.0,1,0.10686623782276068
1.79,0.00021699992642659966,81.63430984453429,0,60,3.0,1,0.09727787869492438
1.795,0.00015308884054097838,81.242355157684,0,60,3.0,1,0.08805541547491771
1.8,0.00010714989329311098,80.86864610012042,0,60,3.0,1,0.07926226117930388
1.805,7.440535854020571e-05,80.51532537751636,0,60,3.0,1,0.07094883241214969
1.81,5.1260276743925106e-05,80.18399304420547,0,60,3.0,1,0.06315277751071682
1.815,3.503659887882241e-05,79.87572953684843,0,60,3.0,1,0.055899518514080586
1.82,2.375894748103639e-05,79.59112992222373,0,60,3.0,1,0.04920305699349951
1.825,1.5984413869232557e-05,79.33034705046295,0,60,3.0,1,0.04306698942265758
1.83,1.0669166579899869e-05,79.09314123688262,0,60,3.0,1,0.037485676161943905
1.835,7.06526633560511e-06,78.87893413465613,0,60,3.0,1,0.032445509050732575
1.84,4.641847214699205e-06,78.68686459254717,0,60,3.0,1,0.02792622570699216
1.845,3.025641074479182e-06,78.51584449930009,0,60,3.0,1,0.023902223512943223
1.85,1.9566278676921314e-06,78.36461287981392,0,60,3.0,1,0.020343832466209855
1.855,1.2553456560008793e-06,78.23178680825401,0,60,3.0,1,0.017218513135388573
1.86,7.990660428214668e-07,78.115908020864,0,60,3.0,1,0.014491953432094066
1.865,5.046221251618276e-07,78.01548442923266,0,60,3.0,1,0.012129045393709582
1.87,3.1616527078858815e-07,77.9290260383968,0,60,3.0,1,0.0100947303152188
1.875,1.9652884407760343e-07,77.85507505159521,0,60,3.0,1,0.008354707096357822
1.88,1.2120002189836396e-07,77.79223018604874,0,60,3.0,1,0.006876004377617432
1.885,7.415549848886236e-08,77.73916542629568,0,60,3.0,1,0.005627421795192584
1.89,4.501406988770349e-08,77.69464360077374,0,60,3.0,1,0.004579849429970462
1.895,0.0,77.65752528354044,0,60,3.0,1,0.0037064772597749894
1.9,0.0,77.62677359845337,0,60,3.0,1,0.002982908198902792
1.905,0.0,77.60145554165466,0,60,3.0,1,0.00238718921540373
1.91,0.0,77.58074044483718,0,60,3.0,1,0.0018997751726394254
1.915,0.0,77.56389618220217,0,60,3.0,1,0.00150343958122756
1.92,0.0,77.55028368416444,0,60,3.0,1,0.001183145509751552
1.925,0.0,77.53935026650197,0,60,3.0,1,0.0009258886235757553
1.93,0.0,77.53062222013041,0,60,3.0,1,0.0007205228265979044
1.935,0.0,77.52369703872787,0,60,3.0,1,0.0005575773818323422
1.94,0.0,77.51823559299608,0,60,3.0,1,0.0004290727763783011
1.945,0.0,77.51395449456273,0,60,3.0,1,0.00032834104853470626
1.95,0.0,77.5106188317357,0,60,3.0,1,0.00024985486436936724
1.955,0.0,77.5080354050833,0,60,3.0,1,0.00018906835490129731
1.96,0.0,77.50604654403189,0,60,3.0,1,0.0001422716242797485
1.965,0.0,77.50452454666993,0,60,3.0,1,0.00010645992164534298
1.97,0.0,77.5033667535964,0,60,3.0,1,7.921773167989908e-05
1.975,0.0,77.50249124248262,0,60,3.0,1,5.861747017928899e-05
1.98,0.0,77.50183311232645,0,60,3.0,1,4.313205474003927e-05
1.985,0.0,77.50134131432361,0,60,3.0,1,3.156033702613486e-05
1.99,0.0,77.50097597895923,0,60,3.0,1,2.296421080546572e-05
1.995,0.0,77.50070618543435,0,60,3.0,1,1.6616127867136504e-05
2.0,0.0,77.50050811903469,0,60,3.0,1,1.1955741992738588e-05
2.005,0.0,77.50036356375567,0,60,3.0,1,8.554441309878016e-06
2.01,0.0,77.5002586807467,0,60,3.0,1,6.086605804632521e-06
2.015,0.0,77.5001830273698,0,60,3.0,1,4.30652634824636e-06
2.02,0.0,77.50012877642952,0,60,3.0,1,3.030033635762747e-06
2.025,0.0,77.50009010007003,0,60,3.0,1,2.120001647654135e-06
2.03,0.0,77.50006268769272,0,60,3.0,1,1.475004534554233e-06
2.035,0.0,77.50004337184035,0,60,3.0,1,1.0205138905535826e-06
2.04,0.0,77.50002984020645,0,60,3.0,1,7.021225047430883e-07
2.045,0.001684486749771458,77.50002041569667,0,60,3.0,1,4.80369333351572e-07
2.05,0.003097557930867117,77.50001388976806,0,60,3.0,1,3.2681807189927736e-07
2.055,0.005475106668887023,77.5000093971074,0,60,3.0,1,2.2110840953192724e-07
2.06,0.00930222931468658,77.50000632210633,0,60,3.0,1,1.487554430589037e-07
2.065,0.01519157517868857,77.5000042295855,0,60,3.0,1,9.951965881448225e-08
2.07,0.023847336626128316,77.50000281385834,0,60,3.0,1,6.620843163652941e-08
2.075,0.0359830743700859,77.50000186155152,0,60,3.0,1,4.380121234081504e-08
2.08,0.05218887796857759,77.50000122466216,0,60,3.0,1,2.8815580154674963e-08
2.085,0.0727577001223134,77.50000080117233,0,60,3.0,1,1.885111373667314e-08
2.09,0.0974992498694751,77.50000052119951,0,60,3.0,1,1.2263517887464225e-08
2.095,0.12558706050443358,77.50000033717119,0,60,3.0,1,7.933439693421378e-09
2.1,0.15549263588878245,77.50000021690289,0,60,3.0,1,5.103597419185783e-09
2.105,0.1850529723539114,77.50000013875498,0,60,3.0,1,3.264823162145844e-09
2.11,0.21169159439317053,77.50000008826738,0,60,3.0,1,2.0768796355910393e-09
2.115,0.23277292922115492,77.50000005583678,0,60,3.0,1,1.313806558969458e-09
2.12,0.24602692519491282,77.5000000351244,0,60,3.0,1,8.264564980088514e-10
2.125,0.24995056064839283,77.5000000219718,0,60,3.0,1,5.169835383319022e-10
2.13,0.24408826520424054,77.50000001366756,0,60,3.0,1,3.215896359667086e-10
2.135,0.22911894216865275,77.50000000845444,0,60,3.0,1,1.9892789115307524e-10
2.14,0.20672661788705934,77.50000000520052,0,60,3.0,1,1.223651559164008e-10
2.145,0.17928878030241233,77.5000000031811,0,60,3.0,1,7.484940771759926e-11
2.15,0.14946211903866036,77.50000000193498,0,60,3.0,1,4.552890352309024e-11
2.155,0.1197651512573837,77.50000000117042,0,60,3.0,1,2.7539298945852995e-11
2.16,0.09224675744988023,77.500000000704,0,60,3.0,1,1.6564841002143702e-11
2.165,0.06829565320281596,77.5000000004211,0,60,3.0,1,9.90814228049096e-12
2.17,0.04860224607515734,77.50000000025047,0,60,3.0,1,5.893325043657301e-12
2.175,0.03324612389699793,77.50000000014815,0,60,3.0,1,3.4858390683760207e-12
2.18,0.021859876340472782,77.50000000008714,0,60,3.0,1,2.0503755556145573e-12
2.185,0.01381595518554205,77.50000000005096,0,60,3.0,1,1.1990617649109267e-12
2.19,0.008394095110402422,77.50000000002964,0,60,3.0,1,6.975021867273266e-13
2.195,0.0049052535271608,77.50000000001714,0,60,3.0,1,4.032539008596145e-13
2.2,0.0027671663551903634,77.50000000000986,0,60,3.0,1,2.3205489817294564e-13
2.205,0.0015425553464444616,77.50000000000564,0,60,3.0,1,1.3274610169259284e-13
2.21,0.0009638206637011801,77.50000000000321,0,60,3.0,1,7.556830977966242e-14
2.215,0.0009804935156568228,77.50000000000182,0,60,3.0,1,4.279975067166721e-14
2.22,0.0018793744894085216,77.50000000000102,0,60,3.0,1,2.4074859752812806e-14
2.225,0.004535525206900863,77.50000000000057,0,60,3.0,1,1.3374922084896003e-14
2.23,0.010832767979632273,77.50000000000031,0,60,3.0,1,7.356207146692803e-15
2.235,0.024208003392322392,77.50000000000017,0,60,3.0,1,4.012476625468801e-15
2.24,0.0500971897335304,77.5000000000001,0,60,3.0,1,2.3406113648568006e-15
2.245,0.09582894921774403,77.50000000000006,0,60,3.0,1,1.3374922084896003e-15
2.25,0.16937896721820658,77.50000000000003,0,60,3.0,1,6.687461042448002e-16
2.255,0.27661303008991756,77.50000000000001,0,60,3.0,1,3.343730521224001e-16
2.26,0.4173782800009149,77.50000000000001,0,60,3.0,1,3.343730521224001e-16
2.265,0.5818720934538056,77.5,0,60,3.0,1,0.0
2.27,0.7494718801585675,77.5,0,60,3.0,1,0.0
2.275,0.891813020752378,77.5,0,60,3.0,1,0.0
2.28,0.9800361632936612,77.5,0,60,3.0,1,0.0
2.285,0.993574479225126,77.5000024950473,1,60,3.0,1,5.8706995238989134e-08
2.29,0.9263438449375362,77.50000375849318,0,60,3.0,1,8.843513362134057e-08
2.295,0.7873015962290536,77.50000576910975,0,60,3.0,1,1.3574375877985458e-07
2.3,0.5959516244629897,77.50000910888895,0,60,3.0,1,2.1432679873482008e-07
2.305,0.376910120078773,77.50001493160252,0,60,3.0,1,3.5133182403596413e-07
2.31,0.15739335672107918,77.5000255695211,0,60,3.0,1,6.016357905777755e-07
2.315,-0.033361226269301235,77.50004576207117,0,60,3.0,1,1.076754615697235e-06
2.32,-0.1680180840843834,77.50008508819586,0,60,3.0,1,2.002075196702101e-06
2.325,-0.23069703190837854,77.50016266149757,0,60,3.0,1,3.827329354568492e-06
2.33,-0.22587267821131068,77.50031595083036,0,60,3.0,1,7.434137184833055e-06
2.335,-0.17718181630665902,77.50061688523299,0,60,3.0,1,1.4514946658503986e-05
2.34,-0.11494332516451301,77.50120039677721,0,60,3.0,1,2.824463005193887e-05
2.345,-0.061810214049552864,77.50231346534846,0,60,3.0,1,5.443447878740378e-05
2.35,-0.026546104631500547,77.50439671869992,0,60,3.0,1,0.00010345220470405954
2.355,-0.00719600351942686,77.50821569935404,0,60,3.0,1,0.00019331057303622188
2.36,0.0022072757983807078,77.51506467288199,0,60,3.0,1,0.00035446289134095904
2.365,0.006917199873730717,77.52707136715546,0,60,3.0,1,0.0006369733448342926
2.37,0.01004859748264829,77.54763451316305,0,60,3.0,1,0.0011208120744246276
2.375,0.013037082251128167,77.58202471776275,0,60,3.0,1,0.0019299933591235138
2.38,0.01645163937690478,77.63816929854207,0,60,3.0,1,0.0032510423186368717
2.385,0.020526639934696615,77.72761899891924,0,60,3.0,1,0.005355741151040949
2.39,0.02539629541761738,77.86665519753228,0,60,3.0,1,0.008627181118406631
2.395,0.031171612185577933,78.07743861114501,0,60,3.0,1,0.013586790850470888
2.4,0.03795853426638131,78.38902695888922,0,60,3.0,1,0.02091828138562866
2.405,0.0458588961882057,78.83800818984425,0,60,3.0,1,0.03148254564339401
2.41,0.054966995891435555,79.46842379043065,0,60,3.0,2,0.046315853892485846
2.415,0.06536491004445595,80.33061667635269,0,60,3.0,2,0.06660274532594565
2.42,0.07711726085088699,81.478657744938,0,60,3.0,2,0.09361547635148246
2.425,0.09026570629555215,82.96611002699977,0,60,3.0,2,0.12861435357646522
2.43,0.10482339848670268,84.84009485117352,0,60,3.0,2,0.17270811414525924
2.435,0.12076968927580028,87.13392597640826,0,60,3.0,2,0.22668061120960623
2.44,0.13804539501007884,89.85894336803423,0,60,3.0,2,0.2907986674831584
2.445,0.15654895051787066,92.99654686910407,0,60,3.0,2,0.3646246322142133
2.45,0.17613378141900526,96.4917169559891,0,60,3.0,2,0.44686392837621425
2.455,0.19660720058055794,100.24942305018932,0,60,3.0,2,0.5352805423573957
2.46,0.21773108748496234,104.13518312180872,0,60,3.0,2,0.6267101911013817
2.465,0.23922453870058807,107.9806163769576,0,60,3.0,2,0.7171909735754729
2.47,0.2607685857914563,111.59415000783865,0,60,3.0,2,0.8022152943020858
2.475,0.2820129681603682,114.77619649389209,0,60,3.0,2,0.8770869763268726
2.48,0.30258482867153996,117.33726280597426,0,60,3.0,2,0.9373473601405709
2.485,0.3220990771751686,119.11676822855112,0,60,3.0,2,0.9792180759659088
2.49,0.3401700499968971,120.0,0,60,3.0,2,1.0
2.495,0.3564239911198326,119.9307331115752,0,60,3.0,2,0.9983701908605928
2.5,0.3705118017738417,118.9175974986838,0,60,3.0,2,0.9745317058513836
2.505,0.3821214567925213,117.03320410260207,0,60,3.0,2,0.930193037708284
2.51,0.39098947374066967,114.40616519711772,0,60,3.0,2,0.8683803575792404
2.515,0.3969108472035567,111.20724128607212,0,60,3.0,2,0.7931115596722852
2.52,0.3997469255491936,107.63170063411125,0,60,3.0,2,0.708981191390853
2.525,0.3994308076379137,103.88043014450193,0,60,3.0,2,0.6207160034000454
2.53,0.3959699661768434,100.14232342849641,0,60,3.0,2,0.5327605512587391
2.535,0.38944595408114946,96.580032392726,0,60,3.0,2,0.4489419386523764
2.54,0.38001120995358023,93.32042761436257,0,60,3.0,2,0.3722453556320605
2.545,0.3678831374098315,90.45024438360306,0,60,3.0,2,0.3047116325553662
2.55,0.35333577933796634,88.0165735885304,0,60,3.0,2,0.2474487903183625
2.555,0.33668953221163944,86.03123100878861,0,60,3.0,2,0.20073484726561433
2.56,0.3182994390982644,84.47768427158562,0,60,3.0,2,0.1641808063902498
2.565,0.29854265738230645,83.31914425655404,0,60,3.0,2,0.13692104133068328
2.57,0.2778057157821067,82.50659004090923,0,60,3.0,2,0.11780211860962896
2.575,0.2564721553719815,81.98581116195565,0,60,3.0,2,0.10554849792836829
2.58,0.23491109433464996,81.70292592125253,0,60,3.0,2,0.09889237461770656
2.585,0.21346717185309805,81.60818956190883,0,60,3.0,2,0.09666328380961953
2.59,0.19245222055656455,81.65818681746455,0,60,3.0,2,0.09783968982269538
2.595,0.17213889801761392,81.81668455993696,0,60,3.0,2,0.10156904846910493
2.6,0.15275638501270183,82.05450301165449,0,60,3.0,2,0.10716477674481151
2.605,0.13448814019607322,82.34876686016689,0,60,3.0,2,0.11408863200392683
2.61,0.11747159495449566,82.68184745982325,0,60,3.0,2,0.12192582258407636
2.615,0.10179958433370105,83.04023106346655,0,60,3.0,2,0.1303583779639188
2.62,0.08752324394101413,83.41346746591435,0,60,3.0,2,0.1391404109626906
2.625,0.07465606047174059,83.79328285470342,0,60,3.0,2,0.14807724364008049
2.63,0.0631787448609295,84.1728870216122,0,60,3.0,2,0.15700910639087523
2.635,0.05304460019959574,84.5464696298717,0,60,3.0,2,0.16579928540874575
2.64,0.044185078305849994,84.90886059231357,0,60,3.0,2,0.17432613158384877
2.645,0.03651525513023255,85.25532179626946,0,60,3.0,2,0.1824781599122225
2.65,0.0299390014708757,85.58143722891543,0,60,3.0,2,0.1901514642097749
2.655,0.024353677220580638,85.88307248935271,0,60,3.0,2,0.19724876445535797
2.66,0.01965423034339045,86.15638018885323,0,60,3.0,2,0.20367953385537022
2.665,0.015736632374757337,86.39783327928087,0,60,3.0,2,0.20936078304190292
2.67,0.012500627640593535,86.60427312857465,0,60,3.0,2,0.21421819126057992
2.675,0.009851811652115898,86.77296292498974,0,60,3.0,2,0.2181873629409351
2.68,0.007703084175428559,86.90163978459339,0,60,3.0,2,0.22121505375513847
2.685,0.005975544002062424,86.9885609412461,0,60,3.0,2,0.22326025744108485
2.69,0.004598905818663047,87.0325408276639,0,60,3.0,2,0.22429507829797396
2.695,0.0035115256454839104,87.03297689853875,0,60,3.0,2,0.22430533878914702
2.7,0.002660121266303676,86.98986284516437,0,60,3.0,2,0.22329089047445572
2.705,0.0019992692560877024,86.90378850197658,0,60,3.0,2,0.2212656118112136
2.71,0.0014907520044639367,86.77592630638017,0,60,3.0,2,0.21825708956188639
2.715,0.0011028178277539807,86.60800467318072,0,60,3.0,2,0.2143059923101345
2.72,0.0008094059938923333,86.40226909402966,0,60,3.0,2,0.20946515515363912
2.725,0.0005893771793717645,86.1614321695787,0,60,3.0,2,0.2037984039900871
2.73,0.0004257792353490551,85.88861412108902,0,60,3.0,2,0.19737915579032989
2.735,0.0003051686392901525,85.58727560093486,0,60,3.0,2,0.19028883766905552
2.74,0.00021699992642659966,85.26114482043914,0,60,3.0,2,0.18261517224562687
2.745,0.00015308884054097838,84.91414113369896,0,60,3.0,2,0.17445037961644616
2.75,0.00010714989329311098,84.55029725548142,0,60,3.0,2,0.16588934718779824
2.755,7.440535854020571e-05,84.17368225126495,0,60,3.0,2,0.15702781767682233
2.76,5.1260276743925106e-05,83.78832732279227,0,60,3.0,2,0.1479606428892299
2.765,3.503659887882241e-05,83.3981562308963,0,60,3.0,2,0.13878014660932483
2.77,2.375894748103639e-05,83.00692195925262,0,60,3.0,2,0.12957463433535582
2.775,1.5984413869232557e-05,82.6181509404913,0,60,3.0,2,0.12042708095273658
2.78,1.0669166579899869e-05,82.23509585343183,0,60,3.0,2,0.11141402008074892
2.785,7.06526633560511e-06,81.86069767131502,0,60,3.0,2,0.10260465108976526
2.79,4.641847214699205e-06,81.49755730985156,0,60,3.0,2,0.09406017199650725
2.795,3.025641074479182e-06,81.14791690391355,0,60,3.0,2,0.08583333891561304
2.8,1.9566278676921314e-06,80.81365044457142,0,60,3.0,2,0.0779682457546217
2.805,1.2553456560008793e-06,80.49626324385221,0,60,3.0,2,0.07050031162005205
2.81,7.990660428214668e-07,80.19689947078584,0,60,3.0,2,0.06345645813613734
2.815,5.046221251618276e-07,79.91635682432248,0,60,3.0,2,0.056855454689940646
2.82,3.1616527078858815e-07,79.65510727941233,0,60,3.0,2,0.050708406574407866
2.825,1.9652884407760343e-07,79.41332276242515,0,60,3.0,2,0.045019359115885955
2.83,1.2120002189836396e-07,79.19090457947316,0,60,3.0,2,0.03978599010525072
2.835,7.415549848886236e-08,78.98751543252128,0,60,3.0,2,0.035000363118147707
2.84,4.501406988770349e-08,78.80261290834281,0,60,3.0,2,0.030649715490419033
2.845,0.0,78.63548340820051,0,60,3.0,2,0.026717256663541508
2.85,0.0,78.4852755946948,0,60,3.0,2,0.023182955169289365
2.855,0.0,78.35103255931459,0,60,3.0,2,0.020024295513284454
2.86,0.0,78.23172205271597,0,60,3.0,2,0.017216989475669794
2.865,0.0,78.12626426290419,0,60,3.0,2,0.01473562971539262
2.87,0.0,78.03355676823388,0,60,3.0,2,0.012554276899620685
2.875,0.0,77.95249642725605,0,60,3.0,2,0.010646974758965906
2.88,0.0,77.88199809170625,0,60,3.0,2,0.008988190393088256
2.885,0.0,77.82101013916764,0,60,3.0,2,0.007553179745120949
2.89,0.0,77.76852691602545,0,60,3.0,2,0.006318280377069427
2.895,0.0,77.72359825811775,0,60,3.0,2,0.005261135485123452
2.9,0.0,77.68533631573966,0,60,3.0,2,0.004360854487992035
2.905,0.0,77.65291995190405,0,60,3.0,2,0.003598116515389486
2.91,0.0,77.62559700915529,0,60,3.0,2,0.0029552237448302442
2.915,0.0,77.60268475239863,0,60,3.0,2,0.002416111821144247
2.92,0.0,77.58356879509424,0,60,3.0,2,0.00196632459045264
2.925,0.0,77.56770080589084,0,60,3.0,2,0.0015929601386079305
2.93,0.0,77.55459527451477,0,60,3.0,2,0.0012845946944651133
2.935,0.0,77.54382559159987,0,60,3.0,2,0.0010311903905851657
2.94,0.0,77.53501966911314,0,60,3.0,2,0.0008239922144268268
2.945,0.0,77.52785529786952,0,60,3.0,2,0.00065541877340051
2.95,0.0,77.52205540785289,0,60,3.0,2,0.000518950773009157
2.955,0.0,77.51738336692351,0,60,3.0,2,0.00040902039820025495
2.96,0.0,77.51363842497241,0,60,3.0,2,0.00032090411699795473
2.965,0.0,77.51065138439854,0,60,3.0,2,0.00025062080937747103
2.97,0.0,77.50828055441168,0,60,3.0,2,0.00019483657439255854
2.975,0.0,77.5064080263656,0,60,3.0,2,0.00015077709095541702
2.98,0.0,77.50493629018625,0,60,3.0,2,0.00011614800438237313
2.985,0.0,77.50378519791671,0,60,3.0,2,8.906348039324578e-05
2.99,0.0,77.50288926928084,0,60,3.0,2,6.798280660806246e-05
2.995,0.0,77.50219532571992,0,60,3.0,2,5.165472282174853e-05
3.0,0.0,77.50166043327717,0,60,3.0,2,3.9069018286267345e-05
3.005,0.0,77.50125013066801,0,60,3.0,2,2.941483924734498e-05
3.01,0.0,77.50093691654406,0,60,3.0,2,2.204509515442677e-05
3.015,0.0,77.50069896901469,0,60,3.0,2,1.644632975746711e-05
3.02,0.0,77.50051907063157,0,60,3.0,2,1.2213426625147109e-05
3.025,0.0,77.50038371299648,0,60,3.0,2,9.028541093665112e-06
3.03,0.0,77.50028235668749,0,60,3.0,2,6.643686764525281e-06
3.035,0.0,77.50020682411044,0,60,3.0,2,4.866449657302998e-06
3.04,0.0,77.50015080500992,0,60,3.0,2,3.5483531746649534e-06
3.045,0.0,77.50010945658438,0,60,3.0,2,2.575449044303134e-06
3.05,0.0,77.50007908234369,0,60,3.0,2,1.8607610279693344e-06
3.055,0.0,77.50005687595332,0,60,3.0,2,1.3382577251644868e-06
3.06,0.0,77.50004071827436,0,60,3.0,2,9.580770438333276e-07
3.065,0.0,77.5000290176045,0,60,3.0,2,6.827671648031409e-07
3.07,0.0,77.5000205847344,0,60,3.0,2,4.843466917784955e-07
3.075,0.0,77.50001453585212,0,60,3.0,2,3.420200498032286e-07
3.08,0.0,77.50001021756106,0,60,3.0,2,2.4041320129446617e-07
3.085,0.0,77.50000714933266,0,60,3.0,2,1.6821959200248838e-07
3.09,0.0,77.5000049796095,0,60,3.0,2,1.1716728234954216e-07
3.095,0.001684486749771458,77.50000345252305,0,60,3.0,2,8.123583637932503e-08
3.1,0.003097557930867117,77.50000238280994,0,60,3.0,2,5.606611620458031e-08
3.105,0.005475106668887023,77.50000163701907,0,60,3.0,2,3.851809571428663e-08
3.11,0.00930222931468658,77.50000111951415,0,60,3.0,2,2.6341509470405393e-08
3.115,0.01519157517868857,77.50000076210877,0,60,3.0,2,1.7931971034854273e-08
3.12,0.023847336626128316,77.50000051643521,0,60,3.0,2,1.2151416646755773e-08
3.125,0.0359830743700859,77.50000034835837,0,60,3.0,2,8.196667522497591e-09
3.13,0.05218887796857759,77.50000023390967,0,60,3.0,2,5.503757031821057e-09
3.135,0.0727577001223134,77.50000015634414,0,60,3.0,2,3.678685716830146e-09
3.14,0.0974992498694751,77.50000010402233,0,60,3.0,2,2.4475843260648508e-09
3.145,0.12558706050443358,77.50000006889427,0,60,3.0,2,1.621041559808552e-09
3.15,0.15549263588878245,77.5000000454204,0,60,3.0,2,1.0687154586134164e-09
3.155,0.1850529723539114,77.50000002980784,0,60,3.0,2,7.013608517488191e-10
3.16,0.21169159439317053,77.5000000194725,0,60,3.0,2,4.5817634653597934e-10
3.165,0.23277292922115492,77.50000001266264,0,60,3.0,2,2.9794444558587306e-10
3.17,0.24602692519491282,77.50000000819668,0,60,3.0,2,1.9286303273367915e-10
3.175,0.24995056064839283,77.50000000528158,0,60,3.0,2,1.2427241980570696e-10
3.18,0.24408826520424054,77.50000000338767,0,60,3.0,2,7.970985440325047e-11
3.185,0.22911894216865275,77.50000000216296,0,60,3.0,2,5.089325039828991e-11
3.19,0.20672661788705934,77.5000000013747,0,60,3.0,2,3.234591157011249e-11
3.195,0.17928878030241233,77.50000000086972,0,60,3.0,2,2.0463965162943007e-11
3.2,0.14946211903866036,77.50000000054773,0,60,3.0,2,1.2887740547953666e-11
3.205,0.1197651512573837,77.50000000034336,0,60,3.0,2,8.07912168538143e-12
3.21,0.09224675744988023,77.50000000021427,0,60,3.0,2,5.041676879901548e-12
3.215,0.06829565320281596,77.5000000001331,0,60,3.0,2,3.131738006178399e-12
3.22,0.04860224607515734,77.5000000000823,0,60,3.0,2,1.9363543448408188e-12
3.225,0.03324612389699793,77.50000000005066,0,60,3.0,2,1.1920399308163562e-12
3.23,0.021859876340472782,77.50000000003104,0,60,3.0,2,7.302707458353218e-13
3.235,0.01381595518554205,77.50000000001893,0,60,3.0,2,4.453849054270369e-13
3.24,0.008394095110402422,77.5000000000115,0,60,3.0,2,2.7050779916702167e-13
3.245,0.0049052535271608,77.50000000000695,0,60,3.0,2,1.6350842248785364e-13
3.25,0.0027671663551903634,77.50000000000418,0,60,3.0,2,9.830567732398563e-14
3.255,0.0015425553464444616,77.5000000000025,0,60,3.0,2,5.884965717354242e-14
3.26,0.0009638206637011801,77.50000000000149,0,60,3.0,2,3.510917047285201e-14
3.265,0.0009804935156568228,77.50000000000088,0,60,3.0,2,2.0731129231588804e-14
3.27,0.0018793744894085216,77.50000000000053,0,60,3.0,2,1.2371802928528803e-14
3.275,0.004535525206900863,77.50000000000031,0,60,3.0,2,7.356207146692803e-15
3.28,0.010832767979632273,77.50000000000018,0,60,3.0,2,4.3468496775912015e-15
3.285,0.024208003392322392,77.5000000000001,0,60,3.0,2,2.3406113648568006e-15
3.29,0.0500971897335304,77.50000000000006,0,60,3.0,2,1.3374922084896003e-15
3.295,0.09582894921774403,77.50000000000003,0,60,3.0,2,6.687461042448002e-16
3.3,0.16937896721820658,77.50000000000001,0,60,3.0,2,3.343730521224001e-16
3.305,0.27661303008991756,77.50000000000001,0,60,3.0,2,3.343730521224001e-16
3.31,0.4173782800009149,77.5,0,60,3.0,2,0.0
3.315,0.5818720934538056,77.5,0,60,3.0,2,0.0
3.32,0.7494718801585675,77.5,0,60,3.0,2,0.0
3.325,0.891813020752378,77.5,0,60,3.0,2,0.0
3.33,0.9800361632936612,77.5,0,60,3.0,2,0.0
3.335,0.993574479225126,77.50000249065474,1,60,3.0,2,5.860364086295115e-08
3.34,0.9263438449375362,77.50000381481783,0,60,3.0,2,8.976041954156244e-08
3.345,0.7873015962290536,77.50000596523532,0,60,3.0,2,1.4035847805323155e-07
3.35,0.5959516244629897,77.50000962503476,0,60,3.0,2,2.2647140620874244e-07
3.355,0.376910120078773,77.50001618917643,0,60,3.0,2,3.809217984700594e-07
3.36,0.15739335672107918,77.5000285614158,0,60,3.0,2,6.720333130140395e-07
3.365,-0.033361226269301235,77.50005280883279,0,60,3.0,2,1.2425607715559796e-06
3.37,-0.1680180840843834,77.50010151190543,0,60,3.0,2,2.388515421818524e-06
3.375,-0.23069703190837854,77.50020036214238,0,60,3.0,2,4.714403350108649e-06
3.38,-0.22587267821131068,77.50040077561245,0,60,3.0,2,9.430014410541202e-06
3.385,-0.17718181630665902,77.50080326727193,0,60,3.0,2,1.8900406398442475e-05
3.39,-0.11494332516451301,77.50159937912407,0,60,3.0,2,3.763244997819182e-05
3.395,-0.061810214049552864,77.50314438198903,0,60,3.0,2,7.398545856544308e-05
3.4,-0.026546104631500547,77.5060789517361,0,60,3.0,2,0.00014303415849647481
3.405,-0.00719600351942686,77.5115253796782,0,60,3.0,2,0.00027118540419304043
3.41,0.0022072757983807078,77.5213917627598,0,60,3.0,2,0.0005033355943483537
3.415,0.006917199873730717,77.53882411894206,0,60,3.0,2,0.0009135086809896406
3.42,0.01004859748264829,77.56884815932884,0,60,3.0,2,0.0016199566900902884
3.425,0.013037082251128167,77.6192346558676,0,60,3.0,2,0.002805521314531782
3.43,0.01645163937690478,77.70159894500465,0,60,3.0,2,0.004743504588344649
3.435,0.020526639934696615,77.83270008287926,0,60,3.0,2,0.007828237244217797
3.44,0.02539629541761738,78.03583465142736,0,60,3.0,2,0.012607874151232115
3.445,0.031171612185577933,78.34212553437393,0,60,3.0,2,0.019814718455857288
3.45,0.03795853426638131,78.79139701937089,0,60,3.0,2,0.030385812220491543
3.455,0.0458588961882057,79.43222533468237,0,60,3.0,2,0.045464125521938153
3.46,0.054966995891435555,80.32069048739088,0,60,3.0,2,0.06636918793860887
3.465,0.06536491004445595,81.5173707975343,0,60,3.0,2,0.09452637170668936
3.47,0.07711726085088699,83.08225427174436,0,60,3.0,2,0.13134715933516145
3.475,0.09026570629555215,85.06751487992965,0,60,3.0,2,0.17805917364540344
3.48,0.10482339848670268,87.50851138218808,0,60,3.0,2,0.23549438546324883
3.485,0.12076968927580028,90.41386466435996,0,60,3.0,2,0.3038556391614109
3.49,0.13804539501007884,93.75596504105044,0,60,3.0,2,0.38249329508353985
3.495,0.15654895051787066,97.4636280918179,0,60,3.0,2,0.4697324256898328
3.5,0.17613378141900526,101.41872257270964,0,60,3.0,2,0.5627934722990504
3.505,0.19660720058055794,105.45833242352343,0,60,3.0,2,0.6578431158476101
3.51,0.21773108748496234,109.38335163215552,0,60,3.0,2,0.7501965089918947
3.515,0.23922453870058807,112.9734084393601,0,60,3.0,2,0.8346684338672965
3.52,0.2607685857914563,116.00683982528938,0,60,3.0,2,0.9060432900068088
3.525,0.2820129681603682,118.28333120453613,0,60,3.0,2,0.9596077930479089
3.53,0.30258482867153996,119.646064803065,0,60,3.0,2,0.9916721130132942
3.535,0.3220990771751686,120.0,0,60,3.0,2,1.0
3.54,0.3401700499968971,119.32334270778719,0,60,3.0,2,0.9840786519479339
3.545,0.3564239911198326,117.6702984466819,0,60,3.0,2,0.9451834928631034
3.55,0.3705118017738417,115.1646448291192,0,60,3.0,2,0.8862269371557459
3.555,0.3821214567925213,111.9851997850634,0,60,3.0,2,0.8114164655309035
3.56,0.39098947374066967,108.34557221481842,0,60,3.0,2,0.7257781697604334
3.565,0.3969108472035567,104.47139174943496,0,60,3.0,2,0.634620982339646
3.57,0.3997469255491936,100.57838099842344,0,60,3.0,2,0.5430207293746692
3.575,0.3994308076379137,96.85417087272945,0,60,3.0,2,0.45539225582892834
3.58,0.3959699661768434,93.44582268957237,0,60,3.0,2,0.37519582798993806
3.585,0.38944595408114946,90.45385471397468,0,60,3.0,2,0.30479658150528655
3.59,0.38001120995358023,87.93243962502166,0,60,3.0,2,0.24546916764756843
3.595,0.3678831374098315,85.89455992933536,0,60,3.0,2,0.19751905716083196
3.6,0.35333577933796634,84.32040601189054,0,60,3.0,2,0.160480141456248
3.605,0.33668953221163944,83.16719725117376,0,60,3.0,2,0.13334581767467674
3.61,0.3182994390982644,82.37883285219493,0,60,3.0,2,0.114796067110469
3.615,0.29854265738230645,81.89421459224894,0,60,3.0,3,0.10339328452350455
3.62,0.2778057157821067,81.65359406235096,0,60,3.0,3,0.09773162499649321
3.625,0.2564721553719815,81.60276811068044,0,60,3.0,3,0.09653572025130455
3.63,0.23491109433464996,81.6953041114732,0,60,3.0,3,0.0987130379170166
3.635,0.21346717185309805,81.89319219750705,0,60,3.0,3,0.10336922817663642
3.64,0.19245222055656455,82.16640283127366,0,60,3.0,3,0.10979771367702724
3.645,0.17213889801761392,82.49180664386697,0,60,3.0,3,0.11745427397334036
3.65,0.15275638501270183,82.85182970057085,0,60,3.0,3,0.12592540471931402
3.655,0.13448814019607322,83.23310877819486,0,60,3.0,3,0.13489667713399672
3.66,0.11747159495449566,83.62530580186197,0,60,3.0,3,0.14412484239675222
3.665,0.10179958433370105,84.02015461343919,0,60,3.0,3,0.15341540266915737
3.67,0.08752324394101413,84.41075278688982,0,60,3.0,3,0.1626059479268192
3.675,0.07465606047174059,84.79107511020709,0,60,3.0,3,0.17155470847546092
3.68,0.0631787448609295,85.15566858139451,0,60,3.0,3,0.18013337838575313
3.685,0.05304460019959574,85.49948511358731,0,60,3.0,3,0.18822317914323086
3.69,0.044185078305849994,85.81781198508382,0,60,3.0,3,0.19571322317844286
3.695,0.03651525513023255,86.1062671685372,0,60,3.0,3,0.2025004039655812
3.7,0.0299390014708757,86.36083432317702,0,60,3.0,3,0.20849021936887097
3.705,0.024353677220580638,86.57791901100559,0,60,3.0,3,0.21359809437660213
3.71,0.01965423034339045,86.75441307651025,0,60,3.0,3,0.21775089591788815
3.715,0.015736632374757337,86.88775811124916,0,60,3.0,3,0.22088842614703896
3.72,0.012500627640593535,86.97600175641713,0,60,3.0,3,0.2229647472098149
3.725,0.009851811652115898,87.017842589161,0,60,3.0,3,0.2239492373920237
3.73,0.007703084175428559,87.012660771883,0,60,3.0,3,0.22382731227960015
3.735,0.005975544002062424,86.96053273007563,0,60,3.0,3,0.22260077011942653
3.74,0.004598905818663047,86.86222900437889,0,60,3.0,3,0.2202877412795033
3.745,0.0035115256454839104,86.719195178689,0,60,3.0,3,0.21692223949856484
3.75,0.002660121266303676,86.53351645798008,0,60,3.0,3,0.21255332842306082
3.755,0.0019992692560877024,86.30786706938648,0,60,3.0,3,0.20724393104438765
3.76,0.0014907520044639367,86.04544618487417,0,60,3.0,3,0.2010693219970392
3.765,0.0011028178277539807,85.74990250322291,0,60,3.0,3,0.19411535301700972
3.77,0.0008094059938923333,85.42524997119911,0,60,3.0,3,0.18647646991056724
3.775,0.0005893771793717645,85.0757773587906,0,60,3.0,3,0.17825358491272006
3.78,0.0004257792353490551,84.70595452519278,0,60,3.0,3,0.1695518711810066
3.785,0.0003051686392901525,84.32033821979824,0,60,3.0,3,0.160478546348194
3.79,0.00021699992642659966,83.92348015988665,0,60,3.0,3,0.1511407096443918
3.795,0.00015308884054097838,83.51983992315786,0,60,3.0,3,0.1416432923095967
3.8,0.00010714989329311098,83.11370490220835,0,60,3.0,3,0.13208717416960833
3.805,7.440535854020571e-05,82.70911920653026,0,60,3.0,3,0.12256751074188849
3.81,5.1260276743925106e-05,82.30982298507394,0,60,3.0,3,0.11317230553115143
3.815,3.503659887882241e-05,81.91920319962112,0,60,3.0,3,0.10398125175579112
3.82,2.375894748103639e-05,81.5402564270607,0,60,3.0,3,0.09506485710731052
3.825,1.5984413869232557e-05,81.1755638270808,0,60,3.0,3,0.0864838547548422
3.83,1.0669166579899869e-05,80.82727799879292,0,60,3.0,3,0.07828889408924523
3.835,7.06526633560511e-06,80.49712108066727,0,60,3.0,3,0.07052049601570047
3.84,4.641847214699205e-06,80.18639313486506,0,60,3.0,3,0.06320925023211899
3.845,3.025641074479182e-06,79.89598960793784,0,60,3.0,3,0.05637622606912554
3.85,1.9566278676921314e-06,79.6264264795071,0,60,3.0,3,0.050033564223696536
3.855,1.2553456560008793e-06,79.37787159987418,0,60,3.0,3,0.04418521411468666
3.86,7.990660428214668e-07,79.15018067413585,0,60,3.0,3,0.03882778056790244
3.865,5.046221251618276e-07,78.94293636900822,0,60,3.0,3,0.03395144397666406
3.87,3.1616527078858815e-07,78.75548909159917,0,60,3.0,3,0.029540919802333494
3.875,1.9652884407760343e-07,78.58699810755667,0,60,3.0,3,0.025576426060156872
3.88,1.2120002189836396e-07,78.43647181909245,0,60,3.0,3,0.022034631037469325
3.885,7.415549848886236e-08,78.30280620070539,0,60,3.0,3,0.018889557663656246
3.89,4.501406988770349e-08,78.18482058158935,0,60,3.0,3,0.01611342544916116
3.895,0.0,78.08129015900583,0,60,3.0,3,0.01367741550601957
3.9,0.0,77.99097481773615,0,60,3.0,3,0.011552348652615178
3.905,0.0,77.91264400989799,0,60,3.0,3,0.00970927082112914
3.91,0.0,77.84509761126496,0,60,3.0,3,0.008119943794469679
3.915,0.0,77.7871828107303,0,60,3.0,3,0.00675724260541883
3.92,0.0,77.73780720624384,0,60,3.0,3,0.005595463676325728
3.925,0.0,77.69594837242065,0,60,3.0,3,0.004610549939309294
3.93,0.0,77.66066023234221,0,60,3.0,3,0.0037802407609931646
3.935,0.0,77.63107661018051,0,60,3.0,3,0.00308415553365916
3.94,0.0,77.60641236432045,0,60,3.0,3,0.0025038203369517225
3.945,0.0,77.58596250536276,0,60,3.0,3,0.002022647185006075
3.95,0.0,77.56909969282334,0,60,3.0,3,0.0016258751252551332
3.955,0.0,77.55527048169948,0,60,3.0,3,0.0013004819223407166
3.96,0.0,77.54399065849753,0,60,3.0,3,0.0010350743175890516
3.965,0.0,77.53483996875943,0,60,3.0,3,0.0008197639708100724
3.97,0.0,77.52745649724005,0,60,3.0,3,0.0006460352291777086
3.975,0.0,77.52153091995265,0,60,3.0,3,0.000506609881238894
3.98,0.0,77.51680080618708,0,60,3.0,3,0.00039531308675477437
3.985,0.0,77.51304510977057,0,60,3.0,3,0.0003069437593076012
3.99,0.0,77.51007895333593,0,60,3.0,3,0.00023715184319846283
3.995,0.0,77.50774877787383,0,60,3.0,3,0.00018232418526655932
4.0,0.0,77.50592790273667,0,60,3.0,3,0.00013948006439230032
4.005,0.0,77.50451251862505,0,60,3.0,3,0.00010617690882467662
4.01,0.0,77.50341811780184,0,60,3.0,3,8.042630121983219e-05
4.015,0.0,77.50257635156204,0,60,3.0,3,6.062003675390984e-05
4.02,0.0,77.50193229444417,0,60,3.0,3,4.5465751627622974e-05
4.025,0.0,77.50144208734422,0,60,3.0,3,3.3931466922735235e-05
4.03,0.0,77.5010709270944,0,60,3.0,3,2.519828457419702e-05
4.035,0.0,77.50079136771336,0,60,3.0,3,1.862041678497703e-05
4.04,0.0,77.50058189795325,0,60,3.0,3,1.3691716547140567e-05
4.045,0.0,77.50042576054396,0,60,3.0,3,1.0017895152045373e-05
4.05,0.0,77.5003099802863,0,60,3.0,3,7.293653795373115e-06
4.055,0.0,77.50022457055825,0,60,3.0,3,5.284013135183962e-06
4.06,0.0,77.5001618906037,0,60,3.0,3,3.809190675450308e-06
4.065,0.0,77.5001161289628,0,60,3.0,3,2.7324461835659724e-06
4.07,0.0,77.50008289141098,0,60,3.0,3,1.950386140780371e-06
4.075,0.0,77.5000588746852,0,60,3.0,3,1.3852867104614074e-06
4.08,0.0,77.50004161000271,0,60,3.0,3,9.7905888731689e-07
4.085,0.0,77.50002926287357,0,60,3.0,3,6.885382015966838e-07
4.09,0.0,77.50002047794057,0,60,3.0,3,4.818338956791943e-07
4.095,0.0,77.50001425954493,0,60,3.0,3,3.3551870414532246e-07
4.1,0.0,77.50000988041381,0,60,3.0,3,2.3248032501963763e-07
4.105,0.001684486749771458,77.5000068123144,0,60,3.0,3,1.6028975049748088e-07
4.11,0.003097557930867117,77.50000467373745,0,60,3.0,3,1.0997029295033237e-07
4.115,0.005475106668887023,77.50000319068567,0,60,3.0,3,7.507495705367012e-08
4.12,0.00930222931468658,77.50000216747358,0,60,3.0,3,5.099937839879524e-08
4.125,0.01519157517868857,77.50000146512164,0,60,3.0,3,3.447345039496534e-08
4.13,0.023847336626128316,77.50000098547052,0,60,3.0,3,2.318754167497579e-08
4.135,0.0359830743700859,77.50000065957421,0,60,3.0,3,1.5519393226735273e-08
4.14,0.05218887796857759,77.50000043927226,0,60,3.0,3,1.0335817785958438e-08
4.145,0.0727577001223134,77.50000029110788,0,60,3.0,3,6.849597197929945e-09
4.15,0.0974992498694751,77.50000019196597,0,60,3.0,3,4.516846274782438e-09
4.155,0.12558706050443358,77.50000012596347,0,60,3.0,3,2.963846287350273e-09
4.16,0.15549263588878245,77.50000008224605,0,60,3.0,3,1.9352010921840486e-09
4.165,0.1850529723539114,77.5000000534362,0,60,3.0,3,1.2573222567666295e-09
4.17,0.21169159439317053,77.50000003454666,0,60,3.0,3,8.128625615748152e-10
4.175,0.23277292922115492,77.50000002222423,0,60,3.0,3,5.229230068567524e-10
4.18,0.24602692519491282,77.50000001422649,0,60,3.0,3,3.3474086247973474e-10
4.185,0.24995056064839283,77.50000000906188,0,60,3.0,3,2.1322066726604723e-10
4.19,0.24408826520424054,77.50000000574367,0,60,3.0,3,1.3514522834157106e-10
4.195,0.22911894216865275,77.50000000362252,0,60,3.0,3,8.523570346262525e-11
4.2,0.20672661788705934,77.50000000227342,0,60,3.0,3,5.349233213243732e-11
4.205,0.17928878030241233,77.50000000141972,0,60,3.0,3,3.3405205399236256e-11
4.21,0.14946211903866036,77.50000000088221,0,60,3.0,3,2.0757879075758598e-11
4.215,0.1197651512573837,77.5000000005455,0,60,3.0,3,1.283524397877045e-11
4.22,0.09224675744988023,77.50000000033563,0,60,3.0,3,7.897222745026846e-12
4.225,0.06829565320281596,77.50000000020549,0,60,3.0,3,4.8350343336899055e-12
4.23,0.04860224607515734,77.50000000012518,0,60,3.0,3,2.9454922161462225e-12
4.235,0.03324612389699793,77.50000000007589,0,60,3.0,3,1.7855520983336164e-12
4.24,0.021859876340472782,77.50000000004577,0,60,3.0,3,1.0770156008862506e-12
4.245,0.01381595518554205,77.50000000002747,0,60,3.0,3,6.463431097525994e-13
4.25,0.008394095110402422,77.50000000001641,0,60,3.0,3,3.862008752013721e-13
4.255,0.0049052535271608,77.50000000000975,0,60,3.0,3,2.2937991375596645e-13
4.26,0.0027671663551903634,77.50000000000577,0,60,3.0,3,1.3575545916169443e-13
4.265,0.0015425553464444616,77.5000000000034,0,60,3.0,3,7.991515945725361e-14
4.27,0.0009638206637011801,77.50000000000199,0,60,3.0,3,4.681222729713601e-14
4.275,0.0009804935156568228,77.50000000000115,0,60,3.0,3,2.7084217221914406e-14
4.28,0.0018793744894085216,77.50000000000067,0,60,3.0,3,1.5715533449752805e-14
4.285,0.004535525206900863,77.50000000000038,0,60,3.0,3,9.028072407304802e-15
4.29,0.010832767979632273,77.50000000000023,0,60,3.0,3,5.349968833958401e-15
4.295,0.024208003392322392,77.50000000000013,0,60,3.0,3,3.0093574691016007e-15
4.3,0.0500971897335304,77.50000000000007,0,60,3.0,3,1.6718652606120004e-15
4.305,0.09582894921774403,77.50000000000004,0,60,3.0,3,1.0031191563672002e-15
4.31,0.16937896721820658,77.50000000000003,0,60,3.0,3,6.687461042448002e-16
4.315,0.27661303008991756,77.50000000000001,0,60,3.0,3,3.343730521224001e-16
4.32,0.4173782800009149,77.5,0,60,3.0,3,0.0
4.325,0.5818720934538056,77.5,0,60,3.0,3,0.0
4.33,0.7494718801585675,77.5,0,60,3.0,3,0.0
4.335,0.891813020752378,77.5,0,60,3.0,3,0.0
4.34,0.9800361632936612,77.5,0,60,3.0,3,0.0
4.345,0.993574479225126,77.5000024899223,1,60,3.0,3,5.858640694147171e-08
4.35,0.9263438449375362,77.50000376594136,0,60,3.0,3,8.86103848910459e-08
4.355,0.7873015962290536,77.50000580655897,0,60,3.0,3,1.366249170373254e-07
4.36,0.5959516244629897,77.50000921610113,0,60,3.0,3,2.1684943844240265e-07
4.365,0.376910120078773,77.50001520125163,0,60,3.0,3,3.5767650889711684e-07
4.37,0.15739335672107918,77.50002621870189,0,60,3.0,3,6.169106327166339e-07
4.375,-0.033361226269301235,77.5000472946736,0,60,3.0,3,1.1128158495707526e-06
4.38,-0.1680180840843834,77.50008865159667,0,60,3.0,3,2.085919921642819e-06
4.385,-0.23069703190837854,77.50017080335597,0,60,3.0,3,4.018902493432024e-06
4.39,-0.22587267821131068,77.50033416889595,0,60,3.0,3,7.862797551685136e-06
4.395,-0.17718181630665902,77.50065668969144,0,60,3.0,3,1.5451522151512537e-05
4.4,-0.11494332516451301,77.50128514742521,0,60,3.0,3,3.023876294605543e-05
4.405,-0.061810214049552864,77.50248910111931,0,60,3.0,3,5.8567085160214394e-05
4.41,-0.026546104631500547,77.50475076687931,0,60,3.0,3,0.00011178275010145038
4.415,-0.00719600351942686,77.50890971075603,0,60,3.0,3,0.00020964025308303996
4.42,0.0022072757983807078,77.51638746319077,0,60,3.0,3,0.0003855873691945282
4.425,0.006917199873730717,77.52952295821818,0,60,3.0,3,0.0006946578404277742
4.43,0.01004859748264829,77.55205296713095,0,60,3.0,3,0.0012247756971987655
4.435,0.013037082251128167,77.58976923193298,0,60,3.0,3,0.0021122172219523853
4.44,0.01645163937690478,77.65137158913011,0,60,3.0,3,0.0035616844501201767
4.445,0.020526639934696615,77.74950933960535,0,60,3.0,3,0.005870807990714197
4.45,0.02539629541761738,77.90195754734947,0,60,3.0,3,0.009457824643516901
4.455,0.031171612185577933,78.13280954845649,0,60,3.0,3,0.014889636434270414
4.46,0.03795853426638131,78.47348539969117,0,60,3.0,3,0.022905538816262845
4.465,0.0458588961882057,78.96326918151414,0,60,3.0,3,0.03442986309445025
4.47,0.054966995891435555,79.64901532307513,0,60,3.0,3,0.050565066425297255
4.475,0.06536491004445595,80.58363230643764,0,60,3.0,3,0.07255605426912085
4.48,0.07711726085088699,81.82299164268099,0,60,3.0,3,0.10171745041602327
4.485,0.09026570629555215,83.42104740979093,0,60,3.0,3,0.139318762583316
4.49,0.10482339848670268,85.42319949161549,0,60,3.0,3,0.18642822333212922
4.495,0.12076968927580028,87.85828024175694,0,60,3.0,3,0.24372424098251633
4.5,0.13804539501007884,90.72994635140763,0,60,3.0,3,0.31129285532723844
4.505,0.15654895051787066,94.00864020707704,0,60,3.0,3,0.38843859310769496
4.51,0.17613378141900526,97.62555096793857,0,60,3.0,3,0.47354237571620156
4.515,0.19660720058055794,101.4700561076917,0,60,3.0,3,0.5640013201809813
4.52,0.21773108748496234,105.39188588857056,0,60,3.0,3,0.656279667966366
4.525,0.23922453870058807,109.20870606171526,0,60,3.0,3,0.7460872014521238
4.53,0.2607685857914563,112.7190103692385,0,60,3.0,3,0.828682596923259
4.535,0.2820129681603682,115.71928120045192,0,60,3.0,3,0.8992772047165157
4.54,0.30258482867153996,118.02349647615935,0,60,3.0,3,0.9534940347331612
4.545,0.3220990771751686,119.48243235510543,0,60,3.0,3,0.9878219377671866
4.55,0.3401700499968971,120.0,0,60,3.0,3,1.0
4.555,0.3564239911198326,119.54414514623332,0,60,3.0,3,0.989274003440784
4.56,0.3705118017738417,118.15060626577718,0,60,3.0,3,0.9564848533124044
4.565,0.3821214567925213,115.9189340023266,0,60,3.0,3,0.9039749177018022
4.57,0.39098947374066967,113.0014023537604,0,60,3.0,3,0.835327114206127
4.575,0.3969108472035567,109.58654217728734,0,60,3.0,3,0.7549774629949962
4.58,0.3997469255491936,105.87978274020551,0,60,3.0,3,0.6677595938871885
4.585,0.3994308076379137,102.08396338043309,0,60,3.0,3,0.5784461971866609
4.59,0.3959699661768434,98.38225280045256,0,60,3.0,3,0.49134712471653086
4.595,0.38944595408114946,94.92537560220612,0,60,3.0,3,0.41000883769896745
4.6,0.38001120995358023,91.82416132737285,0,60,3.0,3,0.3370390900558317
4.605,0.3678831374098315,89.14749954500232,0,60,3.0,3,0.27405881282358396
4.61,0.35333577933796634,86.92498677093954,0,60,3.0,3,0.2217643946103421
4.615,0.33668953221163944,85.15301231421464,0,60,3.0,3,0.18007087798152083
4.62,0.3182994390982644,83.802800714477,0,60,3.0,3,0.1483011932818118
4.625,0.29854265738230645,82.82898633651617,0,60,3.0,3,0.1253879138003804
4.63,0.2778057157821067,82.17756644157681,0,60,3.0,3,0.11006038686063094
4.635,0.2564721553719815,81.79246348760998,0,60,3.0,3,0.10099914088494068
4.64,0.23491109433464996,81.6203288855974,0,60,3.0,3,0.096948914955233
4.645,0.21346717185309805,81.61356473758555,0,60,3.0,3,0.09678975853142467
4.65,0.19245222055656455,81.73178486073043,0,60,3.0,3,0.09957140848777479
4.655,0.17213889801761392,81.9420707420853,0,60,3.0,3,0.1045193115784778
4.66,0.15275638501270183,82.21841509548847,0,60,3.0,3,0.11102153165855216
4.665,0.13448814019607322,82.54071215799348,0,60,3.0,3,0.11860499195278781
4.67,0.11747159495449566,82.89358016634176,0,60,3.0,3,0.1269077686198062
4.675,0.10179958433370105,83.26521429635454,0,60,3.0,3,0.13565210109069512
4.68,0.08752324394101413,83.64638683025535,0,60,3.0,3,0.14462086659424359
4.685,0.07465606047174059,84.02964611158836,0,60,3.0,3,0.15363873203737324
4.69,0.0631787448609295,84.40872047275327,0,60,3.0,3,0.16255812877066525
4.695,0.05304460019959574,84.77810639599608,0,60,3.0,3,0.1712495622587312
4.7,0.044185078305849994,85.13280774851903,0,60,3.0,3,0.17959547643574184
4.705,0.03651525513023255,85.46819036181611,0,60,3.0,3,0.18748683204273206
4.71,0.0299390014708757,85.77991932370172,0,60,3.0,3,0.1948216311459228
4.715,0.024353677220580638,86.06395196190566,0,60,3.0,3,0.20150475204483903
4.72,0.01965423034339045,86.31656557761202,0,60,3.0,3,0.20744860182616529
4.725,0.015736632374757337,86.53440443454016,0,60,3.0,3,0.21257422198918033
4.73,0.012500627640593535,86.71453489258448,0,60,3.0,3,0.21681258570787015
4.735,0.009851811652115898,86.85450086784542,0,60,3.0,3,0.22010590277283335
4.74,0.007703084175428559,86.95237417392687,0,60,3.0,3,0.22240880409239694
4.745,0.005975544002062424,87.0067959844984,0,60,3.0,3,0.2236893172823152
4.75,0.004598905818663047,87.01700687163441,0,60,3.0,3,0.22392957345022135
4.755,0.0035115256454839104,86.98286378900848,0,60,3.0,3,0.22312620680019946
4.76,0.002660121266303676,86.90484310169278,0,60,3.0,3,0.22129042592218298
4.765,0.0019992692560877024,86.78402938747664,0,60,3.0,3,0.21844775029356792
4.77,0.0014907520044639367,86.62209028632776,0,60,3.0,3,0.21463741850182969
4.775,0.0011028178277539807,86.42123816980182,0,60,3.0,3,0.20991148634827822
4.78,0.0008094059938923333,86.18417984182693,0,60,3.0,3,0.20433364333710427
4.785,0.0005893771793717645,85.91405586012334,0,60,3.0,3,0.1979777849440786
4.79,0.0004257792353490551,85.61437137477117,0,60,3.0,3,0.19092638528873335
4.795,0.0003051686392901525,85.28892060876314,0,60,3.0,3,0.18326872020619142
4.8,0.00021699992642659966,84.94170724870098,0,60,3.0,3,0.17509899408708185
4.805,0.00015308884054097838,84.57686306932412,0,60,3.0,3,0.16651442516056753
4.81,0.00010714989329311098,84.19856708424052,0,60,3.0,3,0.15761334315860054
4.815,7.440535854020571e-05,83.81096740174658,0,60,3.0,3,0.1484933506293313
4.82,5.1260276743925106e-05,83.41810777713161,0,60,3.0,4,0.13924959475603788
4.825,3.503659887882241e-05,83.02386060247123,0,60,3.0,4,0.1299731906463819
4.83,2.375894748103639e-05,82.63186777501524,0,60,3.0,4,0.12074983000035854
4.835,1.5984413869232557e-05,82.24549055077581,0,60,3.0,4,0.11165860119472501
4.84,1.0669166579899869e-05,81.86776913642002,0,60,3.0,4,0.10277103850400053
4.845,7.06526633560511e-06,81.50139241554777,0,60,3.0,4,0.09415040977759458
4.85,4.641847214699205e-06,81.14867785950845,0,60,3.0,4,0.08585124375314007
4.855,3.025641074479182e-06,80.81156135115772,0,60,3.0,4,0.07791909061547579
4.86,1.9566278676921314e-06,80.49159636340788,0,60,3.0,4,0.07039050266842069
4.865,1.2553456560008793e-06,80.18996169166836,0,60,3.0,4,0.0632932162745496
4.87,7.990660428214668e-07,79.90747674623394,0,60,3.0,4,0.05664651167609269
4.875,5.046221251618276e-07,79.64462327056756,0,60,3.0,4,0.05046172401335445
4.88,3.1616527078858815e-07,79.40157226481837,0,60,3.0,4,0.04474287681925576
4.885,1.9652884407760343e-07,79.17821485897923,0,60,3.0,4,0.03948740844657015
4.89,1.2120002189836396e-07,78.97419589290332,0,60,3.0,4,0.034686962185960575
4.895,7.415549848886236e-08,78.78894901536232,0,60,3.0,4,0.030328212126172236
4.9,4.501406988770349e-08,78.62173220460336,0,60,3.0,4,0.0263936989318438
4.905,0.0,78.4716627308444,0,60,3.0,4,0.022862652490456478
4.91,0.0,78.33775071891439,0,60,3.0,4,0.019711781621515122
4.915,0.0,78.21893061897777,0,60,3.0,4,0.016916014564182714
4.92,0.0,78.11409004761917,0,60,3.0,4,0.014449177591039334
4.925,0.0,78.02209561389758,0,60,3.0,4,0.012284602679942977
4.93,0.0,77.94181548966863,0,60,3.0,4,0.010395658580438293
4.935,0.0,77.87213861598158,0,60,3.0,4,0.008756202728978438
4.94,0.0,77.81199055431146,0,60,3.0,4,0.0073409542190932715
4.945,0.0,77.76034609057041,0,60,3.0,4,0.006125790366362547
4.95,0.0,77.7162387801301,0,60,3.0,4,0.0050879712971787765
4.955,0.0,77.67876768333062,0,60,3.0,4,0.00420629843130869
4.96,0.0,77.64710158383804,0,60,3.0,4,0.00346121373736557
4.965,0.0,77.62048100809753,0,60,3.0,4,0.0028348472493535956
4.97,0.0,77.59821837486274,0,60,3.0,4,0.0023110205850056286
4.975,0.0,77.57969660154583,0,60,3.0,4,0.001875214154019619
4.98,0.0,77.56436648127566,0,60,3.0,4,0.0015145054417801287
4.985,0.0,77.55174312345649,0,60,3.0,4,0.0012174852577997546
4.99,0.0,77.54140172358554,0,60,3.0,4,0.0009741582020126316
4.995,0.0,77.53297289723739,0,60,3.0,4,0.0007758328761737817
5.0,0.0,77.52613778034294,0,60,3.0,4,0.0006150065963043637
5.005,0.0,77.52062306478282,0,60,3.0,4,0.0004852485831252927
5.01,0.0,77.51619610618371,0,60,3.0,4,0.0003810848513814883
5.015,0.0,77.51266021065541,0,60,3.0,4,0.0002978873095390982
5.02,0.0,77.50985017975476,0,60,3.0,4,0.00023176893540621408
5.025,0.0,77.50762816866609,0,60,3.0,4,0.00017948632155500544
5.03,0.0,77.50587989168099,0,60,3.0,4,0.0001383503924938957
5.035,0.0,77.50451119158359,0,60,3.0,4,0.0001061456843197394
5.04,0.0,77.50344497539443,0,60,3.0,4,8.105824457482627e-05
5.045,0.0,77.50261850787646,0,60,3.0,4,6.161195003441582e-05
5.05,0.0,77.50198104596413,0,60,3.0,4,4.6612846214804236e-05
5.055,0.0,77.5014917914954,0,60,3.0,4,3.510097636228024e-05
5.06,0.0,77.50111813594486,0,60,3.0,4,2.63090810556284e-05
5.065,0.0,77.50083416890804,0,60,3.0,4,1.962750371864572e-05
5.07,0.0,77.5006194215277,0,60,3.0,4,1.4574624181223578e-05
5.075,0.0,77.50045781656114,0,60,3.0,4,1.0772154379711698e-05
5.08,0.0,77.50033679808233,0,60,3.0,4,7.924660760703345e-06
5.085,0.0,77.50024661564738,0,60,3.0,4,5.802721114926445e-06
5.09,0.0,77.50017973992418,0,60,3.0,4,4.229174686543047e-06
5.095,0.0,77.50013038912986,0,60,3.0,4,3.0679795262291437e-06
5.1,0.0,77.50009414800623,0,60,3.0,4,2.2152472053328573e-06
5.105,0.0,77.50006766339348,0,60,3.0,4,1.5920798465926697e-06
5.11,0.0,77.5000484026712,0,60,3.0,4,1.1388863811134798e-06
5.115,0.0,77.5000344633739,0,60,3.0,4,8.109029151375366e-07
5.12,0.0,77.50002442413327,0,60,3.0,4,5.74685488760117e-07
5.125,0.0,77.50001722873685,0,60,3.0,4,4.053820435621995e-07
5.13,0.0,77.50001209652484,0,60,3.0,4,2.8462411391421267e-07
5.135,0.0,77.50000845358089,0,60,3.0,4,1.9890778563582418e-07
5.14,0.0,77.50000588022185,0,60,3.0,4,1.383581611528772e-07
5.145,0.001684486749771458,77.50000407117355,0,60,3.0,4,9.579231880921083e-08
5.15,0.003097557930867117,77.5000028055527,0,60,3.0,4,6.601300463123206e-08
5.155,0.005475106668887023,77.50000192437696,0,60,3.0,4,4.527945788247641e-08
5.16,0.00930222931468658,77.5000013138167,0,60,3.0,4,3.09133340311639e-08
5.165,0.01519157517868857,77.50000089279615,0,60,3.0,4,2.1006968274698867e-08
5.17,0.023847336626128316,77.50000060386903,0,60,3.0,4,1.4208682962228468e-08
5.175,0.0359830743700859,77.50000040654264,0,60,3.0,4,9.565709165947149e-09
5.18,0.05218887796857759,77.50000027242211,0,60,3.0,4,6.4099320779325135e-09
5.185,0.0727577001223134,77.50000018169858,0,60,3.0,4,4.2752607415048475e-09
5.19,0.0974992498694751,77.50000012062397,0,60,3.0,4,2.8382109629841153e-09
5.195,0.12558706050443358,77.50000007970556,0,60,3.0,4,1.875424887283075e-09
5.2,0.15549263588878245,77.50000005242235,0,60,3.0,4,1.233467080109061e-09
5.205,0.1850529723539114,77.50000003431762,0,60,3.0,4,8.074734710937585e-10
5.21,0.21169159439317053,77.50000002236098,0,60,3.0,4,5.261406787373262e-10
5.215,0.23277292922115492,77.50000001450232,0,60,3.0,4,3.412310434214305e-10
5.22,0.24602692519491282,77.50000000936176,0,60,3.0,4,2.202766074119341e-10
5.225,0.24995056064839283,77.50000000601518,0,60,3.0,4,1.4153375987542164e-10
5.23,0.24408826520424054,77.50000000384694,0,60,3.0,4,9.05161227017422e-11
5.235,0.22911894216865275,77.5000000024488,0,60,3.0,4,5.761882996867986e-11
5.24,0.20672661788705934,77.50000000155154,0,60,3.0,4,3.650684983072364e-11
5.245,0.17928878030241233,77.50000000097847,0,60,3.0,4,2.3022922130835734e-11
5.25,0.14946211903866036,77.5000000006142,0,60,3.0,4,1.4451603312730133e-11
5.255,0.1197651512573837,77.50000000038374,0,60,3.0,4,9.02907552646117e-12
5.26,0.09224675744988023,77.50000000023864,0,60,3.0,4,5.615126664291465e-12
5.265,0.06829565320281596,77.50000000014771,0,60,3.0,4,3.4754735037602265e-12
5.27,0.04860224607515734,77.500000000091,0,60,3.0,4,2.1413250257918502e-12
5.275,0.03324612389699793,77.5000000000558,0,60,3.0,4,1.3130829756846652e-12
5.28,0.021859876340472782,77.50000000003406,0,60,3.0,4,8.01492205937393e-13
5.285,0.01381595518554205,77.50000000002069,0,60,3.0,4,4.868471638902145e-13
5.29,0.008394095110402422,77.50000000001252,0,60,3.0,4,2.945826589198345e-13
5.295,0.0049052535271608,77.50000000000753,0,60,3.0,4,1.7721771762487205e-13
5.3,0.0027671663551903634,77.5000000000045,0,60,3.0,4,1.0599625752280083e-13
5.305,0.0015425553464444616,77.50000000000269,0,60,3.0,4,6.319650685113362e-14
5.31,0.0009638206637011801,77.50000000000159,0,60,3.0,4,3.744978183770881e-14
5.315,0.0009804935156568228,77.50000000000094,0,60,3.0,4,2.2068621440078406e-14
5.32,0.0018793744894085216,77.50000000000055,0,60,3.0,4,1.3040549032773603e-14
5.325,0.004535525206900863,77.50000000000033,0,60,3.0,4,7.690580198815202e-15
5.33,0.010832767979632273,77.50000000000018,0,60,3.0,4,4.3468496775912015e-15
5.335,0.024208003392322392,77.50000000000011,0,60,3.0,4,2.6749844169792007e-15
5.34,0.0500971897335304,77.50000000000006,0,60,3.0,4,1.3374922084896003e-15
5.345,0.09582894921774403,77.50000000000004,0,60,3.0,4,1.0031191563672002e-15
5.35,0.16937896721820658,77.50000000000001,0,60,3.0,4,3.343730521224001e-16
5.355,0.27661303008991756,77.50000000000001,0,60,3.0,4,3.343730521224001e-16
5.36,0.4173782800009149,77.5,0,60,3.0,4,0.0
5.365,0.5818720934538056,77.5,0,60,3.0,4,0.0
5.37,0.7494718801585675,77.5,0,60,3.0,4,0.0
5.375,0.891813020752378,77.5,0,60,3.0,4,0.0
5.38,0.9800361632936612,77.5,0,60,3.0,4,0.0
5.385,0.993574479225126,77.50000249800566,1,60,3.0,4,5.8776603683487766e-08
5.39,0.9263438449375362,77.50000398334456,0,60,3.0,4,9.372575424790472e-08
5.395,0.7873015962290536,77.50000651826808,0,60,3.0,4,1.533710136460714e-07
5.4,0.5959516244629897,77.50001109956669,0,60,3.0,4,2.611662750950927e-07
5.405,0.376910120078773,77.50001991374356,0,60,3.0,4,4.685586719353844e-07
5.41,0.15739335672107918,77.50003784287847,0,60,3.0,4,8.904206698817314e-07
5.415,-0.033361226269301235,77.5000757794975,0,60,3.0,4,1.7830469998363483e-06
5.42,-0.1680180840843834,77.50015770025146,0,60,3.0,4,3.71059415208626e-06
5.425,-0.23069703190837854,77.50033525375275,0,60,3.0,4,7.888323594162262e-06
5.43,-0.22587267821131068,77.50071677049758,0,60,3.0,4,1.6865188178251307e-05
5.435,-0.17718181630665902,77.50152279179979,0,60,3.0,4,3.5830395289087176e-05
5.44,-0.11494332516451301,77.50318819860948,0,60,3.0,4,7.501643787009016e-05
5.445,-0.061810214049552864,77.50654235147103,0,60,3.0,4,0.00015393768167120257
5.45,-0.026546104631500547,77.51311313183669,0,60,3.0,4,0.0003085442785103463
5.455,-0.00719600351942686,77.52561660146723,0,60,3.0,4,0.0006027435639349305
5.46,0.0022072757983807078,77.54870668435228,0,60,3.0,4,0.0011460396318184126
5.465,0.006917199873730717,77.59006066169802,0,60,3.0,4,0.002119074392894551
5.47,0.01004859748264829,77.66185425210647,0,60,3.0,4,0.0038083353436815393
5.475,0.013037082251128167,77.78261996466746,0,60,3.0,4,0.0066498815215873175
5.48,0.01645163937690478,77.97937101485591,0,60,3.0,4,0.011279317996609747
5.485,0.020526639934696615,78.28970554962969,0,60,3.0,4,0.018581307050110286
5.49,0.02539629541761738,78.76339504471892,0,60,3.0,4,0.029726942228680452
5.495,0.031171612185577933,79.46274570125202,0,60,3.0,4,0.04618225179416514
5.5,0.03795853426638131,80.46087165869562,0,60,3.0,4,0.06966756843989702
5.505,0.0458588961882057,81.83702594387275,0,60,3.0,4,0.10204766926759402
5.51,0.054966995891435555,83.6683924474054,0,60,3.0,4,0.14513864582130342
5.515,0.06536491004445595,86.0183081292734,0,60,3.0,4,0.20043077951231514
5.52,0.07711726085088699,88.9217404652122,0,60,3.0,4,0.26874683447558106
5.525,0.09026570629555215,92.36986285561291,0,60,3.0,4,0.34987912601442134
5.53,0.10482339848670268,96.29650943647528,0,60,3.0,4,0.4422708102700065
5.535,0.12076968927580028,100.56983716270597,0,60,3.0,4,0.5428196979460227
5.54,0.13804539501007884,104.99237729792675,0,60,3.0,4,0.6468794658335706
5.545,0.15654895051787066,109.31164624019664,0,60,3.0,4,0.7485093232987444
5.55,0.17613378141900526,113.24165886380223,0,60,3.0,4,0.8409802085600524
5.555,0.19660720058055794,116.49336841515469,0,60,3.0,4,0.9174910215330515
5.56,0.21773108748496234,118.809791844154,0,60,3.0,4,0.9719951022153884
5.565,0.23922453870058807,120.0,0,60,3.0,4,1.0
5.57,0.2607685857914563,119.96577975088297,0,60,3.0,4,0.9991948176678347
5.575,0.2820129681603682,118.71583497294446,0,60,3.0,4,0.9697843523045756
5.58,0.30258482867153996,116.36471102531507,0,60,3.0,4,0.9144637888309429
5.585,0.3220990771751686,113.11665526529586,0,60,3.0,4,0.8380389474187262
5.59,0.3401700499968971,109.23759987650324,0,60,3.0,4,0.7467670559177233
5.595,0.3564239911198326,105.02062501049012,0,60,3.0,4,0.6475441178938852
5.6,0.3705118017738417,100.75112656878211,0,60,3.0,4,0.5470853310301673
5.605,0.3821214567925213,96.67735531973065,0,60,3.0,4,0.4512318898760153
5.61,0.39098947374066967,92.99028647874353,0,60,3.0,4,0.36447732891161244
5.615,0.3969108472035567,89.8144696838358,0,60,3.0,4,0.2897522278549599
5.62,0.3997469255491936,87.2092293957742,0,60,3.0,4,0.22845245637115769
5.625,0.3994308076379137,85.17785730322214,0,60,3.0,4,0.180655465958168
5.63,0.3959699661768434,83.68154720070062,0,60,3.0,4,0.1454481694282499
5.635,0.38944595408114946,82.65478587633747,0,60,3.0,4,0.1212890794432346
5.64,0.38001120995358023,82.01953275018874,0,60,3.0,4,0.10634194706326458
5.645,0.3678831374098315,81.69648828448356,0,60,3.0,4,0.09874090081137799
5.65,0.35333577933796634,81.61275893693787,0,60,3.0,4,0.09677079851618507
5.655,0.33668953221163944,81.70604778040453,0,60,3.0,4,0.09896583012716546
5.66,0.3182994390982644,81.92602276840576,0,60,3.0,4,0.10414171219778255
5.665,0.29854265738230645,82.23373311228592,0,60,3.0,4,0.11138195558319808
5.67,0.2778057157821067,82.59992382822458,0,60,3.0,4,0.1199982077229312
5.675,0.2564721553719815,83.0029340715118,0,60,3.0,4,0.12948080168263065
5.68,0.23491109433464996,83.42664632068943,0,60,3.0,4,0.13945050166328068
5.685,0.21346717185309805,83.85874605168085,0,60,3.0,4,0.14961755415719655
5.69,0.19245222055656455,84.28939050086015,0,60,3.0,4,0.1597503647261212
5.695,0.17213889801761392,84.710280339288,0,60,3.0,4,0.1696536550420707
5.7,0.15275638501270183,85.11407312733049,0,60,3.0,4,0.17915466181954082
5.705,0.13448814019607322,85.49405855512624,0,60,3.0,4,0.18809549541473516
5.71,0.11747159495449566,85.84401826967708,0,60,3.0,4,0.19632984163946068
5.715,0.10179958433370105,86.15820599042442,0,60,3.0,4,0.2037224938923393
5.72,0.08752324394101413,86.43139904103533,0,60,3.0,4,0.21015056567141963
5.725,0.07465606047174059,86.65898635211758,0,60,3.0,4,0.215505561226296
5.73,0.0631787448609295,86.8370689154512,0,60,3.0,4,0.219695739187087
5.735,0.05304460019959574,86.96255654877436,0,60,3.0,4,0.22264838938292608
5.74,0.044185078305849994,87.03325025752278,0,60,3.0,4,0.2243117707652419
5.745,0.03651525513023255,87.04790319342274,0,60,3.0,4,0.2246565457275939
5.75,0.0299390014708757,87.0062558421201,0,60,3.0,4,0.22367660804988465
5.755,0.024353677220580638,86.9090430721917,0,60,3.0,4,0.2213892487574516
5.76,0.01965423034339045,86.75797231969146,0,60,3.0,4,0.21783464281626969
5.765,0.015736632374757337,86.55567360582799,0,60,3.0,4,0.21307467307830566
5.77,0.012500627640593535,86.30562334239096,0,60,3.0,4,0.20719113746802256
5.775,0.009851811652115898,86.01204497164223,0,60,3.0,4,0.20028341109746414
5.78,0.007703084175428559,85.6797903925037,0,60,3.0,4,0.1924656562942048
5.785,0.005975544002062424,85.31420681489475,0,60,3.0,4,0.1838636897622293
5.79,0.004598905818663047,84.92099413544021,0,60,3.0,4,0.17461162671624025
5.795,0.0035115256454839104,84.5060581273616,0,60,3.0,4,0.16484842652615525
5.8,0.002660121266303676,84.07536468518992,0,60,3.0,4,0.1547144631809394
5.805,0.0019992692560877024,83.63480007468739,0,60,3.0,4,0.14434823705146801
5.81,0.0014907520044639367,83.19004163641426,0,60,3.0,4,0.1338833326215121
5.815,0.0011028178277539807,82.74644271472884,0,60,3.0,4,0.12344571093479631
5.82,0.0008094059938923333,82.30893477748606,0,60,3.0,4,0.11315140652908373
5.825,0.0005893771793717645,81.88194880472919,0,60,3.0,4,0.10310467775833392
5.83,0.0004257792353490551,81.46935710791587,0,60,3.0,4,0.09339663783331456
5.835,0.0003051686392901525,81.07443584337275,0,60,3.0,4,0.08410437278524127
5.84,0.00021699992642659966,80.69984764857996,0,60,3.0,4,0.0752905329077638
5.845,0.00015308884054097838,80.34764309423872,0,60,3.0,4,0.06700336692326399
5.85,0.00010714989329311098,80.01927903677215,0,60,3.0,4,0.059277153806403464
5.855,7.440535854020571e-05,79.71565149314013,0,60,3.0,4,0.052132976309179506
5.86,5.1260276743925106e-05,79.43714035092398,0,60,3.0,4,0.04557977296291724
5.865,3.503659887882241e-05,79.18366307048232,0,60,3.0,4,0.03961560165840765
5.87,2.375894748103639e-05,78.95473452320364,0,60,3.0,4,0.03422904760479154
5.875,1.5984413869232557e-05,78.74953022428151,0,60,3.0,4,0.02940071115956504
5.88,1.0669166579899869e-05,78.56695043877203,0,60,3.0,4,0.025104716206400594
5.885,7.06526633560511e-06,78.4056829415812,0,60,3.0,4,0.02131018686073423
5.89,4.641847214699205e-06,78.26426256981593,0,60,3.0,4,0.01798264870155121
5.895,3.025641074479182e-06,78.14112609439135,0,60,3.0,4,0.01508531986803184
5.9,1.9566278676921314e-06,78.03466133357307,0,60,3.0,4,0.012580266672307517
5.905,1.2553456560008793e-06,77.94324981389724,0,60,3.0,4,0.010429407385817392
5.91,7.990660428214668e-07,77.86530263707101,0,60,3.0,4,0.008595356166376725
5.915,5.046221251618276e-07,77.79928952259839,0,60,3.0,4,0.007042106414079667
5.92,3.1616527078858815e-07,77.74376125683288,0,60,3.0,4,0.005735558984303131
5.925,1.9652884407760343e-07,77.69736598579576,0,60,3.0,4,0.004643905548135428
5.93,1.2120002189836396e-07,77.65885994088477,0,60,3.0,4,0.0037378809619945195
5.935,7.415549848886236e-08,77.6271132860104,0,60,3.0,4,0.0029909008473035046
5.94,4.501406988770349e-08,77.6011118265454,0,60,3.0,4,0.002379101801068373
5.945,0.0,77.57995533119477,0,60,3.0,4,0.0018813019104651201
5.95,0.0,77.56285319487394,0,60,3.0,4,0.0014788987029161864
5.955,0.0,77.54911812164852,0,60,3.0,4,0.001155720509376913
5.96,0.0,77.53815843929038,0,60,3.0,4,0.0008978456303619918
5.965,0.0,77.52946957802463,0,60,3.0,4,0.0006934018358736814
5.97,0.0,77.52262516170235,0,60,3.0,4,0.0005323567459376644
5.975,0.0,77.51726807503519,0,60,3.0,4,0.0004063076478868264
5.98,0.0,77.51310178967128,0,60,3.0,4,0.0003082774040301635
5.985,0.0,77.50988215769988,0,60,3.0,4,0.00023252135764417235
5.99,0.0,77.50740981555606,0,60,3.0,4,0.00017434860131903835
5.995,0.0,77.50552328529045,0,60,3.0,4,0.00012995965389296437
6.0,0.0,77.50409281406513,0,60,3.0,4,9.630150741486432e-05
6.005,0.0,77.50301495625494,0,60,3.0,4,7.094014717515219e-05
6.01,0.0,77.50220787496914,0,60,3.0,4,5.19499992739892e-05
6.015,0.0,77.50160732017996,0,60,3.0,4,3.7819298351932425e-05
6.02,0.0,77.5011632278179,0,60,3.0,4,2.7370066303480115e-05
6.025,0.0,77.50083687698123,0,60,3.0,5,1.9691223087647813e-05
6.03,0.0,77.50059853965124,0,60,3.0,5,1.4083285911430508e-05
6.035,0.0,77.50042555793296,0,60,3.0,5,1.0013127834273451e-05
6.04,0.0,77.50030078689879,0,60,3.0,5,7.077338795076738e-06
6.045,0.0,77.50021134579045,0,60,3.0,5,4.972842128167673e-06
6.05,0.0,77.50014762596477,0,60,3.0,5,3.473552112275095e-06
6.055,0.0,77.50010251002901,0,60,3.0,5,2.4120006825716487e-06
6.06,0.0,77.50007076270478,0,60,3.0,5,1.6650048183584979e-06
6.065,0.0,77.5000485598072,0,60,3.0,5,1.1425836987655202e-06
6.07,0.001684486749771458,77.50003312714004,0,60,3.0,5,7.794621186509603e-07
6.075,0.003097557930867117,77.50002246598136,0,60,3.0,5,5.286113261102881e-07
6.08,0.005475106668887023,77.50001514611694,0,60,3.0,5,3.563792220387875e-07
6.085,0.00930222931468658,77.50001015106662,0,60,3.0,5,2.388486263150887e-07
6.09,0.01519157517868857,77.50000676326665,0,60,3.0,5,1.5913568598294018e-07
6.095,0.023847336626128316,77.50000447956461,0,60,3.0,5,1.0540152021242059e-07
6.1,0.0359830743700859,77.50000294950786,0,60,3.0,5,6.940018492434105e-08
6.105,0.05218887796857759,77.50000193062432,0,60,3.0,5,4.5426454629277405e-08
6.11,0.0727577001223134,77.50000125626265,0,60,3.0,5,2.9559121163829866e-08
6.115,0.0974992498694751,77.50000081263886,0,60,3.0,5,1.9120914336834926e-08
6.12,0.12558706050443358,77.50000052257566,0,60,3.0,5,1.2295897905085654e-08
6.125,0.15549263588878245,77.50000033406828,0,60,3.0,5,7.860430006236557e-09
6.13,0.1850529723539114,77.50000021230282,0,60,3.0,5,4.99536052784071e-09
6.135,0.21169159439317053,77.50000013412532,0,60,3.0,5,3.1558897717332e-09
6.14,0.23277292922115492,77.50000008423648,0,60,3.0,5,1.9820347193565204e-09
6.145,0.24602692519491282,77.50000005259253,0,60,3.0,5,1.2374711974082269e-09
6.15,0.24995056064839283,77.50000003264243,0,60,3.0,5,7.680572413365178e-10
6.155,0.24408826520424054,77.50000002014073,0,60,3.0,5,4.73899570565931e-10
6.16,0.22911894216865275,77.50000001235385,0,60,3.0,5,2.9067885353630545e-10
6.165,0.20672661788705934,77.50000000753293,0,60,3.0,5,1.772454705881982e-10
6.17,0.17928878030241233,77.50000000456626,0,60,3.0,5,1.0744141785407385e-10
6.175,0.14946211903866036,77.50000000275163,0,60,3.0,5,6.474431970940821e-11
6.18,0.1197651512573837,77.50000000164837,0,60,3.0,5,3.878526780788568e-11
6.185,0.09224675744988023,77.50000000098164,0,60,3.0,5,2.309748732145903e-11
6.19,0.06829565320281596,77.50000000058115,0,60,3.0,5,1.3674185966545552e-11
6.195,0.04860224607515734,77.50000000034203,0,60,3.0,5,8.047690618481925e-12
6.2,0.03324612389699793,77.5000000002001,0,60,3.0,5,4.7083069469355156e-12
6.205,0.021859876340472782,77.50000000011639,0,60,3.0,5,2.738515296882457e-12
6.21,0.01381595518554205,77.50000000006729,0,60,3.0,5,1.5832564017995643e-12
6.215,0.008394095110402422,77.50000000003868,0,60,3.0,5,9.10163447877173e-13
6.22,0.0049052535271608,77.5000000000221,0,60,3.0,5,5.199500960503321e-13
6.225,0.0027671663551903634,77.50000000001255,0,60,3.0,5,2.952514050240793e-13
6.23,0.0015425553464444616,77.50000000000709,0,60,3.0,5,1.6685215300907763e-13
6.235,0.0009638206637011801,77.50000000000398,0,60,3.0,5,9.362445459427202e-14
6.24,0.0009804935156568228,77.50000000000222,0,60,3.0,5,5.216219613109441e-14
6.245,0.0018793744894085216,77.50000000000124,0,60,3.0,5,2.9090455534648805e-14
6.25,0.004535525206900863,77.50000000000068,0,60,3.0,5,1.6049906501875204e-14
6.255,0.010832767979632273,77.50000000000037,0,60,3.0,5,8.693699355182403e-15
6.26,0.024208003392322392,77.5000000000002,0,60,3.0,5,4.681222729713601e-15
6.265,0.0500971897335304,77.50000000000011,0,60,3.0,5,2.6749844169792007e-15
6.27,0.09582894921774403,77.50000000000006,0,60,3.0,5,1.3374922084896003e-15
6.275,0.16937896721820658,77.50000000000003,0,60,3.0,5,6.687461042448002e-16
6.28,0.27661303008991756,77.50000000000001,0,60,3.0,5,3.343730521224001e-16
6.285,0.4173782800009149,77.50000000000001,0,60,3.0,5,3.343730521224001e-16
6.29,0.5818720934538056,77.5,0,60,3.0,5,0.0
6.295,0.7494718801585675,77.5,0,60,3.0,5,0.0
6.3,0.891813020752378,77.5,0,60,3.0,5,0.0
6.305,0.9800361632936612,77.5,0,60,3.0,5,0.0
6.31,0.993574479225126,77.50000249379623,1,60,3.0,5,5.8677558372972485e-08
6.315,0.9263438449375362,77.5000037873591,0,60,3.0,5,8.911433189282167e-08
6.32,0.7873015962290536,77.50000586643203,0,60,3.0,5,1.3803369490554305e-07
6.325,0.5959516244629897,77.50000936112565,0,60,3.0,5,2.202617799733108e-07
6.33,0.376910120078773,77.50001553885947,0,60,3.0,5,3.656202228713108e-07
6.335,0.15739335672107918,77.5000269987902,0,60,3.0,5,6.352656518682873e-07
6.34,-0.033361226269301235,77.50004909538588,0,60,3.0,5,1.1551855500195362e-06
6.345,-0.1680180840843834,77.5000927881157,0,60,3.0,5,2.1832497810357704e-06
6.35,-0.23069703190837854,77.50018019691618,0,60,3.0,5,4.239927439437665e-06
6.355,-0.22587267821131068,77.50035512985896,0,60,3.0,5,8.355996681409712e-06
6.36,-0.17718181630665902,77.50070244716376,0,60,3.0,5,1.652816855907451e-05
6.365,-0.11494332516451301,77.50138258743117,0,60,3.0,5,3.253146896862049e-05
6.37,-0.061810214049552864,77.50269116678194,0,60,3.0,5,6.332157133984391e-05
6.375,-0.026546104631500547,77.50515844333034,0,60,3.0,5,0.00012137513718458007
6.38,-0.00719600351942686,77.50970954477438,0,60,3.0,5,0.00022845987704426187
6.385,0.0022072757983807078,77.5179131238936,0,60,3.0,5,0.00042148526808486006
6.39,0.006917199873730717,77.5323521823347,0,60,3.0,5,0.0007612278196401188
6.395,0.01004859748264829,77.55715374596484,0,60,3.0,5,0.0013447940227021102
6.4,0.013037082251128167,77.59871019466716,0,60,3.0,5,0.0023225928156979507
6.405,0.01645163937690478,77.66660957566988,0,60,3.0,5,0.00392022530987955
6.41,0.020526639934696615,77.77476004056273,0,60,3.0,5,0.006464942130887654
6.415,0.02539629541761738,77.94264063456316,0,60,3.0,5,0.01041507375442734
6.42,0.031171612185577933,78.1965363540429,0,60,3.0,5,0.016389090683362476
6.425,0.03795853426638131,78.57052498893353,0,60,3.0,5,0.025188823269024184
6.43,0.0458588961882057,79.10689048440082,0,60,3.0,5,0.03780918786825463
6.435,0.054966995891435555,79.85556550877875,0,60,3.0,5,0.05542507079479418
6.44,0.06536491004445595,80.87218550073672,0,60,3.0,5,0.07934554119380517
6.445,0.07711726085088699,82.21440106636989,0,60,3.0,5,0.1109270839145856
6.45,0.09026570629555215,83.93627195484723,0,60,3.0,5,0.1514416930552289
6.455,0.10482339848670268,86.08086244957394,0,60,3.0,5,0.20190264587232806
6.46,0.12076968927580028,88.67155390032357,0,60,3.0,5,0.2628600917723194
6.465,0.13804539501007884,91.70302829420208,0,60,3.0,5,0.33418890104004906
6.47,0.15654895051787066,95.13326660856461,0,60,3.0,5,0.41490039078975555
6.475,0.17613378141900526,98.87813714204108,0,60,3.0,5,0.5030149915774372
6.48,0.19660720058055794,102.81011793964564,0,60,3.0,5,0.5955321868151915
6.485,0.21773108748496234,106.76233734752944,0,60,3.0,5,0.6885255846477515
6.49,0.23922453870058807,110.53842825599659,0,60,3.0,5,0.7773747824940375
6.495,0.2607685857914563,113.92775900036906,0,60,3.0,5,0.8571237411851544
6.5,0.2820129681603682,116.72459033287774,0,60,3.0,5,0.9229315372441821
6.505,0.30258482867153996,118.74882595036786,0,60,3.0,5,0.9705606105968908
6.51,0.3220990771751686,119.8654865137496,0,60,3.0,5,0.9968349767941083
6.515,0.3401700499968971,120.0,0,60,3.0,5,1.0
6.52,0.3564239911198326,119.1469163744074,0,60,3.0,5,0.9799274441037035
6.525,0.3705118017738417,117.37064685570721,0,60,3.0,5,0.9381328671931107
6.53,0.3821214567925213,114.79810695801649,0,60,3.0,5,0.8776025166592115
6.535,0.39098947374066967,111.60444632346429,0,60,3.0,5,0.8024575605521009
6.54,0.3969108472035567,107.99410915756765,0,60,3.0,5,0.7175084507662977
6.545,0.3997469255491936,104.18007944020901,0,60,3.0,5,0.6277665750637414
6.55,0.3994308076379137,100.36422724801442,0,60,3.0,5,0.5379818176003391
6.555,0.3959699661768434,96.7212161790668,0,60,3.0,5,0.45226391009568945
6.56,0.38944595408114946,93.38759728931282,0,60,3.0,5,0.3738258185720664
6.565,0.38001120995358023,90.45670883537264,0,60,3.0,5,0.3048637373028856
6.57,0.3678831374098315,87.9790401462504,0,60,3.0,5,0.24656565050000936
6.575,0.35333577933796634,85.96697701419116,0,60,3.0,5,0.19922298856920373
6.58,0.33668953221163944,84.4024246438112,0,60,3.0,5,0.1624099916190871
6.585,0.3182994390982644,83.24571739115189,0,60,3.0,5,0.13519335038004435
6.59,0.29854265738230645,82.44441592118244,0,60,3.0,5,0.11633919814546917
6.595,0.2778057157821067,81.94096223704659,0,60,3.0,5,0.10449322910697861
6.6,0.2564721553719815,81.67860013199362,0,60,3.0,5,0.09832000310573222
6.605,0.23491109433464996,81.6053774632043,0,60,3.0,5,0.09659711678127779
6.61,0.21346717185309805,81.67636369433883,0,60,3.0,5,0.09826738104326664
6.615,0.19245222055656455,81.85441421730658,0,60,3.0,5,0.10245680511309609
6.62,0.17213889801761392,82.10989597948169,0,60,3.0,5,0.10846814069368688
6.625,0.15275638501270183,82.4197812649522,0,60,3.0,5,0.11575955917534603
6.63,0.13448814019607322,82.76645106571821,0,60,3.0,5,0.123916495663958
6.635,0.11747159495449566,83.13645818712642,0,60,3.0,5,0.13262254557944522
6.64,0.10179958433370105,83.51940780368162,0,60,3.0,5,0.1416331247925086
6.645,0.08752324394101413,83.90703501007195,0,60,3.0,5,0.15075376494286943
6.65,0.07465606047174059,84.29250168132002,0,60,3.0,5,0.15982356897223574
6.655,0.0631787448609295,84.66989887994485,0,60,3.0,5,0.16870350305752596
6.66,0.05304460019959574,85.03392255252196,0,60,3.0,5,0.1772687659416931
6.665,0.044185078305849994,85.37968430795249,0,60,3.0,5,0.1854043366577056
6.67,0.03651525513023255,85.70262077560254,0,60,3.0,5,0.1930028417788833
6.675,0.0299390014708757,85.99847050884269,0,60,3.0,5,0.19996401197276908
6.68,0.024353677220580638,86.26329398177421,0,60,3.0,5,0.2061951525123344
6.685,0.01965423034339045,86.49351840681324,0,60,3.0,5,0.21161219780737028
6.69,0.015736632374757337,86.68599420541278,0,60,3.0,5,0.2161410401273596
6.695,0.012500627640593535,86.83805385632725,0,60,3.0,5,0.2197189142665235
6.7,0.009851811652115898,86.94756666863884,0,60,3.0,5,0.22229568632091393
6.705,0.007703084175428559,87.01298502755421,0,60,3.0,5,0.2238349418248049
6.71,0.005975544002062424,87.03337908862481,0,60,3.0,5,0.2243148020852897
6.715,0.004598905818663047,87.0084579536151,0,60,3.0,5,0.2237284224380025
6.72,0.0035115256454839104,86.938576193165,0,60,3.0,5,0.22208414572152954
6.725,0.002660121266303676,86.82472527864306,0,60,3.0,5,0.2194053006739543
6.73,0.0019992692560877024,86.66851009780702,0,60,3.0,5,0.21572964936016506
6.735,0.0014907520044639367,86.47211127728372,0,60,3.0,5,0.2111085006419698
6.74,0.0011028178277539807,86.23823452311164,0,60,3.0,5,0.2056055181908622
6.745,0.0008094059938923333,85.97004861293706,0,60,3.0,5,0.19929526148087207
6.75,0.0005893771793717645,85.67111402048207,0,60,3.0,5,0.19226150636428388
6.755,0.0004257792353490551,85.34530441514248,0,60,3.0,5,0.18459539800335245
6.76,0.0003051686392901525,84.99672344980459,0,60,3.0,5,0.1763934929365786
6.765,0.00021699992642659966,84.62961932448681,0,60,3.0,5,0.16775574881145436
6.77,0.00015308884054097838,84.248299592624,0,60,3.0,5,0.15878351982644692
6.775,0.00010714989329311098,83.85704856531288,0,60,3.0,5,0.14957761330147953
6.78,7.440535854020571e-05,83.4600494751478,0,60,3.0,5,0.14023645823877173
6.785,5.1260276743925106e-05,83.06131329728954,0,60,3.0,5,0.13085443052445986
6.79,3.503659887882241e-05,82.66461580565927,0,60,3.0,5,0.1215203718978651
6.795,2.375894748103639e-05,82.2734440829479,0,60,3.0,5,0.1123163313634801
6.8,1.5984413869232557e-05,81.89095332165515,0,60,3.0,5,0.10331654874482699
6.805,1.0669166579899869e-05,81.51993436674516,0,60,3.0,5,0.0945866909822391
6.81,7.06526633560511e-06,81.16279207494762,0,60,3.0,5,0.08618334293994394
6.815,4.641847214699205e-06,80.82153421580314,0,60,3.0,5,0.07815374625419154
6.82,3.025641074479182e-06,80.49777032755243,0,60,3.0,5,0.07053577241299837
6.825,1.9566278676921314e-06,80.19271967649756,0,60,3.0,5,0.06335811003523671
6.83,1.2553456560008793e-06,79.9072272581673,0,60,3.0,5,0.05664064136864226
6.835,7.990660428214668e-07,79.64178662610968,0,60,3.0,5,0.05039497943787477
6.84,5.046221251618276e-07,79.39656824009577,0,60,3.0,5,0.04462513506107705
6.845,3.1616527078858815e-07,79.17145198793789,0,60,3.0,5,0.03932828206912672
6.85,1.9652884407760343e-07,78.96606254967222,0,60,3.0,5,0.034495589404052146
6.855,1.2120002189836396e-07,78.77980633332653,0,60,3.0,5,0.03011309019591843
6.86,7.415549848886236e-08,78.61190881032023,0,60,3.0,5,0.026162560242828946
6.865,4.501406988770349e-08,78.46145120731774,0,60,3.0,5,0.022622381348652625
6.87,0.0,78.32740566133431,0,60,3.0,5,0.019468368501983777
6.875,0.0,78.20866810746416,0,60,3.0,5,0.016674543705039135
6.88,0.0,78.10408833568827,0,60,3.0,5,0.014213843192665282
6.885,0.0,78.01249681760311,0,60,3.0,5,0.012058748649484882
6.89,0.0,77.93272805946427,0,60,3.0,5,0.010181836693276877
6.895,0.0,77.86364037977026,0,60,3.0,5,0.008556244229888467
6.9,0.0,77.80413213413297,0,60,3.0,5,0.007156050214893426
6.905,0.0,77.75315451508283,0,60,3.0,5,0.005956576825478271
6.91,0.0,77.70972113863759,0,60,3.0,5,0.004934615026766832
6.915,0.0,77.67291469288736,0,60,3.0,5,0.004068581009114362
6.92,0.0,77.6418909673889,0,60,3.0,5,0.0033386109973859595
6.925,0.0,77.61588060740796,0,60,3.0,5,0.0027266025272461
6.93,0.0,77.59418894611207,0,60,3.0,5,0.002216210496754577
6.935,0.0,77.57619426314615,0,60,3.0,5,0.0017928061916741038
6.94,0.0,77.56134480222934,0,60,3.0,5,0.001443407111278649
6.945,0.0,77.54915485611353,0,60,3.0,5,0.001156584849730159
6.95,0.0,77.53920019694617,0,60,3.0,5,0.0009223575752039725
6.955,0.0,77.53111309607614,0,60,3.0,5,0.0007320728488503605
6.96,0.0,77.52457714164618,0,60,3.0,5,0.0005782856857923862
6.965,0.0,77.51932202662293,0,60,3.0,5,0.00045463592053953804
6.97,0.0,77.51511844558637,0,60,3.0,5,0.00035572813144393184
6.975,0.0,77.51177320666078,0,60,3.0,5,0.0002770166273124045
6.98,0.0,77.50912463613587,0,60,3.0,5,0.00021469732084389816
6.985,0.0,77.50703832803256,0,60,3.0,5,0.00016560771841327818
6.99,0.0,77.50540326930944,0,60,3.0,5,0.00012713574845740956
6.995,0.0,77.50412835357564,0,60,3.0,5,9.713773119147738e-05
7.0,0.0,77.50313928191733,0,60,3.0,5,7.3865456878299e-05
7.005,0.0,77.50237583848272,0,60,3.0,5,5.590208194636194e-05
7.01,0.0,77.50178952045918,0,60,3.0,5,4.2106363745500964e-05
7.015,0.0,77.50134149662578,0,60,3.0,5,3.156462648903738e-05
7.02,0.0,77.5010008653694,0,60,3.0,5,2.3549773397783557e-05
7.025,0.0,77.50074318152002,0,60,3.0,5,1.748662400051912e-05
7.03,0.0,77.50054922121242,0,60,3.0,5,1.2922852057031645e-05
7.035,0.0,77.50040395488503,0,60,3.0,5,9.504820824237387e-06
7.04,0.0,77.50029570017914,0,60,3.0,5,6.957651273818128e-06
7.045,0.0,77.50021542865605,0,60,3.0,5,5.068909554077383e-06
7.05,0.0,77.50015620269332,0,60,3.0,5,3.675357489849857e-06
7.055,0.0,77.50011272149108,0,60,3.0,5,2.652270378308351e-06
7.06,0.0,77.50008095768732,0,60,3.0,5,1.904886760391545e-06
7.065,0.0,77.50005786855301,0,60,3.0,5,1.361613012102894e-06
7.07,0.0,77.50004116805168,0,60,3.0,5,9.686600395418602e-07
7.075,0.0,77.50002914816145,0,60,3.0,5,6.8583909283274e-07
7.08,0.0,77.50002053975126,0,60,3.0,5,4.832882649786958e-07
7.085,0.0,77.50001440496989,0,60,3.0,5,3.3894046797446634e-07
7.09,0.0,77.50001005455123,0,60,3.0,5,2.3657767589129968e-07
7.095,0.0,77.50000698467477,0,60,3.0,5,1.6434528868772116e-07
7.1,0.001684486749771458,77.50000482906273,0,60,3.0,5,1.1362500545681755e-07
7.105,0.003097557930867117,77.50000332286477,0,60,3.0,5,7.8185053432796e-08
7.11,0.005475106668887023,77.50000227559855,0,60,3.0,5,5.354349522188867e-08
7.115,0.00930222931468658,77.50000155099998,0,60,3.0,5,3.6494117239271875e-08
7.12,0.01519157517868857,77.50000105210987,0,60,3.0,5,2.475552625636577e-08
7.125,0.023847336626128316,77.50000071030286,0,60,3.0,5,1.6713008389000177e-08
7.13,0.0359830743700859,77.50000047726456,0,60,3.0,5,1.1229754443989162e-08
7.135,0.05218887796857759,77.50000031915964,0,60,3.0,5,7.509638568508843e-09
7.14,0.0727577001223134,77.50000021241732,0,60,3.0,5,4.99805457152166e-09
7.145,0.0974992498694751,77.50000014070355,0,60,3.0,5,3.3106717263067632e-09
7.15,0.12558706050443358,77.50000009275841,0,60,3.0,5,2.1825508825071773e-09
7.155,0.15549263588878245,77.50000006086039,0,60,3.0,5,1.432009104759987e-09
7.16,0.1850529723539114,77.50000003974196,0,60,3.0,5,9.351050025810872e-10
7.165,0.21169159439317053,77.50000002582837,0,60,3.0,5,6.077263659629834e-10
7.17,0.23277292922115492,77.50000001670621,0,60,3.0,5,3.9308728820983294e-10
7.175,0.24602692519491282,77.50000001075455,0,60,3.0,5,2.5304817587739844e-10
7.18,0.24995056064839283,77.50000000689032,0,60,3.0,5,1.6212512117122327e-10
7.185,0.24408826520424054,77.5000000043936,0,60,3.0,5,1.0337878527078668e-10
7.19,0.22911894216865275,77.50000000278825,0,60,3.0,5,6.560599906472764e-11
7.195,0.20672661788705934,77.50000000176108,0,60,3.0,5,4.143718048426843e-11
7.2,0.17928878030241233,77.50000000110703,0,60,3.0,5,2.6047660760334968e-11
7.205,0.14946211903866036,77.50000000069258,0,60,3.0,5,1.629600506823729e-11
7.21,0.1197651512573837,77.50000000043124,0,60,3.0,5,1.0146884639706353e-11
7.215,0.09224675744988023,77.50000000026724,0,60,3.0,5,6.287885245161734e-12
7.22,0.06829565320281596,77.50000000016482,0,60,3.0,5,3.878058658515596e-12
7.225,0.04860224607515734,77.50000000010117,0,60,3.0,5,2.380401758059366e-12
7.23,0.03324612389699793,77.5000000000618,0,60,3.0,6,1.454188403680318e-12
7.235,0.021859876340472782,77.50000000003757,0,60,3.0,6,8.840823498116258e-13
7.24,0.01381595518554205,77.50000000002274,0,60,3.0,6,5.349968833958402e-13
7.245,0.008394095110402422,77.5000000000137,0,60,3.0,6,3.223356222459937e-13
7.25,0.0049052535271608,77.50000000000821,0,60,3.0,6,1.9326762412674725e-13
7.255,0.0027671663551903634,77.5000000000049,0,60,3.0,6,1.1535870298222802e-13
7.26,0.0015425553464444616,77.50000000000291,0,60,3.0,6,6.854647568509201e-14
7.265,0.0009638206637011801,77.50000000000172,0,60,3.0,6,4.045913930681041e-14
7.27,0.0009804935156568228,77.50000000000101,0,60,3.0,6,2.3740486700690407e-14
7.275,0.0018793744894085216,77.5000000000006,0,60,3.0,6,1.4043668189140804e-14
7.28,0.004535525206900863,77.50000000000034,0,60,3.0,6,8.024953250937602e-15
7.285,0.010832767979632273,77.5000000000002,0,60,3.0,6,4.681222729713601e-15
7.29,0.024208003392322392,77.50000000000011,0,60,3.0,6,2.6749844169792007e-15
7.295,0.0500971897335304,77.50000000000007,0,60,3.0,6,1.6718652606120004e-15
7.3,0.09582894921774403,77.50000000000004,0,60,3.0,6,1.0031191563672002e-15
7.305,0.16937896721820658,77.50000000000001,0,60,3.0,6,3.343730521224001e-16
7.31,0.27661303008991756,77.50000000000001,0,60,3.0,6,3.343730521224001e-16
7.315,0.4173782800009149,77.5,0,60,3.0,6,0.0
7.32,0.5818720934538056,77.5,0,60,3.0,6,0.0
7.325,0.7494718801585675,77.5,0,60,3.0,6,0.0
7.33,0.891813020752378,77.5,0,60,3.0,6,0.0
7.335,0.9800361632936612,77.5,0,60,3.0,6,0.0
7.34,0.993574479225126,77.50000249206059,1,60,3.0,6,5.8636719720251515e-08
7.345,0.9263438449375362,77.50000388649308,0,60,3.0,6,9.144689590143303e-08
7.35,0.7873015962290536,77.50000620174501,0,60,3.0,6,1.4592341197866892e-07
7.355,0.5959516244629897,77.50001024868433,0,60,3.0,6,2.411455137221577e-07
7.36,0.376910120078773,77.50001773713392,0,60,3.0,6,4.1734432744199103e-07
7.365,0.15739335672107918,77.50003234050088,0,60,3.0,6,7.609529618816047e-07
7.37,-0.033361226269301235,77.50006196542242,0,60,3.0,6,1.4580099392493568e-06
7.375,-0.1680180840843834,77.50012345839556,0,60,3.0,6,2.9049034250259437e-06
7.38,-0.23069703190837854,77.50025207253846,0,60,3.0,6,5.93111855196452e-06
7.385,-0.22587267821131068,77.50051989833095,0,60,3.0,6,1.2232901904700852e-05
7.39,-0.17718181630665902,77.50107053879677,0,60,3.0,6,2.5189148159236486e-05
7.395,-0.11494332516451301,77.50218205581817,0,60,3.0,6,5.134248983923124e-05
7.4,-0.061810214049552864,77.50437705138005,0,60,3.0,6,0.00010298944423639382
7.405,-0.026546104631500547,77.50860779491533,0,60,3.0,6,0.00020253635094905697
7.41,-0.00719600351942686,77.5165549676137,0,60,3.0,6,0.00038952864973412836
7.415,0.0022072757983807078,77.53108897869964,0,60,3.0,6,0.0007315053811680627
7.42,0.006917199873730717,77.55694911283238,0,60,3.0,6,0.0013399791254678748
7.425,0.01004859748264829,77.60169183598806,0,60,3.0,6,0.0023927490820720805
7.43,0.013037082251128167,77.67693707547176,0,60,3.0,6,0.0041632253052177794
7.435,0.01645163937690478,77.7998909378598,0,60,3.0,6,0.0070562573614070595
7.44,0.020526639934696615,77.99503777956711,0,60,3.0,6,0.011647947754520306
7.445,0.02539629541761738,78.29577278054447,0,60,3.0,6,0.01872406542457571
7.45,0.031171612185577933,78.74559890656192,0,60,3.0,6,0.029308209566162906
7.455,0.03795853426638131,79.39836652237483,0,60,3.0,6,0.04466744758529009
7.46,0.0458588961882057,80.3169349302758,0,60,3.0,6,0.0662808218888425
7.465,0.054966995891435555,81.56964085920548,0,60,3.0,6,0.09575625551071713
7.47,0.06536491004445595,83.22412774219025,0,60,3.0,6,0.13468535863977055
7.475,0.07711726085088699,85.33845947360807,0,60,3.0,6,0.18443434055548397
7.48,0.09026570629555215,87.95000681664004,0,60,3.0,6,0.24588251333270686
7.485,0.10482339848670268,91.06328339863445,0,60,3.0,6,0.3191360799678695
7.49,0.12076968927580028,94.63858211835603,0,60,3.0,6,0.40326075572602416
7.495,0.13804539501007884,98.5837320054619,0,60,3.0,6,0.4960878118932211
7.5,0.15654895051787066,102.75136341377669,0,60,3.0,6,0.5941497273829809
7.505,0.17613378141900526,106.94359409913197,0,60,3.0,6,0.6927904493913405
7.51,0.19660720058055794,110.92500582405262,0,60,3.0,6,0.7864707252718264
7.515,0.21773108748496234,114.44330342499879,0,60,3.0,6,0.8692541982352656
7.52,0.23922453870058807,117.25542188596262,0,60,3.0,6,0.9354216914344146
7.525,0.2607685857914563,119.15545481965574,0,60,3.0,6,0.9801283486977822
7.53,0.2820129681603682,120.0,0,60,3.0,6,1.0
7.535,0.30258482867153996,119.72661680769721,0,60,3.0,6,0.9935674542987579
7.54,0.3220990771751686,118.36212003966133,0,60,3.0,6,0.9614616479920314
7.545,0.3401700499968971,116.0192046826335,0,60,3.0,6,0.9063342278266706
7.55,0.3564239911198326,112.88201428084409,0,60,3.0,6,0.8325179830786844
7.555,0.3705118017738417,109.18324133098602,0,60,3.0,6,0.7454880313173181
7.56,0.3821214567925213,105.17673159742563,0,60,3.0,6,0.6512172140570737
7.565,0.39098947374066967,101.1100694710858,0,60,3.0,6,0.5555310463784893
7.57,0.3969108472035567,97.20119773854125,0,60,3.0,6,0.46355759384802947
7.575,0.3997469255491936,93.62195394509827,0,60,3.0,6,0.37934009282584163
7.58,0.3994308076379137,90.48983035382798,0,60,3.0,6,0.3056430671488937
7.585,0.3959699661768434,87.86768093596174,0,60,3.0,6,0.24394543378733516
7.59,0.38944595408114946,85.76984429058865,0,60,3.0,6,0.19458457154326236
7.595,0.38001120995358023,84.17242779702583,0,60,3.0,6,0.15699830110649018
7.6,0.3678831374098315,83.02534578800257,0,60,3.0,6,0.1300081361882957
7.605,0.35333577933796634,82.26402464586049,0,60,3.0,6,0.11209469754965853
7.61,0.33668953221163944,81.8192991437891,0,60,3.0,6,0.10163056808915519
7.615,0.3182994390982644,81.62472762003841,0,60,3.0,6,0.09705241458913914
7.62,0.29854265738230645,81.62118407871675,0,60,3.0,6,0.09696903714627651
7.625,0.2778057157821067,81.75904264873614,0,60,3.0,6,0.10021276820555626
7.63,0.2564721553719815,81.9985219925281,0,60,3.0,6,0.10584757629477876
7.635,0.23491109433464996,82.30882611113378,0,60,3.0,6,0.11314884967373606
7.64,0.21346717185309805,82.66665602002601,0,60,3.0,6,0.12156837694178849
7.645,0.19245222055656455,83.05453424588724,0,60,3.0,6,0.13069492343264094
7.65,0.17213889801761392,83.45923266320771,0,60,3.0,6,0.14021723913429918
7.655,0.15275638501270183,83.87045877227034,0,60,3.0,6,0.1498931475828315
7.66,0.13448814019607322,84.2798534333411,0,60,3.0,6,0.15952596313743772
7.665,0.11747159495449566,84.68028767641711,0,60,3.0,6,0.16894794532746138
7.67,0.10179958433370105,85.06541226325399,0,60,3.0,6,0.1780097003118586
7.675,0.08752324394101413,85.42940233018484,0,60,3.0,6,0.18657417247493746
7.68,0.07465606047174059,85.76684174356433,0,60,3.0,6,0.19451392337798418
7.685,0.0631787448609295,86.07270061918209,0,60,3.0,6,0.20171060280428438
7.69,0.05304460019959574,86.34237003707361,0,60,3.0,6,0.20805576557820252
7.695,0.044185078305849994,86.57172770912837,0,60,3.0,6,0.21345241668537335
7.7,0.03651525513023255,86.75721616923929,0,60,3.0,6,0.21781685104092435
7.705,0.0299390014708757,86.89592083331073,0,60,3.0,6,0.2210804901955465
7.71,0.024353677220580638,86.98563934776703,0,60,3.0,6,0.22319151406510668
7.715,0.01965423034339045,87.02493647066403,0,60,3.0,6,0.22411615225091838
7.72,0.015736632374757337,87.01318073228062,0,60,3.0,6,0.22383954664189687
7.725,0.012500627640593535,86.95056062220486,0,60,3.0,6,0.2223661322871732
7.73,0.009851811652115898,86.83807925732597,0,60,3.0,6,0.2197195119370817
7.735,0.007703084175428559,86.67752751899921,0,60,3.0,6,0.21594182397645206
7.74,0.005975544002062424,86.47143656288762,0,60,3.0,6,0.21109262500912043
7.745,0.004598905818663047,86.22301141626089,0,60,3.0,6,0.20524732744143268
7.75,0.0035115256454839104,85.9360480776319,0,60,3.0,6,0.19849524888545636
7.755,0.002660121266303676,85.61483710619105,0,60,3.0,6,0.19093734367508344
7.76,0.0019992692560877024,85.26405711630112,0,60,3.0,6,0.18268369685414393
7.765,0.0014907520044639367,84.88866186212869,0,60,3.0,6,0.17385086734420438
7.77,0.0011028178277539807,84.49376470286529,0,60,3.0,6,0.16455916947918334
7.775,0.0008094059938923333,84.08452418143106,0,60,3.0,6,0.15492998073955444
7.78,0.0005893771793717645,83.66603423862483,0,60,3.0,6,0.1450831585558784
7.785,0.0004257792353490551,83.24322223736209,0,60,3.0,6,0.135134640879108
7.79,0.0003051686392901525,82.82075751109831,0,60,3.0,6,0.1251942943787837
7.795,0.00021699992642659966,82.40297260454615,0,60,3.0,6,0.11536406128343883
7.8,0.00015308884054097838,81.9937987739174,0,60,3.0,6,0.10573644173923305
7.805,0.00010714989329311098,81.5967166896027,0,60,3.0,6,0.09639333387300472
7.81,7.440535854020571e-05,81.21472266694637,0,60,3.0,6,0.08740523922226758
7.815,5.1260276743925106e-05,80.85031016848625,0,60,3.0,6,0.07883082749379401
7.82,3.503659887882241e-05,80.50546579764779,0,60,3.0,6,0.07071684229759499
7.825,2.375894748103639e-05,80.18167855835483,0,60,3.0,6,0.0630983190201137
7.83,1.5984413869232557e-05,79.87996080067171,0,60,3.0,6,0.055999077662863786
7.835,1.0669166579899869e-05,79.60087901688703,0,60,3.0,6,0.049432447456165526
7.84,7.06526633560511e-06,79.34459249714048,0,60,3.0,6,0.04340217640330546
7.845,4.641847214699205e-06,79.1108977952886,0,60,3.0,6,0.037903477536202206
7.85,3.025641074479182e-06,78.8992769862145,0,60,3.0,6,0.032924164381517705
7.855,1.9566278676921314e-06,78.70894780365752,0,60,3.0,6,0.028445830674294657
7.86,1.2553456560008793e-06,78.53891391879662,0,60,3.0,6,0.024445033383449968
7.865,7.990660428214668e-07,78.38801383874541,0,60,3.0,6,0.02089444326459784
7.87,5.046221251618276e-07,78.25496715486534,0,60,3.0,6,0.017763933055655077
7.875,3.1616527078858815e-07,78.13841713794321,0,60,3.0,6,0.015021579716310766
7.88,1.9652884407760343e-07,78.03696894665431,0,60,3.0,6,0.012634563450689699
7.885,1.2120002189836396e-07,77.94922297505981,0,60,3.0,6,0.010569952354348502
7.89,7.415549848886236e-08,77.8738031041554,0,60,3.0,6,0.008795367156597636
7.895,4.501406988770349e-08,77.8093798341656,0,60,3.0,6,0.007279525509778751
7.9,0.0,77.75468845334072,0,60,3.0,6,0.005992669490369869
7.905,0.0,77.7085425428285,0,60,3.0,6,0.004906883360670503
7.91,0.0,77.6698432252712,0,60,3.0,6,0.003996311182851621
7.915,0.0,77.63758463845281,0,60,3.0,6,0.0032372856106542927
7.92,0.0,77.6108561573609,0,60,3.0,6,0.002608380173197635
7.925,0.0,77.5888419022451,0,60,3.0,6,0.002090397699884547
7.93,0.0,77.5708180611178,0,60,3.0,6,0.0016663073204189432
7.935,0.0,77.55614852741415,0,60,3.0,6,0.0013211418215094534
7.94,0.0,77.54427931196614,0,60,3.0,6,0.001041866163909082
7.945,0.0,77.53473213754465,0,60,3.0,6,0.000817226765756499
7.95,0.0,77.52709756803894,0,60,3.0,6,0.0006375898362103485
7.955,0.0,77.52102796635984,0,60,3.0,6,0.0004947756790550236
7.96,0.0,77.5162305182252,0,60,3.0,6,0.0003818945464752901
7.965,0.0,77.51246050531307,0,60,3.0,6,0.0002931883603075809
7.97,0.0,77.50951496242737,0,60,3.0,6,0.00022388146887939966
7.975,0.0,77.50722681031257,0,60,3.0,6,0.0001700425955899685
7.98,0.0,77.50545951908494,0,60,3.0,6,0.00012845927258675093
7.985,0.0,77.50410232700878,0,60,3.0,6,9.652534138307173e-05
7.99,0.0,77.50306601530963,0,60,3.0,6,7.214153669712473e-05
7.995,0.0,77.50227922141525,0,60,3.0,6,5.362873918235945e-05
8.0,0.0,77.50168525983179,0,60,3.0,6,3.965317251266456e-05
8.005,0.0,77.50123941108798,0,60,3.0,6,2.916261383481523e-05
8.01,0.0,77.50090663407934,0,60,3.0,6,2.1332566572763266e-05
8.015,0.0,77.5006596549978,0,60,3.0,6,1.5521294065980756e-05
8.02,0.0,77.50047738616604,0,60,3.0,6,1.1232615671521189e-05
8.025,0.0,77.50034362990894,0,60,3.0,6,8.085409622120043e-06
8.03,0.0,77.50024602556587,0,60,3.0,6,5.788836844043116e-06
8.035,0.0,77.50017520144215,0,60,3.0,6,4.122386874047044e-06
8.04,0.0,77.50012409756755,0,60,3.0,6,2.919942765883581e-06
8.045,0.0,77.500087429303,0,60,3.0,6,2.057160070441622e-06
8.05,0.0,77.50006126591418,0,60,3.0,6,1.4415509219682409e-06
8.055,0.0,77.50004270207464,0,60,3.0,6,1.004754697345668e-06
8.06,0.0,77.50002960378131,0,60,3.0,6,6.96559560337311e-07
8.065,0.0,77.5000204133158,0,60,3.0,6,4.803133128247924e-07
8.07,0.001684486749771458,77.50001400064605,0,60,3.0,6,3.294269658106393e-07
8.075,0.003097557930867117,77.50000955104196,0,60,3.0,6,2.247303989540395e-07
8.08,0.005475106668887023,77.50000648069503,0,60,3.0,6,1.5248694199619744e-07
8.085,0.00930222931468658,77.50000437381664,0,60,3.0,6,1.0291333263226346e-07
8.09,0.01519157517868857,77.50000293607884,0,60,3.0,6,6.908420807442727e-08
8.095,0.023847336626128316,77.5000019603924,0,60,3.0,6,4.6126879905226385e-08
8.1,0.0359830743700859,77.50000130192649,0,60,3.0,6,3.063356443282614e-08
8.105,0.05218887796857759,77.50000085999925,0,60,3.0,6,2.0235276398285778e-08
8.11,0.0727577001223134,77.50000056503822,0,60,3.0,6,1.3295016956630313e-08
8.115,0.0974992498694751,77.50000036925445,0,60,3.0,6,8.688340023902984e-09
8.12,0.12558706050443358,77.5000002400169,0,60,3.0,6,5.6474565259550755e-09
8.125,0.15549263588878245,77.50000015517654,0,60,3.0,6,3.6512126237486133e-09
8.13,0.1850529723539114,77.50000009978802,0,60,3.0,6,2.347953528335304e-09
8.135,0.21169159439317053,77.50000006382619,0,60,3.0,6,1.5017927607379319e-09
8.14,0.23277292922115492,77.50000004060576,0,60,3.0,6,9.55429534181295e-10
8.145,0.24602692519491282,77.50000002569476,0,60,3.0,6,6.045825905269286e-10
8.15,0.24995056064839283,77.50000001617221,0,60,3.0,6,3.805225520302295e-10
8.155,0.24408826520424054,77.50000001012424,0,60,3.0,6,2.382173935235615e-10
8.16,0.22911894216865275,77.5000000063041,0,60,3.0,6,1.4833189839812215e-10
8.165,0.20672661788705934,77.50000000390439,0,60,3.0,6,9.186799295147306e-11
8.17,0.17928878030241233,77.5000000024052,0,60,3.0,6,5.659297344476834e-11
8.175,0.14946211903866036,77.50000000147372,0,60,3.0,6,3.467582299730138e-11
8.18,0.1197651512573837,77.50000000089815,0,60,3.0,6,2.113304564023993e-11
8.185,0.09224675744988023,77.50000000054445,0,60,3.0,6,1.2810500372913393e-11
8.19,0.06829565320281596,77.50000000032826,0,60,3.0,6,7.72368313097532e-12
8.195,0.04860224607515734,77.50000000019686,0,60,3.0,6,4.632069891051608e-12
8.2,0.03324612389699793,77.50000000011742,0,60,3.0,6,2.762924529687392e-12
8.205,0.021859876340472782,77.50000000006968,0,60,3.0,6,1.6394310745561276e-12
8.21,0.01381595518554205,77.50000000004111,0,60,3.0,6,9.673412397901036e-13
8.215,0.008394095110402422,77.50000000002413,0,60,3.0,6,5.677654425038354e-13
8.22,0.0049052535271608,77.50000000001408,0,60,3.0,6,3.3136369465329847e-13
8.225,0.0027671663551903634,77.50000000000819,0,60,3.0,6,1.9259887802250245e-13
8.23,0.0015425553464444616,77.50000000000472,0,60,3.0,6,1.1101185330463683e-13
8.235,0.0009638206637011801,77.50000000000271,0,60,3.0,6,6.386525295537842e-14
8.24,0.0009804935156568228,77.50000000000155,0,60,3.0,6,3.644666268134161e-14
8.245,0.0018793744894085216,77.50000000000088,0,60,3.0,6,2.0731129231588804e-14
8.25,0.004535525206900863,77.5000000000005,0,60,3.0,6,1.1703056824284003e-14
8.255,0.010832767979632273,77.50000000000028,0,60,3.0,6,6.687461042448002e-15
8.26,0.024208003392322392,77.50000000000016,0,60,3.0,6,3.678103573346401e-15
8.265,0.0500971897335304,77.50000000000009,0,60,3.0,6,2.0062383127344005e-15
8.27,0.09582894921774403,77.50000000000004,0,60,3.0,6,1.0031191563672002e-15
8.275,0.16937896721820658,77.50000000000003,0,60,3.0,6,6.687461042448002e-16
8.28,0.27661303008991756,77.50000000000001,0,60,3.0,6,3.343730521224001e-16
8.285,0.4173782800009149,77.50000000000001,0,60,3.0,6,3.343730521224001e-16
8.29,0.5818720934538056,77.5,0,60,3.0,6,0.0
8.295,0.7494718801585675,77.5,0,60,3.0,6,0.0
8.3,0.891813020752378,77.5,0,60,3.0,6,0.0
8.305,0.9800361632936612,77.5,0,60,3.0,6,0.0
8.31,0.993574479225126,77.50000249055736,1,60,3.0,6,5.860134973879801e-08
8.315,0.9263438449375362,77.50000390266074,0,60,3.0,6,9.182731145408659e-08
8.32,0.7873015962290536,77.5000062610317,0,60,3.0,6,1.4731839294600993e-07
8.325,0.5959516244629897,77.5000104126822,0,60,3.0,6,2.4500428708051913e-07
8.33,0.376910120078773,77.50001815880528,0,60,3.0,6,4.2726600648112414e-07
8.335,0.15739335672107918,77.5000334012751,0,60,3.0,6,7.859123553878496e-07
8.34,-0.033361226269301235,77.50006460378755,0,60,3.0,6,1.5200891188188132e-06
8.345,-0.1680180840843834,77.50012992730984,0,60,3.0,6,3.057113172765051e-06
8.35,-0.23069703190837854,77.50026761566144,0,60,3.0,6,6.296839092770182e-06
8.355,-0.22587267821131068,77.50055630925912,0,60,3.0,6,1.3089629626459581e-05
8.36,-0.17718181630665902,77.50115340923121,0,60,3.0,6,2.713904073429523e-05
8.365,-0.11494332516451301,77.50236492593112,0,60,3.0,6,5.564531602631713e-05
8.37,-0.061810214049552864,77.50476787701339,0,60,3.0,6,0.00011218534149159441
8.375,-0.026546104631500547,77.50941633263068,0,60,3.0,6,0.00022156076778066884
8.38,-0.00719600351942686,77.5181738644655,0,60,3.0,6,0.00042762034036460296
8.385,0.0022072757983807078,77.5342261502554,0,60,3.0,6,0.0008053211824801565
8.39,0.006917199873730717,77.56283330869695,0,60,3.0,6,0.001478430792869457
8.395,0.01004859748264829,77.61237503104077,0,60,3.0,6,0.0026441183774298838
8.4,0.013037082251128167,77.6957132392228,0,60,3.0,6,0.00460501739347759
8.405,0.01645163937690478,77.83183666400365,0,60,3.0,6,0.007807921505968138
8.41,0.020526639934696615,78.04765202417518,0,60,3.0,6,0.012885929980592436
8.415,0.02539629541761738,78.37964807981832,0,60,3.0,6,0.02069760187807821
8.42,0.031171612185577933,78.87499658157523,0,60,3.0,6,0.03235286074294663
8.425,0.03795853426638131,79.591501931469,0,60,3.0,6,0.049211810152211696
8.43,0.0458588961882057,80.59572263286991,0,60,3.0,6,0.07284053253811548
8.435,0.054966995891435555,81.95862818810917,0,60,3.0,7,0.10490889854374526
8.44,0.06536491004445595,83.74838670535817,0,60,3.0,7,0.1470208636554864
8.445,0.07711726085088699,86.02033399330428,0,60,3.0,7,0.2004784469012771
8.45,0.09026570629555215,88.8048315443595,0,60,3.0,7,0.2659960363378706
8.455,0.10482339848670268,92.09448096566497,0,60,3.0,7,0.34339955213329343
8.46,0.12076968927580028,95.83285417186961,0,60,3.0,7,0.4313612746322262
8.465,0.13804539501007884,99.90730401880838,0,60,3.0,7,0.5272306827954912
8.47,0.15654895051787066,104.14833129667961,0,60,3.0,7,0.6270195599218733
8.475,0.17613378141900526,108.33727604108216,0,60,3.0,7,0.7255829656725215
8.48,0.19660720058055794,112.22279730887875,0,60,3.0,7,0.8170069955030295
8.485,0.21773108748496234,115.54490959056277,0,60,3.0,7,0.8951743433073592
8.49,0.23922453870058807,118.06361697299218,0,60,3.0,7,0.9544380464233454
8.495,0.2607685857914563,119.58786456364993,0,60,3.0,7,0.9903026956152925
8.5,0.2820129681603682,120.0,0,60,3.0,7,1.0
8.505,0.30258482867153996,119.27142299958258,0,60,3.0,7,0.9828570117548843
8.51,0.3220990771751686,117.46655828444447,0,60,3.0,7,0.9403896066928111
8.515,0.3401700499968971,114.73441248783143,0,60,3.0,7,0.8761038232430925
8.52,0.3564239911198326,111.28927580351457,0,60,3.0,7,0.7950417836121075
8.525,0.3705118017738417,107.38406102338513,0,60,3.0,7,0.7031543770208266
8.53,0.3821214567925213,103.28089833002707,0,60,3.0,7,0.6066093724712252
8.535,0.39098947374066967,99.22371126121679,0,60,3.0,7,0.5111461473227481
8.54,0.3969108472035567,95.41664685863836,0,60,3.0,7,0.4215681613797261
8.545,0.3997469255491936,92.0107136810468,0,60,3.0,7,0.34142855720110105
8.55,0.3994308076379137,89.09921702002791,0,60,3.0,7,0.27292275341242134
8.555,0.3959699661768434,86.72099306384327,0,60,3.0,7,0.2169645426786651
8.56,0.38944595408114946,84.86934322745678,0,60,3.0,7,0.1733963112342772
8.565,0.38001120995358023,83.50409389992826,0,60,3.0,7,0.14127279764537093
8.57,0.3678831374098315,82.5643187163182,0,60,3.0,7,0.1191604403839576
8.575,0.35333577933796634,81.97979641551007,0,60,3.0,7,0.10540697448258979
8.58,0.33668953221163944,81.68001798316348,0,60,3.0,7,0.09835336430972896
8.585,0.3182994390982644,81.60029568688363,0,60,3.0,7,0.09647754557373239
8.59,0.29854265738230645,81.68511720481757,0,60,3.0,7,0.09847334599570759
8.595,0.2778057157821067,81.8892611786442,0,60,3.0,7,0.10327673361515775
8.6,0.2564721553719815,82.17734651540148,0,60,3.0,7,0.11005521212709368
8.605,0.23491109433464996,82.52247317147288,0,60,3.0,7,0.1181758393287737
8.61,0.21346717185309805,82.90449269890502,0,60,3.0,7,0.12716453409188275
8.615,0.19245222055656455,83.30828526471531,0,60,3.0,7,0.13666553564036021
8.62,0.17213889801761392,83.72226285659941,0,60,3.0,7,0.1464061848611627
8.625,0.15275638501270183,84.13719258266862,0,60,3.0,7,0.1561692372392616
8.63,0.13448814019607322,84.54534839222734,0,60,3.0,7,0.16577290334652564
8.635,0.11747159495449566,84.93995127272836,0,60,3.0,7,0.17505767700537328
8.64,0.10179958433370105,85.31483813156787,0,60,3.0,7,0.1838785442721851
8.645,0.08752324394101413,85.66429795931882,0,60,3.0,7,0.19210112845456037
8.65,0.07465606047174059,85.98302177258904,0,60,3.0,7,0.19960051229621273
8.655,0.0631787448609295,86.2661241010189,0,60,3.0,7,0.20626174355338595
8.66,0.05304460019959574,86.509204811254,0,60,3.0,7,0.21198128967656457
8.665,0.044185078305849994,86.70842921313016,0,60,3.0,7,0.21666892266188612
8.67,0.03651525513023255,86.86061128456899,0,60,3.0,7,0.2202496772839762
8.675,0.0299390014708757,86.96328974342804,0,60,3.0,7,0.2226656410218361
8.68,0.024353677220580638,87.0147900798478,0,60,3.0,7,0.22387741364347763
8.685,0.01965423034339045,87.01426803196546,0,60,3.0,7,0.22386513016389312
8.69,0.015736632374757337,86.9617317279995,0,60,3.0,7,0.2226289818352825
8.695,0.012500627640593535,86.85804109034562,0,60,3.0,7,0.22018920212577936
8.7,0.009851811652115898,86.70488425603972,0,60,3.0,7,0.2165855119068169
8.705,0.007703084175428559,86.50473178744132,0,60,3.0,7,0.2118760420574427
8.71,0.005975544002062424,86.26077035135903,0,60,3.0,7,0.2061357729731536
8.715,0.004598905818663047,85.97681832982333,0,60,3.0,7,0.19945454893701955
8.72,0.0035115256454839104,85.6572264743845,0,60,3.0,7,0.19193474057375295
8.725,0.002660121266303676,85.30676720877216,0,60,3.0,7,0.1836886402064037
8.73,0.0019992692560877024,84.93051650632438,0,60,3.0,7,0.17483568250175013
8.735,0.0014907520044639367,84.53373241029662,0,60,3.0,7,0.1654995861246264
8.74,0.0011028178277539807,84.12173422728785,0,60,3.0,7,0.15580551123030226
8.745,0.0008094059938923333,83.69978621594157,0,60,3.0,7,0.145877322728037
8.75,0.0005893771793717645,83.27298923259978,0,60,3.0,7,0.13583504076705374
8.755,0.0004257792353490551,82.84618330765194,0,60,3.0,7,0.1257925484153398
8.76,0.0003051686392901525,82.42386354125402,0,60,3.0,7,0.11585561273538875
8.765,0.00021699992642659966,82.01011105855213,0,60,3.0,7,0.10612026020122652
8.77,0.00015308884054097838,81.60854008739086,0,60,3.0,7,0.09667153146802032
8.775,0.00010714989329311098,81.22226154968438,0,60,3.0,7,0.0875826246984559
8.78,7.440535854020571e-05,80.85386292236346,0,60,3.0,7,0.07891442170266968
8.785,5.1260276743925106e-05,80.50540355191389,0,60,3.0,7,0.07071537769209145
8.79,3.503659887882241e-05,80.17842411927857,0,60,3.0,7,0.06302174398302528
8.795,2.375894748103639e-05,79.8739685643194,0,60,3.0,7,0.055858083866338774
8.8,1.5984413869232557e-05,79.59261649957682,0,60,3.0,7,0.04923803528416048
8.805,1.0669166579899869e-05,79.33452397376828,0,60,3.0,7,0.04316526997101846
8.81,7.06526633560511e-06,79.09947038249331,0,60,3.0,7,0.037634597235136666
8.815,4.641847214699205e-06,78.88690935809102,0,60,3.0,7,0.03263316136684747
8.82,3.025641074479182e-06,78.6960215896651,0,60,3.0,7,0.028141684462708087
8.825,1.9566278676921314e-06,78.5257677122978,0,60,3.0,7,0.02413571087759545
8.83,1.2553456560008793e-06,78.37493964417503,0,60,3.0,7,0.020586815157059513
8.835,7.990660428214668e-07,78.2422090240731,0,60,3.0,7,0.017463741742896593
8.84,5.046221251618276e-07,78.12617169236393,0,60,3.0,7,0.014733451585033542
8.845,3.1616527078858815e-07,78.025387450806,0,60,3.0,7,0.012362057666023381
8.85,1.9652884407760343e-07,77.93841461647177,0,60,3.0,7,0.010315638034629995
8.855,1.2120002189836396e-07,77.8638391423511,0,60,3.0,7,0.008560920996496394
8.86,7.415549848886236e-08,77.80029830339164,0,60,3.0,7,0.007065842432744523
8.865,4.501406988770349e-08,77.74649913671861,0,60,3.0,7,0.005799979687496743
8.87,0.0,77.70123197589588,0,60,3.0,7,0.00473487002107952
