Time,ECG,Pressure,R_Peaks,mean_hr,hrv_scale,Phase_Bin,Normalized_Pressure
0.0,0.001684486749771458,77.5,0,60,3.0,0,0.0
0.005,0.003097557930867117,77.5,0,60,3.0,0,0.0
0.01,0.005475106668887023,77.5,0,60,3.0,0,0.0
0.015,0.00930222931468658,77.5,0,60,3.0,0,0.0
0.02,0.01519157517868857,77.5,0,60,3.0,0,0.0
0.025,0.023847336626128316,77.5,0,60,3.0,0,0.0
0.03,0.0359830743700859,77.5,0,60,3.0,0,0.0
0.035,0.05218887796857759,77.5,0,60,3.0,0,0.0
0.04,0.0727577001223134,77.5,0,60,3.0,0,0.0
0.045,0.0974992498694751,77.5,0,60,3.0,0,0.0
0.05,0.12558706050443358,77.5,0,60,3.0,0,0.0
0.055,0.15549263588878245,77.5,0,60,3.0,0,0.0
0.06,0.1850529723539114,77.5,0,60,3.0,0,0.0
0.065,0.21169159439317053,77.5,0,60,3.0,0,0.0
0.07,0.23277292922115492,77.5,0,60,3.0,0,0.0
0.075,0.24602692519491282,77.5,0,60,3.0,0,0.0
0.08,0.24995056064839283,77.5,0,60,3.0,0,0.0
0.085,0.24408826520424054,77.5,0,60,3.0,0,0.0
0.09,0.22911894216865275,77.5,0,60,3.0,0,0.0
0.095,0.20672661788705934,77.5,0,60,3.0,0,0.0
0.1,0.17928878030241233,77.5,0,60,3.0,0,0.0
0.105,0.14946211903866036,77.5,0,60,3.0,0,0.0
0.11,0.1197651512573837,77.5,0,60,3.0,0,0.0
0.115,0.09224675744988023,77.5,0,60,3.0,0,0.0
0.12,0.06829565320281596,77.5,0,60,3.0,0,0.0
0.125,0.04860224607515734,77.5,0,60,3.0,0,0.0
0.13,0.03324612389699793,77.5,0,60,3.0,0,0.0
0.135,0.021859876340472782,77.5,0,60,3.0,0,0.0
0.14,0.01381595518554205,77.5,0,60,3.0,0,0.0
0.145,0.008394095110402422,77.5,0,60,3.0,0,0.0
0.15,0.0049052535271608,77.5,0,60,3.0,0,0.0
0.155,0.0027671663551903634,77.5,0,60,3.0,0,0.0
0.16,0.0015425553464444616,77.5,0,60,3.0,0,0.0
0.165,0.0009638206637011801,77.5,0,60,3.0,0,0.0
0.17,0.0009804935156568228,77.5,0,60,3.0,0,0.0
0.175,0.0018793744894085216,77.5,0,60,3.0,0,0.0
0.18,0.004535525206900863,77.5,0,60,3.0,0,0.0
0.185,0.010832767979632273,77.5,0,60,3.0,0,0.0
0.19,0.024208003392322392,77.5,0,60,3.0,0,0.0
0.195,0.0500971897335304,77.5,0,60,3.0,0,0.0
0.2,0.09582894921774403,77.5,0,60,3.0,0,0.0
0.205,0.16937896721820658,77.5,0,60,3.0,0,0.0
0.21,0.27661303008991756,77.5,0,60,3.0,0,0.0
0.215,0.4173782800009149,77.5,0,60,3.0,0,0.0
0.22,0.5818720934538056,77.5,0,60,3.0,0,0.0
0.225,0.7494718801585675,77.5,0,60,3.0,0,0.0
0.23,0.891813020752378,77.5,0,60,3.0,0,0.0
0.235,0.9800361632936612,77.5,0,60,3.0,0,0.0
0.24,0.993574479225126,77.5,0,60,3.0,0,0.0
0.245,0.9263438449375362,77.5,0,60,3.0,0,0.0
0.25,0.7873015962290536,77.5,0,60,3.0,0,0.0
0.255,0.5959516244629897,77.5,0,60,3.0,0,0.0
0.26,0.376910120078773,77.5,0,60,3.0,0,0.0
0.265,0.15739335672107918,77.5,0,60,3.0,0,0.0
0.27,-0.033361226269301235,77.5,0,60,3.0,0,0.0
0.275,-0.1680180840843834,77.5,0,60,3.0,0,0.0
0.28,-0.23069703190837854,77.5,0,60,3.0,0,0.0
0.285,-0.22587267821131068,77.5,0,60,3.0,0,0.0
0.29,-0.17718181630665902,77.5,0,60,3.0,0,0.0
0.295,-0.11494332516451301,77.5,0,60,3.0,0,0.0
0.3,-0.061810214049552864,77.5,0,60,3.0,0,0.0
0.305,-0.026546104631500547,77.5,0,60,3.0,0,0.0
0.31,-0.00719600351942686,77.5,0,60,3.0,0,0.0
0.315,0.0022072757983807078,77.5,0,60,3.0,0,0.0
0.32,0.006917199873730717,77.5,0,60,3.0,0,0.0
0.325,0.01004859748264829,77.5,0,60,3.0,0,0.0
0.33,0.013037082251128167,77.5,0,60,3.0,0,0.0
0.335,0.01645163937690478,77.5,0,60,3.0,0,0.0
0.34,0.020526639934696615,77.5,0,60,3.0,0,0.0
0.345,0.02539629541761738,77.5,0,60,3.0,0,0.0
0.35,0.031171612185577933,77.5,0,60,3.0,0,0.0
0.355,0.03795853426638131,77.5,0,60,3.0,0,0.0
0.36,0.0458588961882057,77.5,0,60,3.0,0,0.0
0.365,0.054966995891435555,77.5,0,60,3.0,0,0.0
0.37,0.06536491004445595,77.5,0,60,3.0,0,0.0
0.375,0.07711726085088699,77.5,0,60,3.0,0,0.0
0.38,0.09026570629555215,77.5,0,60,3.0,0,0.0
0.385,0.10482339848670268,77.5,0,60,3.0,0,0.0
0.39,0.12076968927580028,77.5,0,60,3.0,0,0.0
0.395,0.13804539501007884,77.5,0,60,3.0,0,0.0
0.4,0.15654895051787066,77.5,0,60,3.0,0,0.0
0.405,0.17613378141900526,77.5,0,60,3.0,0,0.0
0.41,0.19660720058055794,77.5,0,60,3.0,0,0.0
0.415,0.21773108748496234,77.5,0,60,3.0,0,0.0
0.42,0.23922453870058807,77.5,0,60,3.0,0,0.0
0.425,0.2607685857914563,77.5,0,60,3.0,0,0.0
0.43,0.2820129681603682,77.5,0,60,3.0,0,0.0
0.435,0.30258482867153996,77.5,0,60,3.0,0,0.0
0.44,0.3220990771751686,77.5,0,60,3.0,0,0.0
0.445,0.3401700499968971,77.5,0,60,3.0,0,0.0
0.45,0.3564239911198326,77.5,0,60,3.0,0,0.0
0.455,0.3705118017738417,77.5,0,60,3.0,0,0.0
0.46,0.3821214567925213,77.5,0,60,3.0,0,0.0
0.465,0.39098947374066967,77.5,0,60,3.0,0,0.0
0.47,0.3969108472035567,77.5,0,60,3.0,0,0.0
0.475,0.3997469255491936,77.5,0,60,3.0,0,0.0
0.48,0.3994308076379137,77.5,0,60,3.0,0,0.0
0.485,0.3959699661768434,77.5,0,60,3.0,0,0.0
0.49,0.38944595408114946,77.5,0,60,3.0,0,0.0
0.495,0.38001120995358023,77.5,0,60,3.0,0,0.0
0.5,0.3678831374098315,77.5,0,60,3.0,0,0.0
0.505,0.35333577933796634,77.5,0,60,3.0,0,0.0
0.51,0.33668953221163944,77.5,0,60,3.0,0,0.0
0.515,0.3182994390982644,77.5,0,60,3.0,0,0.0
0.52,0.29854265738230645,77.5,0,60,3.0,0,0.0
0.525,0.2778057157821067,77.5,0,60,3.0,0,0.0
0.53,0.2564721553719815,77.5,0,60,3.0,0,0.0
0.535,0.23491109433464996,77.5,0,60,3.0,0,0.0
0.54,0.21346717185309805,77.5,0,60,3.0,0,0.0
0.545,0.19245222055656455,77.5,0,60,3.0,0,0.0
0.55,0.17213889801761392,77.5,0,60,3.0,0,0.0
0.555,0.15275638501270183,77.5,0,60,3.0,0,0.0
0.56,0.13448814019607322,77.5,0,60,3.0,0,0.0
0.565,0.11747159495449566,77.5,0,60,3.0,0,0.0
0.57,0.10179958433370105,77.5,0,60,3.0,0,0.0
0.575,0.08752324394101413,77.5,0,60,3.0,0,0.0
0.58,0.07465606047174059,77.5,0,60,3.0,0,0.0
0.585,0.0631787448609295,77.5,0,60,3.0,0,0.0
0.59,0.05304460019959574,77.5,0,60,3.0,0,0.0
0.595,0.044185078305849994,77.5,0,60,3.0,0,0.0
0.6,0.03651525513023255,77.5,0,60,3.0,0,0.0
0.605,0.0299390014708757,77.5,0,60,3.0,0,0.0
0.61,0.024353677220580638,77.5,0,60,3.0,0,0.0
0.615,0.01965423034339045,77.5,0,60,3.0,0,0.0
0.62,0.015736632374757337,77.5,0,60,3.0,0,0.0
0.625,0.012500627640593535,77.5,0,60,3.0,0,0.0
0.63,0.009851811652115898,77.5,0,60,3.0,0,0.0
0.635,0.007703084175428559,77.5,0,60,3.0,0,0.0
0.64,0.005975544002062424,77.5,0,60,3.0,0,0.0
0.645,0.004598905818663047,77.5,0,60,3.0,0,0.0
0.65,0.0035115256454839104,77.5,0,60,3.0,0,0.0
0.655,0.002660121266303676,77.5,0,60,3.0,0,0.0
0.66,0.0019992692560877024,77.5,0,60,3.0,0,0.0
0.665,0.0014907520044639367,77.5,0,60,3.0,0,0.0
0.67,0.0011028178277539807,77.5,0,60,3.0,0,0.0
0.675,0.0008094059938923333,77.5,0,60,3.0,0,0.0
0.68,0.0005893771793717645,77.5,0,60,3.0,0,0.0
0.685,0.0004257792353490551,77.5,0,60,3.0,0,0.0
0.69,0.0003051686392901525,77.5,0,60,3.0,0,0.0
0.695,0.00021699992642659966,77.5,0,60,3.0,0,0.0
0.7,0.00015308884054097838,77.5,0,60,3.0,0,0.0
0.705,0.00010714989329311098,77.5,0,60,3.0,0,0.0
0.71,7.440535854020571e-05,77.5,0,60,3.0,0,0.0
0.715,5.1260276743925106e-05,77.5,0,60,3.0,0,0.0
0.72,3.503659887882241e-05,77.5,0,60,3.0,0,0.0
0.725,2.375894748103639e-05,77.5,0,60,3.0,0,0.0
0.73,1.5984413869232557e-05,77.5,0,60,3.0,0,0.0
0.735,1.0669166579899869e-05,77.5,0,60,3.0,0,0.0
0.74,7.06526633560511e-06,77.5,0,60,3.0,0,0.0
0.745,4.641847214699205e-06,77.5,0,60,3.0,0,0.0
0.75,3.025641074479182e-06,77.5,0,60,3.0,0,0.0
0.755,1.9566278676921314e-06,77.5,0,60,3.0,0,0.0
0.76,1.2553456560008793e-06,77.5,0,60,3.0,0,0.0
0.765,7.990660428214668e-07,77.5,0,60,3.0,0,0.0
0.77,5.046221251618276e-07,77.5,0,60,3.0,0,0.0
0.775,3.1616527078858815e-07,77.5,0,60,3.0,0,0.0
0.78,1.9652884407760343e-07,77.5,0,60,3.0,0,0.0
0.785,1.2120002189836396e-07,77.5,0,60,3.0,0,0.0
0.79,7.415549848886236e-08,77.5,0,60,3.0,0,0.0
0.795,4.501406988770349e-08,77.5,0,60,3.0,0,0.0
0.8,0.0,77.5,0,60,3.0,0,0.0
0.805,0.0,77.5,0,60,3.0,0,0.0
0.81,0.0,77.5,0,60,3.0,0,0.0
0.815,0.0,77.5,0,60,3.0,0,0.0
0.82,0.0,77.5,0,60,3.0,0,0.0
0.825,0.0,77.5,0,60,3.0,0,0.0
0.83,0.0,77.5,0,60,3.0,0,0.0
0.835,0.0,77.5,0,60,3.0,0,0.0
0.84,0.0,77.5,0,60,3.0,0,0.0
0.845,0.0,77.5,0,60,3.0,0,0.0
0.85,0.0,77.5,0,60,3.0,0,0.0
0.855,0.0,77.5,0,60,3.0,0,0.0
0.86,0.0,77.5,0,60,3.0,0,0.0
0.865,0.0,77.5,0,60,3.0,0,0.0
0.87,0.0,77.5,0,60,3.0,0,0.0
0.875,0.0,77.5,0,60,3.0,0,0.0
0.88,0.0,77.5,0,60,3.0,0,0.0
0.885,0.0,77.5,0,60,3.0,0,0.0
0.89,0.001684486749771458,77.5,0,60,3.0,0,0.0
0.895,0.003097557930867117,77.5,0,60,3.0,0,0.0
0.9,0.005475106668887023,77.5,0,60,3.0,0,0.0
0.905,0.00930222931468658,77.5,0,60,3.0,0,0.0
0.91,0.01519157517868857,77.5,0,60,3.0,0,0.0
0.915,0.023847336626128316,77.5,0,60,3.0,0,0.0
0.92,0.0359830743700859,77.5,0,60,3.0,0,0.0
0.925,0.05218887796857759,77.5,0,60,3.0,0,0.0
0.93,0.0727577001223134,77.5,0,60,3.0,0,0.0
0.935,0.0974992498694751,77.5,0,60,3.0,0,0.0
0.94,0.12558706050443358,77.5,0,60,3.0,0,0.0
0.945,0.15549263588878245,77.5,0,60,3.0,0,0.0
0.95,0.1850529723539114,77.5,0,60,3.0,0,0.0
0.955,0.21169159439317053,77.5,0,60,3.0,0,0.0
0.96,0.23277292922115492,77.5,0,60,3.0,0,0.0
0.965,0.24602692519491282,77.5,0,60,3.0,0,0.0
0.97,0.24995056064839283,77.5,0,60,3.0,0,0.0
0.975,0.24408826520424054,77.5,0,60,3.0,0,0.0
0.98,0.22911894216865275,77.5,0,60,3.0,0,0.0
0.985,0.20672661788705934,77.5,0,60,3.0,0,0.0
0.99,0.17928878030241233,77.5,0,60,3.0,0,0.0
0.995,0.14946211903866036,77.5,0,60,3.0,0,0.0
1.0,0.1197651512573837,77.5,0,60,3.0,0,0.0
1.005,0.09224675744988023,77.5,0,60,3.0,0,0.0
1.01,0.06829565320281596,77.5,0,60,3.0,0,0.0
1.015,0.04860224607515734,77.5,0,60,3.0,0,0.0
1.02,0.03324612389699793,77.5,0,60,3.0,0,0.0
1.025,0.021859876340472782,77.5,0,60,3.0,0,0.0
1.03,0.01381595518554205,77.5,0,60,3.0,0,0.0
1.035,0.008394095110402422,77.5,0,60,3.0,0,0.0
1.04,0.0049052535271608,77.5,0,60,3.0,0,0.0
1.045,0.0027671663551903634,77.5,0,60,3.0,0,0.0
1.05,0.0015425553464444616,77.5,0,60,3.0,0,0.0
1.055,0.0009638206637011801,77.5,0,60,3.0,0,0.0
1.06,0.0009804935156568228,77.5,0,60,3.0,0,0.0
1.065,0.0018793744894085216,77.5,0,60,3.0,0,0.0
1.07,0.004535525206900863,77.5,0,60,3.0,0,0.0
1.075,0.010832767979632273,77.5,0,60,3.0,0,0.0
1.08,0.024208003392322392,77.5,0,60,3.0,0,0.0
1.085,0.0500971897335304,77.5,0,60,3.0,0,0.0
1.09,0.09582894921774403,77.5,0,60,3.0,0,0.0
1.095,0.16937896721820658,77.5,0,60,3.0,0,0.0
1.1,0.27661303008991756,77.5,0,60,3.0,0,0.0
1.105,0.4173782800009149,77.5,0,60,3.0,0,0.0
1.11,0.5818720934538056,77.5,0,60,3.0,0,0.0
1.115,0.7494718801585675,77.5,0,60,3.0,0,0.0
1.12,0.891813020752378,77.5,0,60,3.0,0,0.0
1.125,0.9800361632936612,77.5,0,60,3.0,0,0.0
1.13,0.993574479225126,77.50000249206059,1,60,3.0,0,5.8636719720251515e-08
1.135,0.9263438449375362,77.50000388649308,0,60,3.0,0,9.144689590143303e-08
1.14,0.7873015962290536,77.50000620174501,0,60,3.0,0,1.4592341197866892e-07
1.145,0.5959516244629897,77.50001024868433,0,60,3.0,0,2.411455137221577e-07
1.15,0.376910120078773,77.50001773713392,0,60,3.0,0,4.1734432744199103e-07
1.155,0.15739335672107918,77.50003234050088,0,60,3.0,0,7.609529618816047e-07
1.16,-0.033361226269301235,77.50006196542242,0,60,3.0,0,1.4580099392493568e-06
1.165,-0.1680180840843834,77.50012345839556,0,60,3.0,0,2.9049034250259437e-06
1.17,-0.23069703190837854,77.50025207253846,0,60,3.0,0,5.93111855196452e-06
1.175,-0.22587267821131068,77.50051989833095,0,60,3.0,0,1.2232901904700852e-05
1.18,-0.17718181630665902,77.50107053879677,0,60,3.0,0,2.5189148159236486e-05
1.185,-0.11494332516451301,77.50218205581817,0,60,3.0,0,5.134248983923124e-05
1.19,-0.061810214049552864,77.50437705138005,0,60,3.0,0,0.00010298944423639382
1.195,-0.026546104631500547,77.50860779491533,0,60,3.0,0,0.00020253635094905697
1.2,-0.00719600351942686,77.5165549676137,0,60,3.0,0,0.00038952864973412836
1.205,0.0022072757983807078,77.53108897869964,0,60,3.0,1,0.0007315053811680627
1.21,0.006917199873730717,77.55694911283238,0,60,3.0,1,0.0013399791254678748
1.215,0.01004859748264829,77.60169183598806,0,60,3.0,1,0.0023927490820720805
1.22,0.013037082251128167,77.67693707547176,0,60,3.0,1,0.0041632253052177794
1.225,0.01645163937690478,77.7998909378598,0,60,3.0,1,0.0070562573614070595
1.23,0.020526639934696615,77.99503777956711,0,60,3.0,1,0.011647947754520306
1.235,0.02539629541761738,78.29577278054447,0,60,3.0,1,0.01872406542457571
1.24,0.031171612185577933,78.74559890656192,0,60,3.0,1,0.029308209566162906
1.245,0.03795853426638131,79.39836652237483,0,60,3.0,1,0.04466744758529009
1.25,0.0458588961882057,80.3169349302758,0,60,3.0,1,0.0662808218888425
1.255,0.054966995891435555,81.56964085920548,0,60,3.0,1,0.09575625551071713
1.26,0.06536491004445595,83.22412774219025,0,60,3.0,1,0.13468535863977055
1.265,0.07711726085088699,85.33845947360807,0,60,3.0,1,0.18443434055548397
1.27,0.09026570629555215,87.95000681664004,0,60,3.0,1,0.24588251333270686
1.275,0.10482339848670268,91.06328339863445,0,60,3.0,1,0.3191360799678695
1.28,0.12076968927580028,94.63858211835603,0,60,3.0,1,0.40326075572602416
1.285,0.13804539501007884,98.5837320054619,0,60,3.0,1,0.4960878118932211
1.29,0.15654895051787066,102.75136341377669,0,60,3.0,1,0.5941497273829809
1.295,0.17613378141900526,106.94359409913197,0,60,3.0,1,0.6927904493913405
1.3,0.19660720058055794,110.92500582405262,0,60,3.0,1,0.7864707252718264
1.305,0.21773108748496234,114.44330342499879,0,60,3.0,1,0.8692541982352656
1.31,0.23922453870058807,117.25542188596262,0,60,3.0,1,0.9354216914344146
1.315,0.2607685857914563,119.15545481965574,0,60,3.0,1,0.9801283486977822
1.32,0.2820129681603682,120.0,0,60,3.0,1,1.0
1.325,0.30258482867153996,119.72661680769721,0,60,3.0,1,0.9935674542987579
1.33,0.3220990771751686,118.36212003966133,0,60,3.0,1,0.9614616479920314
1.335,0.3401700499968971,116.0192046826335,0,60,3.0,1,0.9063342278266706
1.34,0.3564239911198326,112.88201428084409,0,60,3.0,1,0.8325179830786844
1.345,0.3705118017738417,109.18324133098602,0,60,3.0,1,0.7454880313173181
1.35,0.3821214567925213,105.17673159742563,0,60,3.0,1,0.6512172140570737
1.355,0.39098947374066967,101.1100694710858,0,60,3.0,1,0.5555310463784893
1.36,0.3969108472035567,97.20119773854125,0,60,3.0,1,0.46355759384802947
1.365,0.3997469255491936,93.62195394509827,0,60,3.0,1,0.37934009282584163
1.37,0.3994308076379137,90.48983035382798,0,60,3.0,1,0.3056430671488937
1.375,0.3959699661768434,87.86768093596174,0,60,3.0,1,0.24394543378733516
1.38,0.38944595408114946,85.76984429058865,0,60,3.0,1,0.19458457154326236
1.385,0.38001120995358023,84.17242779702583,0,60,3.0,1,0.15699830110649018
1.39,0.3678831374098315,83.02534578800257,0,60,3.0,1,0.1300081361882957
1.395,0.35333577933796634,82.26402464586049,0,60,3.0,1,0.11209469754965853
1.4,0.33668953221163944,81.8192991437891,0,60,3.0,1,0.10163056808915519
1.405,0.3182994390982644,81.62472762003841,0,60,3.0,1,0.09705241458913914
1.41,0.29854265738230645,81.62118407871675,0,60,3.0,1,0.09696903714627651
1.415,0.2778057157821067,81.75904264873614,0,60,3.0,1,0.10021276820555626
1.42,0.2564721553719815,81.9985219925281,0,60,3.0,1,0.10584757629477876
1.425,0.23491109433464996,82.30882611113378,0,60,3.0,1,0.11314884967373606
1.43,0.21346717185309805,82.66665602002601,0,60,3.0,1,0.12156837694178849
1.435,0.19245222055656455,83.05453424588724,0,60,3.0,1,0.13069492343264094
1.44,0.17213889801761392,83.45923266320771,0,60,3.0,1,0.14021723913429918
1.445,0.15275638501270183,83.87045877227034,0,60,3.0,1,0.1498931475828315
1.45,0.13448814019607322,84.2798534333411,0,60,3.0,1,0.15952596313743772
1.455,0.11747159495449566,84.68028767641711,0,60,3.0,1,0.16894794532746138
1.46,0.10179958433370105,85.06541226325399,0,60,3.0,1,0.1780097003118586
1.465,0.08752324394101413,85.42940233018484,0,60,3.0,1,0.18657417247493746
1.47,0.07465606047174059,85.76684174356433,0,60,3.0,1,0.19451392337798418
1.475,0.0631787448609295,86.07270061918209,0,60,3.0,1,0.20171060280428438
1.48,0.05304460019959574,86.34237003707361,0,60,3.0,1,0.20805576557820252
1.485,0.044185078305849994,86.57172770912837,0,60,3.0,1,0.21345241668537335
1.49,0.03651525513023255,86.75721616923929,0,60,3.0,1,0.21781685104092435
1.495,0.0299390014708757,86.89592083331073,0,60,3.0,1,0.2210804901955465
1.5,0.024353677220580638,86.98563934776703,0,60,3.0,1,0.22319151406510668
1.505,0.01965423034339045,87.02493647066403,0,60,3.0,1,0.22411615225091838
1.51,0.015736632374757337,87.01318073228062,0,60,3.0,1,0.22383954664189687
1.515,0.012500627640593535,86.95056062220486,0,60,3.0,1,0.2223661322871732
1.52,0.009851811652115898,86.83807925732597,0,60,3.0,1,0.2197195119370817
1.525,0.007703084175428559,86.67752751899921,0,60,3.0,1,0.21594182397645206
1.53,0.005975544002062424,86.47143656288762,0,60,3.0,1,0.21109262500912043
1.535,0.004598905818663047,86.22301141626089,0,60,3.0,1,0.20524732744143268
1.54,0.0035115256454839104,85.9360480776319,0,60,3.0,1,0.19849524888545636
1.545,0.002660121266303676,85.61483710619105,0,60,3.0,1,0.19093734367508344
1.55,0.0019992692560877024,85.26405711630112,0,60,3.0,1,0.18268369685414393
1.555,0.0014907520044639367,84.88866186212869,0,60,3.0,1,0.17385086734420438
1.56,0.0011028178277539807,84.49376470286529,0,60,3.0,1,0.16455916947918334
1.565,0.0008094059938923333,84.08452418143106,0,60,3.0,1,0.15492998073955444
1.57,0.0005893771793717645,83.66603423862483,0,60,3.0,1,0.1450831585558784
1.575,0.0004257792353490551,83.24322223736209,0,60,3.0,1,0.135134640879108
1.58,0.0003051686392901525,82.82075751109831,0,60,3.0,1,0.1251942943787837
1.585,0.00021699992642659966,82.40297260454615,0,60,3.0,1,0.11536406128343883
1.59,0.00015308884054097838,81.9937987739174,0,60,3.0,1,0.10573644173923305
1.595,0.00010714989329311098,81.5967166896027,0,60,3.0,1,0.09639333387300472
1.6,7.440535854020571e-05,81.21472266694637,0,60,3.0,1,0.08740523922226758
1.605,5.1260276743925106e-05,80.85031016848625,0,60,3.0,1,0.07883082749379401
1.61,3.503659887882241e-05,80.50546579764779,0,60,3.0,1,0.07071684229759499
1.615,2.375894748103639e-05,80.18167855835483,0,60,3.0,1,0.0630983190201137
1.62,1.5984413869232557e-05,79.87996080067171,0,60,3.0,1,0.055999077662863786
1.625,1.0669166579899869e-05,79.60087901688703,0,60,3.0,1,0.049432447456165526
1.63,7.06526633560511e-06,79.34459249714048,0,60,3.0,1,0.04340217640330546
1.635,4.641847214699205e-06,79.1108977952886,0,60,3.0,1,0.037903477536202206
1.64,3.025641074479182e-06,78.8992769862145,0,60,3.0,1,0.032924164381517705
1.645,1.9566278676921314e-06,78.70894780365752,0,60,3.0,1,0.028445830674294657
1.65,1.2553456560008793e-06,78.53891391879662,0,60,3.0,1,0.024445033383449968
1.655,7.990660428214668e-07,78.38801383874541,0,60,3.0,1,0.02089444326459784
1.66,5.046221251618276e-07,78.25496715486534,0,60,3.0,1,0.017763933055655077
1.665,3.1616527078858815e-07,78.13841713794321,0,60,3.0,1,0.015021579716310766
1.67,1.9652884407760343e-07,78.03696894665431,0,60,3.0,1,0.012634563450689699
1.675,1.2120002189836396e-07,77.94922297505981,0,60,3.0,1,0.010569952354348502
1.68,7.415549848886236e-08,77.8738031041554,0,60,3.0,1,0.008795367156597636
1.685,4.501406988770349e-08,77.8093798341656,0,60,3.0,1,0.007279525509778751
1.69,0.0,77.75468845334072,0,60,3.0,1,0.005992669490369869
1.695,0.0,77.7085425428285,0,60,3.0,1,0.004906883360670503
1.7,0.0,77.6698432252712,0,60,3.0,1,0.003996311182851621
1.705,0.0,77.63758463845281,0,60,3.0,1,0.0032372856106542927
1.71,0.0,77.6108561573609,0,60,3.0,1,0.002608380173197635
1.715,0.0,77.5888419022451,0,60,3.0,1,0.002090397699884547
1.72,0.0,77.5708180611178,0,60,3.0,1,0.0016663073204189432
1.725,0.0,77.55614852741415,0,60,3.0,1,0.0013211418215094534
1.73,0.0,77.54427931196614,0,60,3.0,1,0.001041866163909082
1.735,0.0,77.53473213754465,0,60,3.0,1,0.000817226765756499
1.74,0.0,77.52709756803894,0,60,3.0,1,0.0006375898362103485
1.745,0.0,77.52102796635984,0,60,3.0,1,0.0004947756790550236
1.75,0.0,77.5162305182252,0,60,3.0,1,0.0003818945464752901
1.755,0.0,77.51246050531307,0,60,3.0,1,0.0002931883603075809
1.76,0.0,77.50951496242737,0,60,3.0,1,0.00022388146887939966
1.765,0.0,77.50722681031257,0,60,3.0,1,0.0001700425955899685
1.77,0.0,77.50545951908494,0,60,3.0,1,0.00012845927258675093
1.775,0.0,77.50410232700878,0,60,3.0,1,9.652534138307173e-05
1.78,0.0,77.50306601530963,0,60,3.0,1,7.214153669712473e-05
1.785,0.0,77.50227922141525,0,60,3.0,1,5.362873918235945e-05
1.79,0.0,77.50168525983179,0,60,3.0,1,3.965317251266456e-05
1.795,0.0,77.50123941108798,0,60,3.0,1,2.916261383481523e-05
1.8,0.0,77.50090663407934,0,60,3.0,1,2.1332566572763266e-05
1.805,0.0,77.5006596549978,0,60,3.0,1,1.5521294065980756e-05
1.81,0.0,77.50047738616604,0,60,3.0,1,1.1232615671521189e-05
1.815,0.0,77.50034362990894,0,60,3.0,1,8.085409622120043e-06
1.82,0.0,77.50024602556587,0,60,3.0,1,5.788836844043116e-06
1.825,0.0,77.50017520144215,0,60,3.0,1,4.122386874047044e-06
1.83,0.0,77.50012409756755,0,60,3.0,1,2.919942765883581e-06
1.835,0.0,77.500087429303,0,60,3.0,1,2.057160070441622e-06
1.84,0.0,77.50006126591418,0,60,3.0,1,1.4415509219682409e-06
1.845,0.0,77.50004270207464,0,60,3.0,1,1.004754697345668e-06
1.85,0.0,77.50002960378131,0,60,3.0,1,6.96559560337311e-07
1.855,0.0,77.5000204133158,0,60,3.0,1,4.803133128247924e-07
1.86,0.001684486749771458,77.50001400064605,0,60,3.0,1,3.294269658106393e-07
1.865,0.003097557930867117,77.50000955104196,0,60,3.0,1,2.247303989540395e-07
1.87,0.005475106668887023,77.50000648069503,0,60,3.0,1,1.5248694199619744e-07
1.875,0.00930222931468658,77.50000437381664,0,60,3.0,1,1.0291333263226346e-07
1.88,0.01519157517868857,77.50000293607884,0,60,3.0,1,6.908420807442727e-08
1.885,0.023847336626128316,77.5000019603924,0,60,3.0,1,4.6126879905226385e-08
1.89,0.0359830743700859,77.50000130192649,0,60,3.0,1,3.063356443282614e-08
1.895,0.05218887796857759,77.50000085999925,0,60,3.0,1,2.0235276398285778e-08
1.9,0.0727577001223134,77.50000056503822,0,60,3.0,1,1.3295016956630313e-08
1.905,0.0974992498694751,77.50000036925445,0,60,3.0,1,8.688340023902984e-09
1.91,0.12558706050443358,77.5000002400169,0,60,3.0,1,5.6474565259550755e-09
1.915,0.15549263588878245,77.50000015517654,0,60,3.0,1,3.6512126237486133e-09
1.92,0.1850529723539114,77.50000009978802,0,60,3.0,1,2.347953528335304e-09
1.925,0.21169159439317053,77.50000006382619,0,60,3.0,1,1.5017927607379319e-09
1.93,0.23277292922115492,77.50000004060576,0,60,3.0,1,9.55429534181295e-10
1.935,0.24602692519491282,77.50000002569476,0,60,3.0,1,6.045825905269286e-10
1.94,0.24995056064839283,77.50000001617221,0,60,3.0,1,3.805225520302295e-10
1.945,0.24408826520424054,77.50000001012424,0,60,3.0,1,2.382173935235615e-10
1.95,0.22911894216865275,77.5000000063041,0,60,3.0,1,1.4833189839812215e-10
1.955,0.20672661788705934,77.50000000390439,0,60,3.0,1,9.186799295147306e-11
1.96,0.17928878030241233,77.5000000024052,0,60,3.0,1,5.659297344476834e-11
1.965,0.14946211903866036,77.50000000147372,0,60,3.0,1,3.467582299730138e-11
1.97,0.1197651512573837,77.50000000089815,0,60,3.0,1,2.113304564023993e-11
1.975,0.09224675744988023,77.50000000054445,0,60,3.0,1,1.2810500372913393e-11
1.98,0.06829565320281596,77.50000000032826,0,60,3.0,1,7.72368313097532e-12
1.985,0.04860224607515734,77.50000000019686,0,60,3.0,1,4.632069891051608e-12
1.99,0.03324612389699793,77.50000000011742,0,60,3.0,1,2.762924529687392e-12
1.995,0.021859876340472782,77.50000000006968,0,60,3.0,1,1.6394310745561276e-12
2.0,0.01381595518554205,77.50000000004111,0,60,3.0,1,9.673412397901036e-13
2.005,0.008394095110402422,77.50000000002413,0,60,3.0,1,5.677654425038354e-13
2.01,0.0049052535271608,77.50000000001408,0,60,3.0,1,3.3136369465329847e-13
2.015,0.0027671663551903634,77.50000000000819,0,60,3.0,1,1.9259887802250245e-13
2.02,0.0015425553464444616,77.50000000000472,0,60,3.0,1,1.1101185330463683e-13
2.025,0.0009638206637011801,77.50000000000271,0,60,3.0,1,6.386525295537842e-14
2.03,0.0009804935156568228,77.50000000000155,0,60,3.0,1,3.644666268134161e-14
2.035,0.0018793744894085216,77.50000000000088,0,60,3.0,1,2.0731129231588804e-14
2.04,0.004535525206900863,77.5000000000005,0,60,3.0,1,1.1703056824284003e-14
2.045,0.010832767979632273,77.50000000000028,0,60,3.0,1,6.687461042448002e-15
2.05,0.024208003392322392,77.50000000000016,0,60,3.0,1,3.678103573346401e-15
2.055,0.0500971897335304,77.50000000000009,0,60,3.0,1,2.0062383127344005e-15
2.06,0.09582894921774403,77.50000000000004,0,60,3.0,1,1.0031191563672002e-15
2.065,0.16937896721820658,77.50000000000003,0,60,3.0,1,6.687461042448002e-16
2.07,0.27661303008991756,77.50000000000001,0,60,3.0,1,3.343730521224001e-16
2.075,0.4173782800009149,77.50000000000001,0,60,3.0,1,3.343730521224001e-16
2.08,0.5818720934538056,77.5,0,60,3.0,1,0.0
2.085,0.7494718801585675,77.5,0,60,3.0,1,0.0
2.09,0.891813020752378,77.5,0,60,3.0,1,0.0
2.095,0.9800361632936612,77.5,0,60,3.0,1,0.0
2.1,0.993574479225126,77.50000249553136,1,60,3.0,1,5.871838498826358e-08
2.105,0.9263438449375362,77.5000037979206,0,60,3.0,1,8.936283761078598e-08
2.11,0.7873015962290536,77.50000589651982,0,60,3.0,1,1.387416429064187e-07
2.115,0.5959516244629897,77.5000094348155,0,60,3.0,1,2.2199565872891553e-07
2.12,0.376910120078773,77.50001571195249,0,60,3.0,1,3.6969299966425324e-07
2.125,0.15739335672107918,77.50002740197677,0,60,3.0,1,6.447523944911261e-07
2.13,-0.033361226269301235,77.5000500328844,0,60,3.0,1,1.177244338885644e-06
2.135,-0.1680180840843834,77.50009495573708,0,60,3.0,1,2.234252637248681e-06
2.14,-0.23069703190837854,77.50018514752661,0,60,3.0,1,4.356412390774601e-06
2.145,-0.22587267821131068,77.50036623180388,0,60,3.0,1,8.617218914838198e-06
2.15,-0.17718181630665902,77.50072678709442,0,60,3.0,1,1.710087280992625e-05
2.155,-0.11494332516451301,77.50143461155861,0,60,3.0,1,3.3755566084892054e-05
2.16,-0.061810214049552864,77.5027993939534,0,60,3.0,1,6.58680930210748e-05
2.165,-0.026546104631500547,77.50537738125638,0,60,3.0,1,0.0001265266177971866
2.17,-0.00719600351942686,77.5101400375162,0,60,3.0,1,0.0002385891180281038
2.175,0.0022072757983807078,77.51873573170647,0,60,3.0,1,0.00044084074603460975
2.18,0.006917199873730717,77.53387969714991,0,60,3.0,1,0.0007971693447038486
2.185,0.01004859748264829,77.55991023047092,0,60,3.0,1,0.0014096524816686858
2.19,0.013037082251128167,77.60354438392822,0,60,3.0,1,0.00243633844536997
2.195,0.01645163937690478,77.67484918417814,0,60,3.0,1,0.004114098451250423
2.2,0.020526639934696615,77.7884093308522,0,60,3.0,1,0.0067861019024047994
2.205,0.02539629541761738,77.96461536956245,0,60,3.0,1,0.01093212634264593
2.21,0.031171612185577933,78.23091721059663,0,60,3.0,1,0.017198052014038345
2.215,0.03795853426638131,78.6227928599652,0,60,3.0,1,0.02641865552859298
2.22,0.0458588961882057,79.18408665755831,0,60,3.0,1,0.03962556841313672
2.225,0.054966995891435555,79.96630039667855,0,60,3.0,1,0.058030597568907015
2.23,0.06536491004445595,81.02640747170874,0,60,3.0,1,0.08297429345197027
2.235,0.07711726085088699,82.42283947403011,0,60,3.0,1,0.11583151703600265
2.24,0.09026570629555215,84.20949296015137,0,60,3.0,1,0.15787042259179684
2.245,0.10482339848670268,86.42792724167438,0,60,3.0,1,0.21006887627469134
2.25,0.12076968927580028,89.09834551335945,0,60,3.0,1,0.2729022473731635
2.255,0.13804539501007884,92.21040668051529,0,60,3.0,1,0.3461272160121245
2.26,0.15654895051787066,95.71530488045332,0,60,3.0,1,0.4285954089518428
2.265,0.17613378141900526,99.52076142138833,0,60,3.0,1,0.518135562856196
2.27,0.19660720058055794,103.49049392863455,0,60,3.0,1,0.6115410336149306
2.275,0.21773108748496234,107.44929879905975,0,60,3.0,1,0.7046893835072882
2.28,0.23922453870058807,111.1941190293451,0,60,3.0,1,0.792802800690473
2.285,0.2607685857914563,114.51047262775617,0,60,3.0,1,0.8708346500648512
2.29,0.2820129681603682,117.1925695932531,0,60,3.0,1,0.9339428139588964
2.295,0.30258482867153996,119.06457506308963,0,60,3.0,1,0.977990001484462
2.3,0.3220990771751686,120.0,0,60,3.0,1,1.0
2.305,0.3401700499968971,119.93626626357627,0,60,3.0,1,0.9985003826723828
2.31,0.3564239911198326,118.88213103465766,0,60,3.0,1,0.9736972008154744
2.315,0.3705118017738417,116.91676286621725,0,60,3.0,1,0.9274532439109943
2.32,0.3821214567925213,114.18061934032266,0,60,3.0,1,0.8630733962428863
2.325,0.39098947374066967,110.85960266710498,0,60,3.0,1,0.7849318274612936
2.33,0.3969108472035567,107.16499075378253,0,60,3.0,1,0.6979997824419419
2.335,0.3997469255491936,103.31215997547778,0,60,3.0,1,0.6073449405994773
2.34,0.3994308076379137,99.50105733238124,0,60,3.0,1,0.5176719372324997
2.345,0.3959699661768434,95.90080270694628,0,60,3.0,1,0.43296006369285367
2.35,0.38944595408114946,92.63987384862794,0,60,3.0,1,0.35623232585006925
2.355,0.38001120995358023,89.80227211535595,0,60,3.0,1,0.2894652262436693
2.36,0.3678831374098315,87.429107562273,0,60,3.0,1,0.23362606028877655
2.365,0.35333577933796634,85.52434499291017,0,60,3.0,1,0.18880811748023937
2.37,0.33668953221163944,84.06310121889615,0,60,3.0,1,0.1544259110328506
2.375,0.3182994390982644,83.00087339718817,0,60,3.0,1,0.129432315227957
2.38,0.29854265738230645,82.28233533973716,0,60,3.0,1,0.11252553740558022
2.385,0.2778057157821067,81.84875222780497,0,60,3.0,1,0.10232358183070507
2.39,0.2564721553719815,81.64351943719842,0,60,3.0,1,0.09749457499290402
2.395,0.23491109433464996,81.61573561778272,0,60,3.0,1,0.09684083806547572
2.4,0.21346717185309805,81.7220173312601,0,60,3.0,1,0.09934158426494365
2.405,0.19245222055656455,81.92693369355118,0,60,3.0,1,0.10416314573061594
2.41,0.17213889801761392,82.20249593298601,0,60,3.0,2,0.1106469631290826
2.415,0.15275638501270183,82.52710789170109,0,60,3.0,2,0.11828489156943747
2.42,0.13448814019607322,82.88430441935833,0,60,3.0,2,0.12668951574960777
2.425,0.11747159495449566,83.26150706007847,0,60,3.0,2,0.1355648720018464
2.43,0.10179958433370105,83.64893355810317,0,60,3.0,2,0.14468078960242745
2.435,0.08752324394101413,84.03872273042094,0,60,3.0,2,0.1538522995393163
2.44,0.07465606047174059,84.42428381662813,0,60,3.0,2,0.16292432509713253
2.445,0.0631787448609295,84.79984820751459,0,60,3.0,2,0.17176113429446085
2.45,0.05304460019959574,85.16018700493531,0,60,3.0,2,0.18023969423377198
2.455,0.044185078305849994,85.50045479613394,0,60,3.0,2,0.18824599520315147
2.46,0.03651525513023255,85.81612348054294,0,60,3.0,2,0.1956734936598339
2.465,0.0299390014708757,86.10297630590426,0,60,3.0,2,0.20242297190362973
2.47,0.024353677220580638,86.35713909920837,0,60,3.0,2,0.20840327292254984
2.475,0.01965423034339045,86.5751317625649,0,60,3.0,2,0.21353251206035045
2.48,0.015736632374757337,86.75392796721998,0,60,3.0,2,0.21773948158164658
2.485,0.012500627640593535,86.89101460585793,0,60,3.0,2,0.22096504954959842
2.49,0.009851811652115898,86.98444515996042,0,60,3.0,2,0.22316341552848037
2.495,0.007703084175428559,87.0328829744056,0,60,3.0,2,0.22430312880954342
2.5,0.005975544002062424,87.03563175280645,0,60,3.0,2,0.22436780594838712
2.505,0.004598905818663047,86.99265158497569,0,60,3.0,2,0.22335650788178094
2.51,0.0035115256454839104,86.90455962174919,0,60,3.0,2,0.2212837558058632
2.515,0.002660121266303676,86.7726151996039,0,60,3.0,2,0.2181791811671507
2.52,0.0019992692560877024,86.5986898271919,0,60,3.0,2,0.21408681946333893
2.525,0.0014907520044639367,86.38522299196607,0,60,3.0,2,0.20906407039920175
2.53,0.0011028178277539807,86.13516522658897,0,60,3.0,2,0.20318035827268158
2.535,0.0008094059938923333,85.85191028364954,0,60,3.0,2,0.19651553608587163
2.54,0.0005893771793717645,85.53921859307545,0,60,3.0,2,0.1891580845429517
2.545,0.0004257792353490551,85.20113441032936,0,60,3.0,2,0.18120316259598493
2.55,0.0003051686392901525,84.84189919885794,0,60,3.0,2,0.17275056938489283
2.555,0.00021699992642659966,84.4658638252098,0,60,3.0,2,0.16390267824023047
2.56,0.00015308884054097838,84.07740208207215,0,60,3.0,2,0.15476240193110952
2.565,0.00010714989329311098,83.68082789985633,0,60,3.0,2,0.14543124470250177
2.57,7.440535854020571e-05,83.28031837196917,0,60,3.0,2,0.136007491105157
2.575,5.1260276743925106e-05,82.87984441636587,0,60,3.0,2,0.12658457450272637
2.58,3.503659887882241e-05,82.48311054260569,0,60,3.0,2,0.11724965982601615
2.585,2.375894748103639e-05,82.09350480709807,0,60,3.0,2,0.10808246604936639
2.59,1.5984413869232557e-05,81.71405963766578,0,60,3.0,2,0.09915434441566551
2.595,1.0669166579899869e-05,81.34742380962653,0,60,3.0,2,0.09052761905003609
2.6,7.06526633560511e-06,80.99584547562104,0,60,3.0,2,0.0822551876616715
2.605,4.641847214699205e-06,80.66116580464649,0,60,3.0,2,0.07438037187403498
2.61,3.025641074479182e-06,80.34482248380725,0,60,3.0,2,0.0669369996189941
2.615,1.9566278676921314e-06,80.04786208778954,0,60,3.0,2,0.05994969618328328
2.62,1.2553456560008793e-06,79.77096013143739,0,60,3.0,2,0.05343435603382097
2.625,7.990660428214668e-07,79.51444749231865,0,60,3.0,2,0.04739876452514476
2.63,5.046221251618276e-07,79.278341822098,0,60,3.0,2,0.041843336990541165
2.635,3.1616527078858815e-07,79.06238255449453,0,60,3.0,2,0.0367619424586949
2.64,1.9652884407760343e-07,78.86606815798669,0,60,3.0,2,0.03214278018792209
2.645,1.2120002189836396e-07,78.68869436592169,0,60,3.0,2,0.027969279198157438
2.65,7.415549848886236e-08,78.52939223681737,0,60,3.0,2,0.02422099380746759
2.655,4.501406988770349e-08,78.38716504432811,0,60,3.0,2,0.020874471631249742
2.66,0.0,78.26092316041584,0,60,3.0,2,0.017904074362725703
2.665,0.0,78.14951626792161,0,60,3.0,2,0.01528273571580264
2.67,0.0,78.05176241193382,0,60,3.0,2,0.012982644986678171
2.675,0.0,77.96647356610181,0,60,3.0,2,0.010975848614160268
2.68,0.0,77.89247754460511,0,60,3.0,2,0.009234765755414454
2.685,0.0,77.8286362284681,0,60,3.0,2,0.00773261714042586
2.69,0.0,77.77386019328746,0,60,3.0,2,0.0064437692538226255
2.695,0.0,77.72711992251153,0,60,3.0,2,0.005343998176741974
2.7,0.0,77.68745386566955,0,60,3.0,2,0.004410679192224787
2.705,0.0,77.65397365492345,0,60,3.0,2,0.003622909527610532
2.71,0.0,77.62586682737643,0,60,3.0,2,0.00296157240885711
2.715,0.0,77.60239741673563,0,60,3.0,2,0.0024093509820147575
2.72,0.0,77.58290477863605,0,60,3.0,2,0.0019507006737893896
2.725,0.0,77.56680100188535,0,60,3.0,2,0.0015717882796553462
2.73,0.0,77.55356723584703,0,60,3.0,2,0.0012604055493418
2.735,0.0,77.54274923483845,0,60,3.0,2,0.001005864349140077
2.74,0.0,77.5339523862881,0,60,3.0,2,0.000798879677367214
2.745,0.0,77.52683645271036,0,60,3.0,2,0.0006314459461260172
2.75,0.0,77.52111022023206,0,60,3.0,2,0.0004967110642837725
2.755,0.0,77.51652621000613,0,60,3.0,2,0.0003888520001443313
2.76,0.0,77.51287557458264,0,60,3.0,2,0.0003029546960620417
2.765,0.0,77.50998327004963,0,60,3.0,2,0.00023490047175601724
2.77,0.0,77.50770356706387,0,60,3.0,2,0.0001812604015028415
2.775,0.0,77.50591594005692,0,60,3.0,2,0.0001391985895746556
2.78,0.0,77.5045213539901,0,60,3.0,2,0.00010638479976705639
2.785,0.0,77.50343895192604,0,60,3.0,2,8.091651590689253e-05
2.79,0.0,77.50260313413699,0,60,3.0,2,6.125021498800218e-05
2.795,0.0,77.50196101013708,0,60,3.0,2,4.614141499012155e-05
2.8,0.0,77.50147019851048,0,60,3.0,2,3.459290612882422e-05
2.805,0.0,77.50109694528726,0,60,3.0,2,2.581047734726299e-05
2.81,0.0,77.50081452947285,0,60,3.0,2,1.9165399361126593e-05
2.815,0.0,77.50060192376263,0,60,3.0,2,1.4162912061893247e-05
2.82,0.0,77.50044267910418,0,60,3.0,2,1.041597892193589e-05
2.825,0.0,77.50032400327848,0,60,3.0,2,7.623606552442652e-06
2.83,0.0,77.5002360057779,0,60,3.0,2,5.553077126893079e-06
2.835,0.0,77.50017108373179,0,60,3.0,2,4.025499571432246e-06
2.84,0.0,77.50012342628081,0,60,3.0,2,2.9041477837247786e-06
2.845,0.0,77.50008861748469,0,60,3.0,2,2.0851172868841626e-06
2.85,0.0,77.50006332045746,0,60,3.0,2,1.4898931166338597e-06
2.855,0.0,77.50004502788177,0,60,3.0,2,1.0594795710136062e-06
2.86,0.0,77.50003186631457,0,60,3.0,2,7.49795636987555e-07
2.865,0.0,77.50002244372865,0,60,3.0,2,5.28087733019835e-07
2.87,0.0,77.50001573153237,0,60,3.0,2,3.701537028679441e-07
2.875,0.0,77.50001097387214,0,60,3.0,2,2.5820875614900773e-07
2.88,0.0,77.50000761836212,0,60,3.0,2,1.7925557926901092e-07
2.885,0.001684486749771458,77.50000526351877,0,60,3.0,2,1.2384750053730815e-07
2.89,0.003097557930867117,77.50000361912504,0,60,3.0,2,8.51558832651148e-08
2.895,0.005475106668887023,77.50000247653146,0,60,3.0,2,5.827132855194898e-08
2.9,0.00930222931468658,77.50000168654122,0,60,3.0,2,3.9683322938799394e-08
2.905,0.01519157517868857,77.50000114304392,0,60,3.0,2,2.6895150995187578e-08
2.91,0.023847336626128316,77.50000077097754,0,60,3.0,2,1.814064790671503e-08
2.915,0.0359830743700859,77.50000051752744,0,60,3.0,2,1.2177116225168849e-08
2.92,0.05218887796857759,77.50000034573065,0,60,3.0,2,8.134838935802691e-09
2.925,0.0727577001223134,77.50000022985567,0,60,3.0,2,5.408368759376839e-09
2.93,0.0974992498694751,77.50000015208467,0,60,3.0,2,3.5784627444252904e-09
2.935,0.12558706050443358,77.50000010014482,0,60,3.0,2,2.3563486325549412e-09
2.94,0.15549263588878245,77.50000006562728,0,60,3.0,2,1.544171201363925e-09
2.945,0.1850529723539114,77.50000004280092,0,60,3.0,2,1.0070804739156944e-09
2.95,0.21169159439317053,77.50000002778016,0,60,3.0,2,6.536508328067344e-10
2.955,0.23277292922115492,77.50000001794442,0,60,3.0,2,4.222215466143098e-10
2.96,0.24602692519491282,77.5000000115355,0,60,3.0,2,2.714236469567849e-10
2.965,0.24995056064839283,77.50000000738001,0,60,3.0,2,1.7364728217430907e-10
2.97,0.24408826520424054,77.50000000469883,0,60,3.0,2,1.1056078405732371e-10
2.975,0.22911894216865275,77.50000000297739,0,60,3.0,2,7.005617001542466e-11
2.98,0.20672661788705934,77.50000000187757,0,60,3.0,2,4.417803639251575e-11
2.985,0.17928878030241233,77.50000000117832,0,60,3.0,2,2.7725210362833048e-11
2.99,0.14946211903866036,77.50000000073595,0,60,3.0,2,1.7316511623314855e-11
2.995,0.1197651512573837,77.50000000045745,0,60,3.0,2,1.0763468547820058e-11
3.0,0.09224675744988023,77.50000000028298,0,60,3.0,2,6.658370586913353e-12
3.005,0.06829565320281596,77.50000000017421,0,60,3.0,2,4.0990792459685025e-12
3.01,0.04860224607515734,77.50000000010674,0,60,3.0,2,2.511475994491347e-12
3.015,0.03324612389699793,77.50000000006509,0,60,3.0,2,1.5314285787205924e-12
3.02,0.021859876340472782,77.50000000003949,0,60,3.0,2,9.292227118481499e-13
3.025,0.01381595518554205,77.50000000002385,0,60,3.0,2,5.610779814613874e-13
3.03,0.008394095110402422,77.50000000001434,0,60,3.0,2,3.373824095915017e-13
3.035,0.0049052535271608,77.50000000000857,0,60,3.0,2,2.0162695042980724e-13
3.04,0.0027671663551903634,77.5000000000051,0,60,3.0,2,1.2003992571194163e-13
3.045,0.0015425553464444616,77.50000000000303,0,60,3.0,2,7.122146010207122e-14
3.05,0.0009638206637011801,77.50000000000178,0,60,3.0,2,4.1796631515300014e-14
3.055,0.0009804935156568228,77.50000000000105,0,60,3.0,2,2.4743605857057607e-14
3.06,0.0018793744894085216,77.50000000000061,0,60,3.0,2,1.4378041241263203e-14
3.065,0.004535525206900863,77.50000000000036,0,60,3.0,2,8.359326303060002e-15
3.07,0.010832767979632273,77.5000000000002,0,60,3.0,2,4.681222729713601e-15
3.075,0.024208003392322392,77.50000000000011,0,60,3.0,2,2.6749844169792007e-15
3.08,0.0500971897335304,77.50000000000007,0,60,3.0,2,1.6718652606120004e-15
3.085,0.09582894921774403,77.50000000000004,0,60,3.0,2,1.0031191563672002e-15
3.09,0.16937896721820658,77.50000000000001,0,60,3.0,2,3.343730521224001e-16
3.095,0.27661303008991756,77.50000000000001,0,60,3.0,2,3.343730521224001e-16
3.1,0.4173782800009149,77.5,0,60,3.0,2,0.0
3.105,0.5818720934538056,77.5,0,60,3.0,2,0.0
3.11,0.7494718801585675,77.5,0,60,3.0,2,0.0
3.115,0.891813020752378,77.5,0,60,3.0,2,0.0
3.12,0.9800361632936612,77.5,0,60,3.0,2,0.0
3.125,0.993574479225126,77.50000248990796,1,60,3.0,2,5.858606955906212e-08
3.13,0.9263438449375362,77.5000037286574,0,60,3.0,2,8.773311539217128e-08
3.135,0.7873015962290536,77.50000568588439,0,60,3.0,2,1.337855150375296e-07
3.14,0.5959516244629897,77.50000890930662,0,60,3.0,2,2.0963074388526044e-07
3.145,0.376910120078773,77.50001447339277,0,60,3.0,2,3.4055041804576296e-07
3.15,0.15739335672107918,77.50002452750309,0,60,3.0,2,5.771177196787475e-07
3.155,-0.033361226269301235,77.5000433960668,0,60,3.0,2,1.021083924717245e-06
3.16,-0.1680180840843834,77.50007973898661,0,60,3.0,2,1.8762114497322353e-06
3.165,-0.23069703190837854,77.50015069162811,0,60,3.0,2,3.5456853672311648e-06
3.17,-0.22587267821131068,77.50028959295834,0,60,3.0,2,6.813951960914303e-06
3.175,-0.17718181630665902,77.50056001888449,0,60,3.0,2,1.3176914929063595e-05
3.18,-0.11494332516451301,77.50108054165499,0,60,3.0,2,2.542450952907583e-05
3.185,-0.061810214049552864,77.5020671248821,0,60,3.0,2,4.863823252007398e-05
3.19,-0.026546104631500547,77.50390348912202,0,60,3.0,2,9.184680287115256e-05
3.195,-0.00719600351942686,77.50725416478957,0,60,3.0,2,0.00017068623034286728
3.2,0.0022072757983807078,77.51324002953402,0,60,3.0,2,0.0003115301066827669
3.205,0.006917199873730717,77.52370117791926,0,60,3.0,2,0.0005576747745709219
3.21,0.01004859748264829,77.54157558450754,0,60,3.0,2,0.0009782490472362577
3.215,0.013037082251128167,77.57142194911829,0,60,3.0,2,0.0016805164498420895
3.22,0.01645163937690478,77.62010826221689,0,60,3.0,2,0.002826076758044431
3.225,0.020526639934696615,77.69767035157514,0,60,3.0,2,0.004651067095885671
3.23,0.02539629541761738,77.81831348778191,0,60,3.0,2,0.007489729124280168
3.235,0.031171612185577933,78.0014829477885,0,60,3.0,2,0.011799598771494188
3.24,0.03795853426638131,78.27286722650334,0,60,3.0,2,0.018185111211843217
3.245,0.0458588961882057,78.66512616122492,0,60,3.0,2,0.027414733205292204
3.25,0.054966995891435555,79.21806764054246,0,60,3.0,2,0.040425120953940186
3.255,0.06536491004445595,79.97794929382763,0,60,3.0,2,0.05830468926653259
3.26,0.07711726085088699,80.99557875484656,0,60,3.0,2,0.08224891187874264
3.265,0.09026570629555215,82.3229513271192,0,60,3.0,2,0.11348120769692233
3.27,0.10482339848670268,84.00831448173156,0,60,3.0,2,0.15313681133486023
3.275,0.12076968927580028,86.08978772150972,0,60,3.0,2,0.202112652270817
3.28,0.13804539501007884,88.5879756289421,0,60,3.0,2,0.26089354421040245
3.285,0.15654895051787066,91.49834781306552,0,60,3.0,2,0.32937288971918877
3.29,0.17613378141900526,94.78445551284759,0,60,3.0,2,0.4066930708905314
3.295,0.19660720058055794,98.37323150417649,0,60,3.0,2,0.4911348589217997
3.3,0.21773108748496234,102.15360288262184,0,60,3.0,2,0.5800847737087492
3.305,0.23922453870058807,105.97938632685833,0,60,3.0,2,0.6701032076907842
3.31,0.2607685857914563,109.67692951344652,0,60,3.0,2,0.7571042238458006
3.315,0.2820129681603682,113.05726517729511,0,60,3.0,2,0.8366415335834143
3.32,0.30258482867153996,115.93176672692951,0,60,3.0,2,0.9042768641630473
3.325,0.3220990771751686,118.12958552231964,0,60,3.0,2,0.9559902475839916
3.33,0.3401700499968971,119.51466594770267,0,60,3.0,2,0.9885803752400628
3.335,0.3564239911198326,120.0,0,60,3.0,2,1.0
3.34,0.3705118017738417,119.55705719463694,0,60,3.0,2,0.9895778163443986
3.345,0.3821214567925213,118.21898088329543,0,60,3.0,2,0.9580936678422454
3.35,0.39098947374066967,116.0770659251651,0,60,3.0,2,0.9076956688274141
3.355,0.3969108472035567,113.27105027643492,0,60,3.0,2,0.8416717712102334
3.36,0.3997469255491936,109.9746676782558,0,60,3.0,2,0.7641098277236659
3.365,0.3994308076379137,106.37854761648535,0,60,3.0,2,0.6794952380349494
3.37,0.3959699661768434,102.67280317329086,0,60,3.0,2,0.5923012511362555
3.375,0.38944595408114946,99.03149431203465,0,60,3.0,2,0.506623395577286
3.38,0.38001120995358023,95.60065623329429,0,60,3.0,2,0.4258977937245715
3.385,0.3678831374098315,92.49086680927319,0,60,3.0,2,0.35272627786525146
3.39,0.35333577933796634,89.77455031193628,0,60,3.0,2,0.2888129485161478
3.395,0.33668953221163944,87.48752467500061,0,60,3.0,2,0.23500058058824974
3.4,0.3182994390982644,85.63380478482745,0,60,3.0,2,0.19138364199593993
3.405,0.29854265738230645,84.19242663892466,0,60,3.0,2,0.1574688620923449
3.41,0.2778057157821067,83.1250509994629,0,60,3.0,2,0.13235414116383293
3.415,0.2564721553719815,82.38328973340646,0,60,3.0,2,0.11490093490368133
3.42,0.23491109433464996,81.91499786241418,0,60,3.0,2,0.10388230264503959
3.425,0.21346717185309805,81.66911041111341,0,60,3.0,2,0.0980967155556096
3.43,0.19245222055656455,81.59890989899148,0,60,3.0,2,0.09644493879979951
3.435,0.17213889801761392,81.66384541412548,0,60,3.0,2,0.0979728332735406
3.44,0.15275638501270183,81.8301704676645,0,60,3.0,2,0.1018863639450471
3.445,0.13448814019607322,82.07072824798924,0,60,3.0,2,0.10754654701151146
3.45,0.11747159495449566,82.36420728122273,0,60,3.0,2,0.11445193602877018
3.455,0.10179958433370105,82.69414154053058,0,60,3.0,2,0.12221509507130777
3.46,0.08752324394101413,83.04785974110723,0,60,3.0,2,0.13053787626134664
3.465,0.07465606047174059,83.41551711443385,0,60,3.0,2,0.1391886379866789
3.47,0.0631787448609295,83.78928111297144,0,60,3.0,2,0.14798308501109264
3.475,0.05304460019959574,84.16269580806126,0,60,3.0,2,0.15676931313085313
3.48,0.044185078305849994,84.53021899571937,0,60,3.0,2,0.16541691754633803
3.485,0.03651525513023255,84.88690903872194,0,60,3.0,2,0.1738096244405162
3.49,0.0299390014708757,85.22823174845027,0,60,3.0,2,0.18184074702235928
3.495,0.024353677220580638,85.5499575253136,0,60,3.0,2,0.1894107653014965
3.5,0.01965423034339045,85.84812248803348,0,60,3.0,2,0.19642641148314074
3.505,0.015736632374757337,86.1190322345129,0,60,3.0,2,0.20280075845912707
3.51,0.012500627640593535,86.35929182872866,0,60,3.0,2,0.20845392538185079
3.515,0.009851811652115898,86.56584990520606,0,60,3.0,2,0.2133141154166133
3.52,0.007703084175428559,86.73604818882806,0,60,3.0,2,0.21731878091360152
3.525,0.005975544002062424,86.86767027325033,0,60,3.0,2,0.22041577113530178
3.53,0.004598905818663047,86.95898533950358,0,60,3.0,2,0.2225643609294961
3.535,0.0035115256454839104,87.00878381221912,0,60,3.0,2,0.22373608969927344
3.54,0.002660121266303676,87.01640291098104,0,60,3.0,2,0.22391536261131867
3.545,0.0019992692560877024,86.98174078734127,0,60,3.0,2,0.2230997832315592
3.55,0.0014907520044639367,86.90525853242433,0,60,3.0,2,0.22130020076292534
3.555,0.0011028178277539807,86.78796984983194,0,60,3.0,2,0.21854046705486915
3.56,0.0008094059938923333,86.63141864206983,0,60,3.0,2,0.2148569092251725
3.565,0.0005893771793717645,86.4376451669792,0,60,3.0,2,0.21029753334068693
3.57,0.0004257792353490551,86.20914178417182,0,60,3.0,2,0.20492098315698398
3.575,0.0003051686392901525,85.94879962528395,0,60,3.0,2,0.1987952853007989
3.58,0.00021699992642659966,85.65984777902564,0,60,3.0,2,0.19199641833001505
3.585,0.00015308884054097838,85.34578677584746,0,60,3.0,2,0.184606747666999
3.59,0.00010714989329311098,85.0103182826044,0,60,3.0,2,0.1767133713553977
3.595,7.440535854020571e-05,84.65727297238483,0,60,3.0,2,0.16840642287964308
3.6,5.1260276743925106e-05,84.29053851906718,0,60,3.0,2,0.15977737691922786
3.605,3.503659887882241e-05,83.91398958343785,0,60,3.0,2,0.1509174019632436
3.61,2.375894748103639e-05,83.53142151384404,0,60,3.0,2,0.14191580032574205
3.615,1.5984413869232557e-05,83.14648928771153,0,60,3.0,3,0.13285857147556546
3.62,1.0669166579899869e-05,82.76265298104968,0,60,3.0,3,0.1238271289658749
3.625,7.06526633560511e-06,82.38313078282027,0,60,3.0,3,0.1148971948898888
3.63,4.641847214699205e-06,82.01086028197936,0,60,3.0,3,0.10613788898774969
3.635,3.025641074479182e-06,81.64846845941109,0,60,3.0,3,0.09761102257437863
3.64,1.9566278676921314e-06,81.29825052665099,0,60,3.0,3,0.08937060062708209
3.645,1.2553456560008793e-06,80.9621574790163,0,60,3.0,3,0.08146252891803055
3.65,7.990660428214668e-07,80.64179198183254,0,60,3.0,3,0.07392451721958918
3.655,5.046221251618276e-07,80.33841199240204,0,60,3.0,3,0.06678616452710691
3.66,3.1616527078858815e-07,80.05294134273204,0,60,3.0,3,0.06006920806428331
3.665,1.9652884407760343e-07,79.78598637227384,0,60,3.0,3,0.053787914641737405
3.67,1.2120002189836396e-07,79.53785760739456,0,60,3.0,3,0.04794959076222486
3.675,7.415549848886236e-08,79.30859543443712,0,60,3.0,3,0.04255518669263819
3.68,4.501406988770349e-08,79.09799870371573,0,60,3.0,3,0.03759996949919368
3.685,0.0,78.90565522887344,0,60,3.0,3,0.03307424067937511
3.69,0.0,78.73097320479162,0,60,3.0,3,0.028964075406861745
3.695,0.0,78.57321265199117,0,60,3.0,3,0.02525206239979224
3.7,0.0,78.43151610006214,0,60,3.0,3,0.021918025883815064
3.705,0.0,78.30493784085115,0,60,3.0,3,0.01893971390238007
3.71,0.0,78.19247120785805,0,60,3.0,3,0.016293440184895255
3.715,0.0,78.09307346591976,0,60,3.0,3,0.013954669786347254
3.72,0.0,78.00568801980442,0,60,3.0,3,0.011898541642457036
3.725,0.0,77.9292637675988,0,60,3.0,3,0.010100323943501119
3.73,0.0,77.86277153141357,0,60,3.0,3,0.008535800739142854
3.735,0.0,77.8052175915188,0,60,3.0,3,0.007181590388677585
3.74,0.0,77.75565442900356,0,60,3.0,3,0.006015398329495437
3.745,0.0,77.71318884570155,0,60,3.0,3,0.005016208134154166
3.75,0.0,77.67698767844453,0,60,3.0,3,0.004164415963400776
3.755,0.0,77.64628135832652,0,60,3.0,3,0.0034419143135651477
3.76,0.0,77.62036558570827,0,60,3.0,3,0.0028321314284299017
3.765,0.0,77.59860139965794,0,60,3.0,3,0.002320032933127938
3.77,0.0,77.5804139181414,0,60,3.0,3,0.001892092191562423
3.775,0.0,77.56529001440353,0,60,3.0,3,0.0015362356330242352
3.78,0.0,77.55277517749663,0,60,3.0,3,0.0012417688822735913
3.785,0.0,77.54246978262495,0,60,3.0,3,0.0009992890029399645
3.79,0.0,77.53402497156353,0,60,3.0,3,0.000800587566200594
3.795,0.0,77.52713831636724,0,60,3.0,3,0.0006385486204057062
3.8,0.0,77.5215494121934,0,60,3.0,3,0.0005070449927857493
3.805,0.0,77.51703551836333,0,60,3.0,3,0.0004008357261959779
3.81,0.0,77.51340734160578,0,60,3.0,3,0.00031546686131257636
3.815,0.0,77.51050503234966,0,60,3.0,3,0.0002471772317566025
3.82,0.0,77.50819444435803,0,60,3.0,3,0.00019281045548295343
3.825,0.0,77.50636369013327,0,60,3.0,3,0.00014973388548870548
3.83,0.0,77.5049200094337,0,60,3.0,3,0.00011576492785185538
3.835,0.0,77.50378695586653,0,60,3.0,3,8.91048439183685e-05
3.84,0.0,77.50290189670585,0,60,3.0,3,6.827992249060009e-05
3.845,0.0,77.50221381360679,0,60,3.0,3,5.208973192439129e-05
3.85,0.0,77.5016813864866,0,60,3.0,3,3.956203497871095e-05
3.855,0.0,77.50127133923534,0,60,3.0,3,2.991386436105238e-05
3.86,0.0,77.50095702381466,0,60,3.0,3,2.2518207403851086e-05
3.865,0.0,77.5007172184236,0,60,3.0,3,1.687572761417922e-05
3.87,0.0,77.50053511549454,0,60,3.0,3,1.2590952812776296e-05
3.875,0.0,77.5003974760937,0,60,3.0,3,9.352378675189624e-06
3.88,0.0,77.50029392863442,0,60,3.0,3,6.915967868708857e-06
3.885,0.0,77.50021639149041,0,60,3.0,3,5.091564480273839e-06
3.89,0.0,77.5001586009764,0,60,3.0,3,3.7317876801272872e-06
3.895,0.0,77.50011572812916,0,60,3.0,3,2.7230148037581195e-06
3.9,0.0,77.50008406968217,0,60,3.0,3,1.978110168800092e-06
3.905,0.0,77.50006080051752,0,60,3.0,3,1.4306004121568977e-06
3.91,0.0,77.50004377665195,0,60,3.0,3,1.0300388694036776e-06
3.915,0.0,77.50003137944141,0,60,3.0,3,7.383397978762386e-07
3.92,0.0,77.5000223931542,0,60,3.0,3,5.268977458051856e-07
3.925,0.0,77.50001590936077,0,60,3.0,3,3.743379004524339e-07
3.93,0.0,77.50001125272193,0,60,3.0,3,2.6476992783339964e-07
3.935,0.0,77.50000792373315,0,60,3.0,3,1.8644078001189509e-07
3.94,0.0,77.50000555481363,0,60,3.0,3,1.3070149708148486e-07
3.945,0.0,77.50000387682807,0,60,3.0,3,9.121948410746187e-08
3.95,0.001684486749771458,77.50000269371093,0,60,3.0,3,6.338143353947516e-08
3.955,0.003097557930867117,77.5000018633431,0,60,3.0,3,4.384336708586916e-08
3.96,0.005475106668887023,77.50000128322282,0,60,3.0,3,3.019347800278304e-08
3.965,0.00930222931468658,77.50000087978937,0,60,3.0,3,2.0700926316909745e-08
3.97,0.01519157517868857,77.50000060051346,0,60,3.0,3,1.4129728456549962e-08
3.975,0.023847336626128316,77.50000040806954,0,60,3.0,3,9.601636212905492e-09
3.98,0.0359830743700859,77.50000027606605,0,60,3.0,3,6.495671681584688e-09
3.985,0.05218887796857759,77.50000018593418,0,60,3.0,3,4.374921967182137e-09
3.99,0.0727577001223134,77.50000012467312,0,60,3.0,3,2.933485214217559e-09
3.995,0.0974992498694751,77.50000008322502,0,60,3.0,3,1.958235717371709e-09
4.0,0.12558706050443358,77.50000005530983,0,60,3.0,3,1.3014076718237073e-09
4.005,0.15549263588878245,77.5000000365947,0,60,3.0,3,8.610517371005913e-10
4.01,0.1850529723539114,77.50000002410468,0,60,3.0,3,5.67168920978849e-10
4.015,0.21169159439317053,77.50000001580709,0,60,3.0,3,3.719315052020487e-10
4.02,0.23277292922115492,77.50000001031977,0,60,3.0,3,2.428180323477136e-10
4.025,0.24602692519491282,77.50000000670742,0,60,3.0,3,1.57821739990408e-10
4.03,0.24995056064839283,77.50000000434018,0,60,3.0,3,1.0212187696785858e-10
4.035,0.24408826520424054,77.50000000279594,0,60,3.0,3,6.578689488592585e-11
4.04,0.22911894216865275,77.50000000179314,0,60,3.0,3,4.2191526089856566e-11
4.045,0.20672661788705934,77.50000000114491,0,60,3.0,3,2.6939099317293286e-11
4.05,0.17928878030241233,77.50000000072777,0,60,3.0,3,1.7123912745292353e-11
4.055,0.14946211903866036,77.50000000046056,0,60,3.0,3,1.0836696246234865e-11
4.06,0.1197651512573837,77.50000000029016,0,60,3.0,3,6.827228978235165e-12
4.065,0.09224675744988023,77.500000000182,0,60,3.0,3,4.2823156785315775e-12
4.07,0.06829565320281596,77.50000000011364,0,60,3.0,3,2.6739812978228334e-12
4.075,0.04860224607515734,77.50000000007066,0,60,3.0,3,1.6625028151525732e-12
4.08,0.03324612389699793,77.50000000004373,0,60,3.0,3,1.0288658813806251e-12
4.085,0.021859876340472782,77.50000000002694,0,60,3.0,3,6.339713068240705e-13
4.09,0.01381595518554205,77.50000000001653,0,60,3.0,3,3.888758596183513e-13
4.095,0.008394095110402422,77.50000000001009,0,60,3.0,3,2.374048670069041e-13
4.1,0.0049052535271608,77.50000000000614,0,60,3.0,3,1.4444915851687683e-13
4.105,0.0027671663551903634,77.50000000000371,0,60,3.0,3,8.727136660394643e-14
4.11,0.0015425553464444616,77.50000000000223,0,60,3.0,3,5.2496569183216817e-14
4.115,0.0009638206637011801,77.50000000000134,0,60,3.0,3,3.143106689950561e-14
4.12,0.0009804935156568228,77.5000000000008,0,60,3.0,3,1.8724890918854405e-14
4.125,0.0018793744894085216,77.50000000000048,0,60,3.0,3,1.1368683772161604e-14
4.13,0.004535525206900863,77.50000000000028,0,60,3.0,3,6.687461042448002e-15
4.135,0.010832767979632273,77.50000000000017,0,60,3.0,3,4.012476625468801e-15
4.14,0.024208003392322392,77.5000000000001,0,60,3.0,3,2.3406113648568006e-15
4.145,0.0500971897335304,77.50000000000006,0,60,3.0,3,1.3374922084896003e-15
4.15,0.09582894921774403,77.50000000000003,0,60,3.0,3,6.687461042448002e-16
4.155,0.16937896721820658,77.50000000000001,0,60,3.0,3,3.343730521224001e-16
4.16,0.27661303008991756,77.50000000000001,0,60,3.0,3,3.343730521224001e-16
4.165,0.4173782800009149,77.5,0,60,3.0,3,0.0
4.17,0.5818720934538056,77.5,0,60,3.0,3,0.0
4.175,0.7494718801585675,77.5,0,60,3.0,3,0.0
4.18,0.891813020752378,77.5,0,60,3.0,3,0.0
4.185,0.9800361632936612,77.5,0,60,3.0,3,0.0
4.19,0.993574479225126,77.50000248997046,1,60,3.0,3,5.8587540131745354e-08
4.195,0.9263438449375362,77.50000384762257,0,60,3.0,3,9.053229565752725e-08
4.2,0.7873015962290536,77.50000607642373,0,60,3.0,3,1.4297467600954406e-07
4.205,0.5959516244629897,77.5000099193542,0,60,3.0,3,2.3339656937584068e-07
4.21,0.376910120078773,77.50001691763335,0,60,3.0,3,3.9806196107693883e-07
4.215,0.15739335672107918,77.50003032958121,0,60,3.0,3,7.13637204880262e-07
4.22,-0.033361226269301235,77.50005706326723,0,60,3.0,3,1.3426651114112996e-06
4.225,-0.1680180840843834,77.50011163602987,0,60,3.0,3,2.6267301146109436e-06
4.23,-0.23069703190837854,77.50022405397121,0,60,3.0,3,5.271858146095516e-06
4.235,-0.22587267821131068,77.50045501243203,0,60,3.0,3,1.0706174871235335e-05
4.24,-0.17718181630665902,77.50092427728828,0,60,3.0,3,2.17477009006389e-05
4.245,-0.11494332516451301,77.50186190043328,0,60,3.0,3,4.3809421959608964e-05
4.25,-0.061810214049552864,77.5036974124983,0,60,3.0,3,8.699794113641367e-05
4.255,-0.026546104631500547,77.50720948330502,0,60,3.0,3,0.00016963490129455748
4.26,-0.00719600351942686,77.51376740494521,0,60,3.0,3,0.00032393893988736473
4.265,0.0022072757983807078,77.52570486126365,0,60,3.0,3,0.0006048202650270147
4.27,0.006917199873730717,77.54687310100944,0,60,3.0,3,0.0011028964943397355
4.275,0.01004859748264829,77.58342030040448,0,60,3.0,3,0.0019628305977525597
4.28,0.013037082251128167,77.64483019563318,0,60,3.0,3,0.0034077693090159085
4.285,0.01645163937690478,77.74521845683252,0,60,3.0,3,0.00576984604311807
4.29,0.020526639934696615,77.90482292278939,0,60,3.0,3,0.009525245242103358
4.295,0.02539629541761738,78.15153067952627,0,60,3.0,3,0.015330133635912341
4.3,0.031171612185577933,78.52216589770399,0,60,3.0,3,0.024050962298917296
4.305,0.03795853426638131,79.06313417566034,0,60,3.0,3,0.03677962766259618
4.31,0.0458588961882057,79.82991303787692,0,60,3.0,3,0.05482148324416284
4.315,0.054966995891435555,80.88483816617295,0,60,3.0,3,0.0796432509687754
4.32,0.06536491004445595,82.29271025083777,0,60,3.0,3,0.11276965296088874
4.325,0.07711726085088699,84.1139790420912,0,60,3.0,3,0.15562303628449886
4.33,0.09026570629555215,86.39566362124735,0,60,3.0,3,0.20930973226464356
4.335,0.10482339848670268,89.16071083043977,0,60,3.0,3,0.2743696665985828
4.34,0.12076968927580028,92.39709175659418,0,60,3.0,3,0.3505198060375101
4.345,0.13804539501007884,96.04845287733258,0,60,3.0,3,0.43643418534900186
4.35,0.15654895051787066,100.00841066564702,0,60,3.0,3,0.5296096627211063
4.355,0.17613378141900526,104.12045778604747,0,60,3.0,3,0.6263637126128816
4.36,0.19660720058055794,108.18485302700304,0,60,3.0,3,0.7219965418118364
4.365,0.21773108748496234,111.9728233716453,0,60,3.0,3,0.811125255803419
4.37,0.23922453870058807,115.2470723582789,0,60,3.0,3,0.8881664084300918
4.375,0.2607685857914563,117.78623296545425,0,60,3.0,3,0.9479113638930411
4.38,0.2820129681603682,119.40984825503094,0,60,3.0,3,0.9861140765889632
4.385,0.30258482867153996,120.0,0,60,3.0,3,1.0
4.39,0.3220990771751686,119.5160061135284,0,60,3.0,3,0.9886119085536096
4.395,0.3401700499968971,117.99966259133913,0,60,3.0,3,0.9529332374432736
4.4,0.3564239911198326,115.57011308967998,0,60,3.0,3,0.8957673668159994
4.405,0.3705118017738417,112.40924080138602,0,60,3.0,3,0.8213939012090828
4.41,0.3821214567925213,108.74008947923315,0,60,3.0,3,0.7350609289231329
4.415,0.39098947374066967,104.80188363205593,0,60,3.0,3,0.6423972619307279
4.42,0.3969108472035567,100.82552814904717,0,60,3.0,3,0.5488359564481687
4.425,0.3997469255491936,97.0130132410624,0,60,3.0,3,0.45912972331911517
4.43,0.3994308076379137,93.5231013335713,0,60,3.0,3,0.37701414902520713
4.435,0.3959699661768434,90.4643185404905,0,60,3.0,3,0.30504278918801164
4.44,0.38944595408114946,87.89493732644314,0,60,3.0,3,0.24458676062219156
4.445,0.38001120995358023,85.82858881956196,0,60,3.0,3,0.19596679575439901
4.45,0.3678831374098315,84.24354173369385,0,60,3.0,3,0.15867157020456107
4.455,0.35333577933796634,83.09355905991723,0,60,3.0,3,0.13161315435099355
4.46,0.33668953221163944,82.31851219968635,0,60,3.0,3,0.11337675763967889
4.465,0.3182994390982644,81.8534471763782,0,60,3.0,3,0.10243405120889874
4.47,0.29854265738230645,81.63539558810754,0,60,3.0,3,0.0973034256025304
4.475,0.2778057157821067,81.60776725230997,0,60,3.0,3,0.09665334711317575
4.48,0.2564721553719815,81.7225659161887,0,60,3.0,3,0.09935449214561645
4.485,0.23491109433464996,81.94090307100727,0,60,3.0,3,0.10449183696487693
4.49,0.21346717185309805,82.23236173414895,0,60,3.0,3,0.1113496878623283
4.495,0.19245222055656455,82.5737228448738,0,60,3.0,3,0.11938171399703057
4.5,0.17213889801761392,82.94746101237237,0,60,3.0,3,0.1281755532322911
4.505,0.15275638501270183,83.34028784104275,0,60,3.0,3,0.13741853743630003
4.51,0.13448814019607322,83.74190129408117,0,60,3.0,3,0.14686826574308645
4.515,0.11747159495449566,84.14400555542274,0,60,3.0,3,0.156329542480535
4.52,0.10179958433370105,84.53960260488017,0,60,3.0,3,0.1656377083501217
4.525,0.08752324394101413,84.9225212845037,0,60,3.0,3,0.17464755963538123
4.53,0.07465606047174059,85.28713521594845,0,60,3.0,3,0.18322671096349302
4.535,0.0631787448609295,85.62822001971128,0,60,3.0,3,0.19125223575791245
4.54,0.05304460019959574,85.94090650370732,0,60,3.0,3,0.19860956479311354
4.545,0.044185078305849994,86.22069530027292,0,60,3.0,3,0.20519283059465698
4.55,0.03651525513023255,86.46350713588414,0,60,3.0,3,0.2109060502560975
4.555,0.0299390014708757,86.66575024332924,0,60,3.0,3,0.21566471160774686
4.56,0.024353677220580638,86.82439202975053,0,60,3.0,3,0.2193974595235418
4.565,0.01965423034339045,86.93702615390892,0,60,3.0,3,0.22204767420962157
4.57,0.015736632374757337,87.00192899594394,0,60,3.0,3,0.22357479990456333
4.575,0.012500627640593535,87.0181014934289,0,60,3.0,3,0.22395532925715061
4.58,0.009851811652115898,86.98529377288109,0,60,3.0,3,0.22318338289131984
4.585,0.007703084175428559,86.90401114067697,0,60,3.0,3,0.2212708503688699
4.59,0.005975544002062424,86.77550094420542,0,60,3.0,3,0.2182470810401275
4.595,0.004598905818663047,86.60172064316458,0,60,3.0,3,0.21415813278034312
4.6,0.0035115256454839104,86.38528817010885,0,60,3.0,3,0.2090656040025612
4.605,0.002660121266303676,86.12941631144672,0,60,3.0,3,0.20304508968109924
4.61,0.0019992692560877024,85.8378333951069,0,60,3.0,3,0.19618431517898585
4.615,0.0014907520044639367,85.5146930147361,0,60,3.0,3,0.18858101211143755
4.62,0.0011028178277539807,85.16447583928647,0,60,3.0,3,0.180340607983211
4.625,0.0008094059938923333,84.79188674208152,0,60,3.0,3,0.17157380569603567
4.63,0.0005893771793717645,84.40175053163802,0,60,3.0,3,0.1623941301561886
4.635,0.0004257792353490551,83.99890948084484,0,60,3.0,3,0.15291551719634927
4.64,0.0003051686392901525,83.58812564108673,0,60,3.0,3,0.14325001508439372
4.645,0.00021699992642659966,83.17399060876907,0,60,3.0,3,0.13350566138280173
4.65,0.00015308884054097838,82.76084500333593,0,60,3.0,3,0.1237845883137866
4.655,0.00010714989329311098,82.35270944151372,0,60,3.0,3,0.11418139862385233
4.66,7.440535854020571e-05,81.95322827731624,0,60,3.0,3,0.1047818418192057
4.665,5.1260276743925106e-05,81.5656268469004,0,60,3.0,3,0.09566180816236236
4.67,3.503659887882241e-05,81.19268243627361,0,60,3.0,3,0.08688664555937915
4.675,2.375894748103639e-05,80.83670870048552,0,60,3.0,3,0.07851079295260038
4.68,1.5984413869232557e-05,80.49955282436576,0,60,3.0,3,0.07057771351448858
4.685,1.0669166579899869e-05,80.18260434212327,0,60,3.0,3,0.06312010216760634
4.69,7.06526633560511e-06,79.88681423671093,0,60,3.0,3,0.05616033498143371
4.695,4.641847214699205e-06,79.61272272561617,0,60,3.0,3,0.049711122955674494
4.7,3.025641074479182e-06,79.3604940089418,0,60,3.0,3,0.043776329622159986
4.705,1.9566278676921314e-06,79.12995620540356,0,60,3.0,3,0.03835191071537786
4.71,1.2553456560008793e-06,78.92064472570667,0,60,3.0,3,0.03342693472250978
4.715,7.990660428214668e-07,78.73184742133546,0,60,3.0,3,0.028984645207893154
4.72,5.046221251618276e-07,78.56264998870968,0,60,3.0,3,0.025003529146110114
4.725,3.1616527078858815e-07,78.41198029133812,0,60,3.0,3,0.021458359796191175
4.73,1.9652884407760343e-07,78.27865047304697,0,60,3.0,3,0.018321187601105078
4.735,1.2120002189836396e-07,78.16139596092438,0,60,3.0,3,0.015562257904103075
4.74,7.415549848886236e-08,78.05891068560801,0,60,3.0,3,0.013150839661364992
4.745,4.501406988770349e-08,77.96987806868721,0,60,3.0,3,0.011055954557346079
4.75,0.0,77.89299753381259,0,60,3.0,3,0.009247000795590352
4.755,0.0,77.8270064830745,0,60,3.0,3,0.007694270189988201
4.76,0.0,77.77069783881038,0,60,3.0,3,0.00636936091318536
4.765,0.0,77.72293338065182,0,60,3.0,3,0.005245491309454685
4.77,0.0,77.6826532075086,0,60,3.0,3,0.004297722529613967
4.775,0.0,77.64888172502401,0,60,3.0,3,0.0035030994123296886
4.78,0.0,77.62073060277085,0,60,3.0,3,0.0028407200651964317
4.785,0.0,77.59739916496626,0,60,3.0,3,0.002291745058029699
4.79,0.0,77.57817267726432,0,60,3.0,3,0.0018393571121016388
4.795,0.0,77.56241897406092,0,60,3.0,3,0.0014686817426098407
4.8,0.0,77.54958383962341,0,60,3.0,3,0.0011666785793743337
4.805,0.0,77.53918551600158,0,60,3.0,3,0.0009220121412136665
4.81,0.0,77.53080866455502,0,60,3.0,3,0.000724909754235876
4.815,0.0,77.52409805909379,0,60,3.0,3,0.0005670131551479538
4.82,0.0,77.51875223963577,0,60,3.0,4,0.0004412291679005541
4.825,0.0,77.51451730867906,0,60,3.0,4,0.0003415837336249564
4.83,0.0,77.51118100820227,0,60,3.0,4,0.00026308254593579797
4.835,0.0,77.50856717638953,0,60,3.0,4,0.000201580620930198
4.84,0.0,77.506530648948,0,60,3.0,4,0.0001536623281882545
4.845,0.0,77.50495264109921,0,60,3.0,4,0.00011653273174608651
4.85,0.0,77.50373662283334,0,60,3.0,4,8.792053725515228e-05
4.855,0.0,77.50280468154695,0,60,3.0,4,6.599250698701219e-05
4.86,0.0,77.50209435230339,0,60,3.0,4,4.927887772677262e-05
4.865,0.0,77.50155588612591,0,60,3.0,4,3.660908531561718e-05
4.87,0.0,77.50114992036497,0,60,3.0,4,2.705694976391308e-05
4.875,0.0,77.50084551167804,0,60,3.0,4,1.989439242439563e-05
4.88,0.0,77.50061849094135,0,60,3.0,4,1.4552728031744396e-05
4.885,0.0,77.50045009994905,0,60,3.0,4,1.0590587036444156e-05
4.89,0.0,77.5003258715694,0,60,3.0,4,7.667566338862825e-06
4.895,0.0,77.50023471771487,0,60,3.0,4,5.522769761763116e-06
4.9,0.0,77.50016819270388,0,60,3.0,4,3.95747538545145e-06
4.905,0.0,77.50011990307587,0,60,3.0,4,2.8212488439962992e-06
4.91,0.0,77.50008503845943,0,60,3.0,4,2.0009049278007082e-06
4.915,0.0,77.5000600015309,0,60,3.0,4,1.4118007270018793e-06
4.92,0.0,77.50004211833227,0,60,3.0,4,9.910195829246839e-07
4.925,0.0,77.50002941317382,0,60,3.0,4,6.920746781200732e-07
4.93,0.0,77.50002043499333,0,60,3.0,4,4.80823372500334e-07
4.935,0.0,77.50001412436717,0,60,3.0,4,3.3233805103972213e-07
4.94,0.001684486749771458,77.50000971237372,0,60,3.0,4,2.2852644058409221e-07
4.945,0.003097557930867117,77.50000664421472,0,60,3.0,4,1.5633446403572795e-07
4.95,0.005475106668887023,77.50000452192985,0,60,3.0,4,1.0639834947730432e-07
4.955,0.00930222931468658,77.50000306172282,0,60,3.0,4,7.204053698681973e-08
4.96,0.01519157517868857,77.50000206238532,0,60,3.0,4,4.8526713418836795e-08
4.965,0.023847336626128316,77.5000013820878,0,60,3.0,4,3.2519712998263834e-08
4.97,0.0359830743700859,77.50000092143212,0,60,3.0,4,2.1680755721450518e-08
4.975,0.05218887796857759,77.50000061115722,0,60,3.0,4,1.4380169860113015e-08
4.98,0.0727577001223134,77.50000040327791,0,60,3.0,4,9.48889197281781e-09
4.985,0.0974992498694751,77.50000026473893,0,60,3.0,4,6.229151281064225e-09
4.99,0.12558706050443358,77.50000017289923,0,60,3.0,4,4.068217282003709e-09
4.995,0.15549263588878245,77.50000011233891,0,60,3.0,4,2.643268464239287e-09
5.0,0.1850529723539114,77.50000007261549,0,60,3.0,4,1.7085998184912194e-09
5.005,0.21169159439317053,77.50000004669712,0,60,3.0,4,1.0987558679891449e-09
5.01,0.23277292922115492,77.50000002987535,0,60,3.0,4,7.029494581194526e-10
5.015,0.24602692519491282,77.50000001901506,0,60,3.0,4,4.474132123612114e-10
5.02,0.24995056064839283,77.50000001204049,0,60,3.0,4,2.833055933639544e-10
5.025,0.24408826520424054,77.50000000758494,0,60,3.0,4,1.7846927595896618e-10
5.03,0.22911894216865275,77.5000000047536,0,60,3.0,4,1.1184945780020345e-10
5.035,0.20672661788705934,77.50000000296384,0,60,3.0,4,6.9737512496752e-11
5.04,0.17928878030241233,77.50000000183844,0,60,3.0,4,4.325750738002278e-11
5.045,0.14946211903866036,77.5000000011345,0,60,3.0,4,2.6694003870087567e-11
5.05,0.1197651512573837,77.5000000006965,0,60,3.0,4,1.6388292030623073e-11
5.055,0.09224675744988023,77.5000000004254,0,60,3.0,4,1.0009457315284047e-11
5.06,0.06829565320281596,77.5000000002585,0,60,3.0,4,6.0822458181064576e-12
5.065,0.04860224607515734,77.50000000015626,0,60,3.0,4,3.676766081137912e-12
5.07,0.03324612389699793,77.50000000009398,0,60,3.0,4,2.2112089936854317e-12
5.075,0.021859876340472782,77.50000000005623,0,60,3.0,4,1.3231141672483372e-12
5.08,0.01381595518554205,77.50000000003347,0,60,3.0,4,7.874485377482522e-13
5.085,0.008394095110402422,77.50000000001982,0,60,3.0,4,4.664504077107481e-13
5.09,0.0049052535271608,77.50000000001168,0,60,3.0,4,2.7485464884461285e-13
5.095,0.0027671663551903634,77.50000000000685,0,60,3.0,4,1.6116781112299685e-13
5.1,0.0015425553464444616,77.500000000004,0,60,3.0,4,9.395882764639442e-14
5.105,0.0009638206637011801,77.50000000000232,0,60,3.0,4,5.4502807495951216e-14
5.11,0.0009804935156568228,77.50000000000134,0,60,3.0,4,3.143106689950561e-14
5.115,0.0018793744894085216,77.50000000000077,0,60,3.0,4,1.8056144814609604e-14
5.12,0.004535525206900863,77.50000000000044,0,60,3.0,4,1.0365564615794402e-14
5.125,0.010832767979632273,77.50000000000024,0,60,3.0,4,5.684341886080802e-15
5.13,0.024208003392322392,77.50000000000014,0,60,3.0,4,3.343730521224001e-15
5.135,0.0500971897335304,77.50000000000009,0,60,3.0,4,2.0062383127344005e-15
5.14,0.09582894921774403,77.50000000000004,0,60,3.0,4,1.0031191563672002e-15
5.145,0.16937896721820658,77.50000000000003,0,60,3.0,4,6.687461042448002e-16
5.15,0.27661303008991756,77.50000000000001,0,60,3.0,4,3.343730521224001e-16
5.155,0.4173782800009149,77.5,0,60,3.0,4,0.0
5.16,0.5818720934538056,77.5,0,60,3.0,4,0.0
5.165,0.7494718801585675,77.5,0,60,3.0,4,0.0
5.17,0.891813020752378,77.5,0,60,3.0,4,0.0
5.175,0.9800361632936612,77.5,0,60,3.0,4,0.0
5.18,0.993574479225126,77.50000249181176,1,60,3.0,4,5.863086484810885e-08
5.185,0.9263438449375362,77.50000384183856,0,60,3.0,4,9.039620147846375e-08
5.19,0.7873015962290536,77.50000605203118,0,60,3.0,4,1.4240073369364837e-07
5.195,0.5959516244629897,77.5000098502643,0,60,3.0,4,2.317709248365966e-07
5.2,0.376910120078773,77.50001674040978,0,60,3.0,4,3.9389199474392037e-07
5.205,0.15739335672107918,77.50002988936268,0,60,3.0,4,7.032791218615089e-07
5.21,-0.033361226269301235,77.50005598658028,0,60,3.0,4,1.3173313006705832e-06
5.215,-0.1680180840843834,77.50010904250446,0,60,3.0,4,2.565705987348445e-06
5.22,-0.23069703190837854,77.50021792763697,0,60,3.0,4,5.127709105114691e-06
5.225,-0.22587267821131068,77.50044088337641,0,60,3.0,4,1.0373726503838256e-05
5.23,-0.17718181630665902,77.50089256449868,0,60,3.0,4,2.1001517616107722e-05
5.235,-0.11494332516451301,77.50179276579377,0,60,3.0,4,4.218272455920455e-05
5.24,-0.061810214049552864,77.50355118942913,0,60,3.0,4,8.355739833251285e-05
5.245,-0.026546104631500547,77.50690959240086,0,60,3.0,4,0.00016257864472610142
5.25,-0.00719600351942686,77.51317112223475,0,60,3.0,4,0.00030990875846475104
5.255,0.0022072757983807078,77.52455545137923,0,60,3.0,4,0.0005777753265700834
5.26,0.006917199873730717,77.54472497706796,0,60,3.0,4,0.0010523524015990033
5.265,0.01004859748264829,77.57952766654348,0,60,3.0,4,0.001871239212787861
5.27,0.013037082251128167,77.63799012210991,0,60,3.0,4,0.0032468264025861597
5.275,0.01645163937690478,77.7335629797193,0,60,3.0,4,0.005495599522806943
5.28,0.020526639934696615,77.88556318136334,0,60,3.0,4,0.009072074855607954
5.285,0.02539629541761738,78.12067063847793,0,60,3.0,4,0.014604015023010173
5.29,0.031171612185577933,78.47422412231587,0,60,3.0,4,0.022922920525079396
5.295,0.03795853426638131,78.99093771170499,0,60,3.0,4,0.03508088733423499
5.3,0.0458588961882057,79.72455313644113,0,60,3.0,4,0.05234242673979131
5.305,0.054966995891435555,80.7358957043249,0,60,3.0,4,0.07613872245470361
5.31,0.06536491004445595,82.08885917455554,0,60,3.0,4,0.10797315704836559
5.315,0.07711726085088699,83.84404871167135,0,60,3.0,4,0.149271734392267
5.32,0.09026570629555215,86.05017854498587,0,60,3.0,4,0.20118067164672632
5.325,0.10482339848670268,88.73382931864452,0,60,3.0,4,0.26432539573281233
5.33,0.12076968927580028,91.88874480991677,0,60,3.0,4,0.33855870140980643
5.335,0.13804539501007884,95.46636445671342,0,60,3.0,4,0.4227379872167864
5.34,0.15654895051787066,99.36959295544153,0,60,3.0,4,0.5145786577750949
5.345,0.17613378141900526,103.45175485582882,0,60,3.0,4,0.6106295260195017
5.35,0.19660720058055794,107.5221797930646,0,60,3.0,4,0.7064042304250493
5.355,0.21773108748496234,111.35892106398657,0,60,3.0,4,0.7966804956232134
5.36,0.23922453870058807,114.72785713078791,0,60,3.0,4,0.8759495795479508
5.365,0.2607685857914563,117.40610393874456,0,60,3.0,4,0.9389671514998721
5.37,0.2820129681603682,119.20657953132158,0,60,3.0,4,0.9813312830899196
5.375,0.30258482867153996,120.0,0,60,3.0,4,1.0
5.38,0.3220990771751686,119.73073626244305,0,60,3.0,4,0.9936643826457188
5.385,0.3401700499968971,118.4238494759471,0,60,3.0,4,0.9629141053164022
5.39,0.3564239911198326,116.18208945321945,0,60,3.0,4,0.910166810663987
5.395,0.3705118017738417,113.1733745291447,0,60,3.0,4,0.8393735183328164
5.4,0.3821214567925213,109.61089082664786,0,60,3.0,4,0.7555503723917144
5.405,0.39098947374066967,105.7291023657552,0,60,3.0,4,0.6642141733118869
5.41,0.3969108472035567,101.75942264604797,0,60,3.0,4,0.5708099446128934
5.415,0.3997469255491936,97.90901232617857,0,60,3.0,4,0.4802120547336134
5.42,0.3994308076379137,94.34526416670559,0,60,3.0,4,0.39635915686366097
5.425,0.3959699661768434,91.18727314888353,0,60,3.0,4,0.3220534858560832
5.43,0.38944595408114946,88.50427463175579,0,60,3.0,4,0.2589241089824892
5.435,0.38001120995358023,86.3199414541806,0,60,3.0,4,0.20752803421601396
5.44,0.3678831374098315,84.62074135275094,0,60,3.0,4,0.16754685535884564
5.445,0.35333577933796634,83.36632600348436,0,60,3.0,4,0.13803120008198494
5.45,0.33668953221163944,82.5000975498113,0,60,3.0,4,0.11764935411320708
5.455,0.3182994390982644,81.95854814001777,0,60,3.0,4,0.1049070150592416
5.46,0.29854265738230645,81.67853656537754,0,60,3.0,4,0.09831850742064803
5.465,0.2778057157821067,81.60221366217804,0,60,3.0,4,0.09652267440418928
5.47,0.2564721553719815,81.67973868879486,0,60,3.0,4,0.09834679267752602
5.475,0.23491109433464996,81.87019922391292,0,60,3.0,4,0.10282821703324517
5.48,0.21346717185309805,82.14126026801704,0,60,3.0,4,0.109206123953342
5.485,0.19245222055656455,82.46805768409277,0,60,3.0,4,0.11689547491982988
5.49,0.17213889801761392,82.83176315010746,0,60,3.0,4,0.12545325059076384
5.495,0.15275638501270183,83.21812687136497,0,60,3.0,4,0.13454416167917582
5.5,0.13448814019607322,83.61618424954153,0,60,3.0,4,0.14391021763627135
5.505,0.11747159495449566,84.01721373745077,0,60,3.0,4,0.15334620558707704
5.51,0.10179958433370105,84.41396310723198,0,60,3.0,4,0.16268148487604656
5.515,0.08752324394101413,84.80011942466255,0,60,3.0,4,0.17176751587441305
5.52,0.07465606047174059,85.1699784655929,0,60,3.0,4,0.18047008154336247
5.525,0.0631787448609295,85.51826494996435,0,60,3.0,4,0.18866505764621994
5.53,0.05304460019959574,85.840059253804,0,60,3.0,4,0.1962366883248
5.535,0.044185078305849994,86.13079426679849,0,60,3.0,4,0.20307751215996445
5.54,0.03651525513023255,86.38629466659549,0,60,3.0,4,0.20908928627283505
5.545,0.0299390014708757,86.60283845793114,0,60,3.0,4,0.21418443430426218
5.55,0.024353677220580638,86.77722659458583,0,60,3.0,4,0.21828768457849004
5.555,0.01965423034339045,86.90685088831356,0,60,3.0,4,0.22133766796031898
5.56,0.015736632374757337,86.98975350722205,0,60,3.0,4,0.22328831781698935
5.565,0.012500627640593535,87.02467353697683,0,60,3.0,4,0.22410996557592552
5.57,0.009851811652115898,87.0110776394444,0,60,3.0,4,0.223790062104574
5.575,0.007703084175428559,86.94917303121116,0,60,3.0,4,0.2223334830873214
5.58,0.005975544002062424,86.83990197261397,0,60,3.0,4,0.2197623993556229
5.585,0.004598905818663047,86.68491779355341,0,60,3.0,4,0.21611571278949201
5.59,0.0035115256454839104,86.4865432253902,0,60,3.0,4,0.21144807589153394
5.595,0.002660121266303676,86.2477124690008,0,60,3.0,4,0.20582852868237184
5.6,0.0019992692560877024,85.9718990017495,0,60,3.0,4,0.19933880004116483
5.605,0.0014907520044639367,85.66303159799958,0,60,3.0,4,0.1920713317176371
5.61,0.0011028178277539807,85.32540139533346,0,60,3.0,4,0.1841270916549049
5.615,0.0008094059938923333,84.96356307129537,0,60,3.0,4,0.1756132487363616
5.62,0.0005893771793717645,84.58223329764274,0,60,3.0,4,0.16664078347394692
5.625,0.0004257792353490551,84.18618961118601,0,60,3.0,4,0.15732210849849432
5.63,0.0003051686392901525,83.78017268883372,0,60,3.0,4,0.14776876914902862
5.635,0.00021699992642659966,83.36879475167348,0,60,3.0,4,0.13808928827467004
5.64,0.00015308884054097838,82.95645646592097,0,60,3.0,4,0.12838721096284625
5.645,0.00010714989329311098,82.5472742782177,0,60,3.0,4,0.11875939478159292
5.65,7.440535854020571e-05,82.1450196423469,0,60,3.0,4,0.10929457981992695
5.655,5.1260276743925106e-05,81.75307108830053,0,60,3.0,4,0.10007226090118894
5.66,3.503659887882241e-05,81.37437957677281,0,60,3.0,4,0.09116187239465436
5.665,2.375894748103639e-05,81.01144709498455,0,60,3.0,4,0.08262228458787169
5.67,1.5984413869232557e-05,80.66631800298667,0,60,3.0,4,0.0745016000702746
5.675,1.0669166579899869e-05,80.34058224944994,0,60,3.0,4,0.06683722939882206
5.68,7.06526633560511e-06,80.03538925452028,0,60,3.0,4,0.059656217753418415
5.685,4.641847214699205e-06,79.75147101231343,0,60,3.0,4,0.0529757885250219
5.69,3.025641074479182e-06,79.4891728003454,0,60,3.0,4,0.046804065890480015
5.695,1.9566278676921314e-06,79.24848979680112,0,60,3.0,4,0.041140936395320564
5.7,1.2553456560008793e-06,79.02910789449058,0,60,3.0,4,0.035979009282131276
5.705,7.990660428214668e-07,78.8304470550233,0,60,3.0,4,0.03130463658878351
5.71,5.046221251618276e-07,78.65170565820313,0,60,3.0,4,0.027098956663602996
5.715,3.1616527078858815e-07,78.49190445841805,0,60,3.0,4,0.02333892843336584
5.72,1.9652884407760343e-07,78.34992894961812,0,60,3.0,4,0.01999832822630865
5.725,1.2120002189836396e-07,78.22456915105091,0,60,3.0,4,0.017048685907080346
5.73,7.415549848886236e-08,78.11455604558064,0,60,3.0,4,0.014460142248956278
5.735,4.501406988770349e-08,78.018594120612,0,60,3.0,4,0.01220221460263514
5.74,0.0,77.93538966935525,0,60,3.0,4,0.010244462808358723
5.745,0.0,77.86367470016516,0,60,3.0,4,0.008557051768592066
5.75,0.0,77.80222646861542,0,60,3.0,4,0.00711121102624508
5.755,0.0,77.74988278736755,0,60,3.0,4,0.0058795949968836175
5.76,0.0,77.70555338106993,0,60,3.0,4,0.004836550142821954
5.765,0.0,77.66822763736607,0,60,3.0,4,0.0039582973497899465
5.77,0.0,77.63697916182198,0,60,3.0,4,0.0032230391016937307
5.775,0.0,77.61096757646521,0,60,3.0,4,0.0026110017991815017
5.78,0.0,77.58943801168321,0,60,3.0,4,0.002104423804310914
5.785,0.0,77.57171873294385,0,60,3.0,4,0.0016874995986788288
5.79,0.0,77.55721732087633,0,60,3.0,4,0.0013462899029725443
5.795,0.0,77.54541578936765,0,60,3.0,4,0.0010686068086506431
5.8,0.0,77.53586498497702,0,60,3.0,4,0.0008438819994594001
5.805,0.0,77.52817856529884,0,60,3.0,4,0.0006630250658551685
5.81,0.0,77.52202680664169,0,60,3.0,4,0.0005182778033338978
5.815,0.0,77.5171304447848,0,60,3.0,4,0.0004030692890540542
5.82,0.0,77.51325470838246,0,60,3.0,4,0.0003118754913520447
5.825,0.0,77.51020366409061,0,60,3.0,4,0.00024008621389672204
5.83,0.0,77.50781495653038,0,60,3.0,4,0.00018388133012663008
5.835,0.0,77.50595499523384,0,60,3.0,4,0.00014011753491378358
5.84,0.0,77.50451461486995,0,60,3.0,4,0.00010622623223405433
5.845,0.0,77.50340521419459,0,60,3.0,4,8.012268693144452e-05
5.85,0.0,77.50255536298914,0,60,3.0,4,6.012618797981037e-05
5.855,0.0,77.50190785429267,0,60,3.0,4,4.489068923924285e-05
5.86,0.0,77.50141717096078,0,60,3.0,4,3.334519907712895e-05
5.865,0.0,77.50104733043376,0,60,3.0,4,2.4643069029734227e-05
5.87,0.0,77.50077006899966,0,60,3.0,4,1.811927058016034e-05
5.875,0.0,77.50056332625815,0,60,3.0,4,1.3254735485776002e-05
5.88,0.0,77.50040999143872,0,60,3.0,4,9.646857381540031e-06
5.885,0.0,77.50029687526775,0,60,3.0,4,6.985300417655333e-06
5.89,0.0,77.50021387384992,0,60,3.0,4,5.032325880366068e-06
5.895,0.0,77.50015329422482,0,60,3.0,4,3.6069229368502634e-06
5.9,0.0,77.50010931464227,0,60,3.0,4,2.5721092299590965e-06
5.905,0.0,77.50007755598538,0,60,3.0,4,1.824846714939935e-06
5.91,0.0,77.50005474402688,0,60,3.0,4,1.288094750193255e-06
5.915,0.0,77.50003844524194,0,60,3.0,4,9.045939280253258e-07
5.92,0.0,77.50002686166287,0,60,3.0,4,6.320391264580394e-07
5.925,0.0,77.50001867272185,0,60,3.0,4,4.393581611887331e-07
5.93,0.0,77.50001291417894,0,60,3.0,4,3.0386303385111047e-07
5.935,0.001684486749771458,77.5000088860839,0,60,3.0,4,2.0908432715901547e-07
5.94,0.003097557930867117,77.50000608328911,0,60,3.0,4,1.431362143060088e-07
5.945,0.005475106668887023,77.50000414334353,0,60,3.0,4,9.7490436032518e-08
5.95,0.00930222931468658,77.50000280768167,0,60,3.0,4,6.606309806128968e-08
5.955,0.01519157517868857,77.50000189290678,0,60,3.0,4,4.453898307420947e-08
5.96,0.023847336626128316,77.50000126968219,0,60,3.0,4,2.9874874986917885e-08
5.965,0.0359830743700859,77.50000084731572,0,60,3.0,4,1.9936840424313284e-08
5.97,0.05218887796857759,77.50000056257437,0,60,3.0,4,1.3237044025599436e-08
5.975,0.0727577001223134,77.50000037161998,0,60,3.0,4,8.743999427786228e-09
5.98,0.0974992498694751,77.50000024423203,0,60,3.0,4,5.7466359200642566e-09
5.985,0.12558706050443358,77.50000015969474,0,60,3.0,4,3.757523191940409e-09
5.99,0.15549263588878245,77.50000010388743,0,60,3.0,4,2.444410122681053e-09
5.995,0.1850529723539114,77.50000006723879,0,60,3.0,4,1.5820891054746051e-09
6.0,0.21169159439317053,77.50000004329733,0,60,3.0,4,1.018760793372434e-09
6.005,0.23277292922115492,77.50000002773875,0,60,3.0,4,6.526764697328498e-10
6.01,0.24602692519491282,77.5000000176806,0,60,3.0,4,4.1601424527470956e-10
6.015,0.24995056064839283,77.50000001121222,0,60,3.0,4,2.6381699439405244e-10
6.02,0.24408826520424054,77.50000000707409,0,60,3.0,4,1.6644923348127014e-10
6.025,0.22911894216865275,77.50000000444052,0,60,3.0,5,1.0448288508889484e-10
6.03,0.20672661788705934,77.5000000027732,0,60,3.0,5,6.525189800253001e-11
6.035,0.17928878030241233,77.50000000172311,0,60,3.0,5,4.054373568899738e-11
6.04,0.14946211903866036,77.5000000010652,0,60,3.0,5,2.5063600867938744e-11
6.045,0.1197651512573837,77.50000000065513,0,60,3.0,5,1.5414932075894767e-11
6.05,0.09224675744988023,77.50000000040089,0,60,3.0,5,9.432663800372906e-12
6.055,0.06829565320281596,77.50000000024406,0,60,3.0,5,5.7425227971500995e-12
6.06,0.04860224607515734,77.50000000014782,0,60,3.0,5,3.4781484881772057e-12
6.065,0.03324612389699793,77.50000000008907,0,60,3.0,5,2.0958502907032036e-12
6.07,0.021859876340472782,77.5000000000534,0,60,3.0,5,1.2565739298759795e-12
6.075,0.01381595518554205,77.50000000003186,0,60,3.0,5,7.49664382858421e-13
6.08,0.008394095110402422,77.5000000000189,0,60,3.0,5,4.447161593227921e-13
6.085,0.0049052535271608,77.50000000001116,0,60,3.0,5,2.6248284591608404e-13
6.09,0.0027671663551903634,77.50000000000655,0,60,3.0,5,1.5414597702842645e-13
6.095,0.0015425553464444616,77.50000000000384,0,60,3.0,5,9.028072407304802e-14
6.1,0.0009638206637011801,77.50000000000223,0,60,3.0,5,5.2496569183216817e-14
6.105,0.0009804935156568228,77.5000000000013,0,60,3.0,5,3.042794774313841e-14
6.11,0.0018793744894085216,77.50000000000074,0,60,3.0,5,1.7387398710364806e-14
6.115,0.004535525206900863,77.50000000000043,0,60,3.0,5,1.0031191563672003e-14
6.12,0.010832767979632273,77.50000000000024,0,60,3.0,5,5.684341886080802e-15
6.125,0.024208003392322392,77.50000000000014,0,60,3.0,5,3.343730521224001e-15
6.13,0.0500971897335304,77.50000000000007,0,60,3.0,5,1.6718652606120004e-15
6.135,0.09582894921774403,77.50000000000004,0,60,3.0,5,1.0031191563672002e-15
6.14,0.16937896721820658,77.50000000000003,0,60,3.0,5,6.687461042448002e-16
6.145,0.27661303008991756,77.50000000000001,0,60,3.0,5,3.343730521224001e-16
6.15,0.4173782800009149,77.5,0,60,3.0,5,0.0
6.155,0.5818720934538056,77.5,0,60,3.0,5,0.0
6.16,0.7494718801585675,77.5,0,60,3.0,5,0.0
6.165,0.891813020752378,77.5,0,60,3.0,5,0.0
6.17,0.9800361632936612,77.5,0,60,3.0,5,0.0
6.175,0.993574479225126,77.50000249181176,1,60,3.0,5,5.863086484810885e-08
6.18,0.9263438449375362,77.50000384183856,0,60,3.0,5,9.039620147846375e-08
6.185,0.7873015962290536,77.50000605203118,0,60,3.0,5,1.4240073369364837e-07
6.19,0.5959516244629897,77.5000098502643,0,60,3.0,5,2.317709248365966e-07
6.195,0.376910120078773,77.50001674040978,0,60,3.0,5,3.9389199474392037e-07
6.2,0.15739335672107918,77.50002988936268,0,60,3.0,5,7.032791218615089e-07
6.205,-0.033361226269301235,77.50005598658028,0,60,3.0,5,1.3173313006705832e-06
6.21,-0.1680180840843834,77.50010904250446,0,60,3.0,5,2.565705987348445e-06
6.215,-0.23069703190837854,77.50021792763697,0,60,3.0,5,5.127709105114691e-06
6.22,-0.22587267821131068,77.50044088337641,0,60,3.0,5,1.0373726503838256e-05
6.225,-0.17718181630665902,77.50089256449868,0,60,3.0,5,2.1001517616107722e-05
6.23,-0.11494332516451301,77.50179276579377,0,60,3.0,5,4.218272455920455e-05
6.235,-0.061810214049552864,77.50355118942913,0,60,3.0,5,8.355739833251285e-05
6.24,-0.026546104631500547,77.50690959240086,0,60,3.0,5,0.00016257864472610142
6.245,-0.00719600351942686,77.51317112223475,0,60,3.0,5,0.00030990875846475104
6.25,0.0022072757983807078,77.52455545137923,0,60,3.0,5,0.0005777753265700834
6.255,0.006917199873730717,77.54472497706796,0,60,3.0,5,0.0010523524015990033
6.26,0.01004859748264829,77.57952766654348,0,60,3.0,5,0.001871239212787861
6.265,0.013037082251128167,77.63799012210991,0,60,3.0,5,0.0032468264025861597
6.27,0.01645163937690478,77.7335629797193,0,60,3.0,5,0.005495599522806943
6.275,0.020526639934696615,77.88556318136334,0,60,3.0,5,0.009072074855607954
6.28,0.02539629541761738,78.12067063847793,0,60,3.0,5,0.014604015023010173
6.285,0.031171612185577933,78.47422412231587,0,60,3.0,5,0.022922920525079396
6.29,0.03795853426638131,78.99093771170499,0,60,3.0,5,0.03508088733423499
6.295,0.0458588961882057,79.72455313644113,0,60,3.0,5,0.05234242673979131
6.3,0.054966995891435555,80.7358957043249,0,60,3.0,5,0.07613872245470361
6.305,0.06536491004445595,82.08885917455554,0,60,3.0,5,0.10797315704836559
6.31,0.07711726085088699,83.84404871167135,0,60,3.0,5,0.149271734392267
6.315,0.09026570629555215,86.05017854498587,0,60,3.0,5,0.20118067164672632
6.32,0.10482339848670268,88.73382931864452,0,60,3.0,5,0.26432539573281233
6.325,0.12076968927580028,91.88874480991677,0,60,3.0,5,0.33855870140980643
6.33,0.13804539501007884,95.46636445671342,0,60,3.0,5,0.4227379872167864
6.335,0.15654895051787066,99.36959295544153,0,60,3.0,5,0.5145786577750949
6.34,0.17613378141900526,103.45175485582882,0,60,3.0,5,0.6106295260195017
6.345,0.19660720058055794,107.5221797930646,0,60,3.0,5,0.7064042304250493
6.35,0.21773108748496234,111.35892106398657,0,60,3.0,5,0.7966804956232134
6.355,0.23922453870058807,114.72785713078791,0,60,3.0,5,0.8759495795479508
6.36,0.2607685857914563,117.40610393874456,0,60,3.0,5,0.9389671514998721
6.365,0.2820129681603682,119.20657953132158,0,60,3.0,5,0.9813312830899196
6.37,0.30258482867153996,120.0,0,60,3.0,5,1.0
6.375,0.3220990771751686,119.73073626244305,0,60,3.0,5,0.9936643826457188
6.38,0.3401700499968971,118.4238494759471,0,60,3.0,5,0.9629141053164022
6.385,0.3564239911198326,116.18208945321945,0,60,3.0,5,0.910166810663987
6.39,0.3705118017738417,113.1733745291447,0,60,3.0,5,0.8393735183328164
6.395,0.3821214567925213,109.61089082664786,0,60,3.0,5,0.7555503723917144
6.4,0.39098947374066967,105.7291023657552,0,60,3.0,5,0.6642141733118869
6.405,0.3969108472035567,101.75942264604797,0,60,3.0,5,0.5708099446128934
6.41,0.3997469255491936,97.90901232617857,0,60,3.0,5,0.4802120547336134
6.415,0.3994308076379137,94.34526416670559,0,60,3.0,5,0.39635915686366097
6.42,0.3959699661768434,91.18727314888353,0,60,3.0,5,0.3220534858560832
6.425,0.38944595408114946,88.50427463175579,0,60,3.0,5,0.2589241089824892
6.43,0.38001120995358023,86.3199414541806,0,60,3.0,5,0.20752803421601396
6.435,0.3678831374098315,84.62074135275094,0,60,3.0,5,0.16754685535884564
6.44,0.35333577933796634,83.36632600348436,0,60,3.0,5,0.13803120008198494
6.445,0.33668953221163944,82.5000975498113,0,60,3.0,5,0.11764935411320708
6.45,0.3182994390982644,81.95854814001777,0,60,3.0,5,0.1049070150592416
6.455,0.29854265738230645,81.67853656537754,0,60,3.0,5,0.09831850742064803
6.46,0.2778057157821067,81.60221366217804,0,60,3.0,5,0.09652267440418928
6.465,0.2564721553719815,81.67973868879486,0,60,3.0,5,0.09834679267752602
6.47,0.23491109433464996,81.87019922391292,0,60,3.0,5,0.10282821703324517
6.475,0.21346717185309805,82.14126026801704,0,60,3.0,5,0.109206123953342
6.48,0.19245222055656455,82.46805768409277,0,60,3.0,5,0.11689547491982988
6.485,0.17213889801761392,82.83176315010746,0,60,3.0,5,0.12545325059076384
6.49,0.15275638501270183,83.21812687136497,0,60,3.0,5,0.13454416167917582
6.495,0.13448814019607322,83.61618424954153,0,60,3.0,5,0.14391021763627135
6.5,0.11747159495449566,84.01721373745077,0,60,3.0,5,0.15334620558707704
6.505,0.10179958433370105,84.41396310723198,0,60,3.0,5,0.16268148487604656
6.51,0.08752324394101413,84.80011942466255,0,60,3.0,5,0.17176751587441305
6.515,0.07465606047174059,85.1699784655929,0,60,3.0,5,0.18047008154336247
6.52,0.0631787448609295,85.51826494996435,0,60,3.0,5,0.18866505764621994
6.525,0.05304460019959574,85.840059253804,0,60,3.0,5,0.1962366883248
6.53,0.044185078305849994,86.13079426679849,0,60,3.0,5,0.20307751215996445
6.535,0.03651525513023255,86.38629466659549,0,60,3.0,5,0.20908928627283505
6.54,0.0299390014708757,86.60283845793114,0,60,3.0,5,0.21418443430426218
6.545,0.024353677220580638,86.77722659458583,0,60,3.0,5,0.21828768457849004
6.55,0.01965423034339045,86.90685088831356,0,60,3.0,5,0.22133766796031898
6.555,0.015736632374757337,86.98975350722205,0,60,3.0,5,0.22328831781698935
6.56,0.012500627640593535,87.02467353697683,0,60,3.0,5,0.22410996557592552
6.565,0.009851811652115898,87.0110776394444,0,60,3.0,5,0.223790062104574
6.57,0.007703084175428559,86.94917303121116,0,60,3.0,5,0.2223334830873214
6.575,0.005975544002062424,86.83990197261397,0,60,3.0,5,0.2197623993556229
6.58,0.004598905818663047,86.68491779355341,0,60,3.0,5,0.21611571278949201
6.585,0.0035115256454839104,86.4865432253902,0,60,3.0,5,0.21144807589153394
6.59,0.002660121266303676,86.2477124690008,0,60,3.0,5,0.20582852868237184
6.595,0.0019992692560877024,85.9718990017495,0,60,3.0,5,0.19933880004116483
6.6,0.0014907520044639367,85.66303159799958,0,60,3.0,5,0.1920713317176371
6.605,0.0011028178277539807,85.32540139533346,0,60,3.0,5,0.1841270916549049
6.61,0.0008094059938923333,84.96356307129537,0,60,3.0,5,0.1756132487363616
6.615,0.0005893771793717645,84.58223329764274,0,60,3.0,5,0.16664078347394692
6.62,0.0004257792353490551,84.18618961118601,0,60,3.0,5,0.15732210849849432
6.625,0.0003051686392901525,83.78017268883372,0,60,3.0,5,0.14776876914902862
6.63,0.00021699992642659966,83.36879475167348,0,60,3.0,5,0.13808928827467004
6.635,0.00015308884054097838,82.95645646592097,0,60,3.0,5,0.12838721096284625
6.64,0.00010714989329311098,82.5472742782177,0,60,3.0,5,0.11875939478159292
6.645,7.440535854020571e-05,82.1450196423469,0,60,3.0,5,0.10929457981992695
6.65,5.1260276743925106e-05,81.75307108830053,0,60,3.0,5,0.10007226090118894
6.655,3.503659887882241e-05,81.37437957677281,0,60,3.0,5,0.09116187239465436
6.66,2.375894748103639e-05,81.01144709498455,0,60,3.0,5,0.08262228458787169
6.665,1.5984413869232557e-05,80.66631800298667,0,60,3.0,5,0.0745016000702746
6.67,1.0669166579899869e-05,80.34058224944994,0,60,3.0,5,0.06683722939882206
6.675,7.06526633560511e-06,80.03538925452028,0,60,3.0,5,0.059656217753418415
6.68,4.641847214699205e-06,79.75147101231343,0,60,3.0,5,0.0529757885250219
6.685,3.025641074479182e-06,79.4891728003454,0,60,3.0,5,0.046804065890480015
6.69,1.9566278676921314e-06,79.24848979680112,0,60,3.0,5,0.041140936395320564
6.695,1.2553456560008793e-06,79.02910789449058,0,60,3.0,5,0.035979009282131276
6.7,7.990660428214668e-07,78.8304470550233,0,60,3.0,5,0.03130463658878351
6.705,5.046221251618276e-07,78.65170565820313,0,60,3.0,5,0.027098956663602996
6.71,3.1616527078858815e-07,78.49190445841805,0,60,3.0,5,0.02333892843336584
6.715,1.9652884407760343e-07,78.34992894961812,0,60,3.0,5,0.01999832822630865
6.72,1.2120002189836396e-07,78.22456915105091,0,60,3.0,5,0.017048685907080346
6.725,7.415549848886236e-08,78.11455604558064,0,60,3.0,5,0.014460142248956278
6.73,4.501406988770349e-08,78.018594120612,0,60,3.0,5,0.01220221460263514
6.735,0.0,77.93538966935525,0,60,3.0,5,0.010244462808358723
6.74,0.0,77.86367470016516,0,60,3.0,5,0.008557051768592066
6.745,0.0,77.80222646861542,0,60,3.0,5,0.00711121102624508
6.75,0.0,77.74988278736755,0,60,3.0,5,0.0058795949968836175
6.755,0.0,77.70555338106993,0,60,3.0,5,0.004836550142821954
6.76,0.0,77.66822763736607,0,60,3.0,5,0.0039582973497899465
6.765,0.0,77.63697916182198,0,60,3.0,5,0.0032230391016937307
6.77,0.0,77.61096757646521,0,60,3.0,5,0.0026110017991815017
6.775,0.0,77.58943801168321,0,60,3.0,5,0.002104423804310914
6.78,0.0,77.57171873294385,0,60,3.0,5,0.0016874995986788288
6.785,0.0,77.55721732087633,0,60,3.0,5,0.0013462899029725443
6.79,0.0,77.54541578936765,0,60,3.0,5,0.0010686068086506431
6.795,0.0,77.53586498497702,0,60,3.0,5,0.0008438819994594001
6.8,0.0,77.52817856529884,0,60,3.0,5,0.0006630250658551685
6.805,0.0,77.52202680664169,0,60,3.0,5,0.0005182778033338978
6.81,0.0,77.5171304447848,0,60,3.0,5,0.0004030692890540542
6.815,0.0,77.51325470838246,0,60,3.0,5,0.0003118754913520447
6.82,0.0,77.51020366409061,0,60,3.0,5,0.00024008621389672204
6.825,0.0,77.50781495653038,0,60,3.0,5,0.00018388133012663008
6.83,0.0,77.50595499523384,0,60,3.0,5,0.00014011753491378358
6.835,0.0,77.50451461486995,0,60,3.0,5,0.00010622623223405433
6.84,0.0,77.50340521419459,0,60,3.0,5,8.012268693144452e-05
6.845,0.0,77.50255536298914,0,60,3.0,5,6.012618797981037e-05
6.85,0.0,77.50190785429267,0,60,3.0,5,4.489068923924285e-05
6.855,0.0,77.50141717096078,0,60,3.0,5,3.334519907712895e-05
6.86,0.0,77.50104733043376,0,60,3.0,5,2.4643069029734227e-05
6.865,0.0,77.50077006899966,0,60,3.0,5,1.811927058016034e-05
6.87,0.0,77.50056332625815,0,60,3.0,5,1.3254735485776002e-05
6.875,0.0,77.50040999143872,0,60,3.0,5,9.646857381540031e-06
6.88,0.0,77.50029687526775,0,60,3.0,5,6.985300417655333e-06
6.885,0.0,77.50021387384992,0,60,3.0,5,5.032325880366068e-06
6.89,0.0,77.50015329422482,0,60,3.0,5,3.6069229368502634e-06
6.895,0.0,77.50010931464227,0,60,3.0,5,2.5721092299590965e-06
6.9,0.0,77.50007755598538,0,60,3.0,5,1.824846714939935e-06
6.905,0.0,77.50005474402688,0,60,3.0,5,1.288094750193255e-06
6.91,0.0,77.50003844524194,0,60,3.0,5,9.045939280253258e-07
6.915,0.0,77.50002686166287,0,60,3.0,5,6.320391264580394e-07
6.92,0.0,77.50001867272185,0,60,3.0,5,4.393581611887331e-07
6.925,0.0,77.50001291417894,0,60,3.0,5,3.0386303385111047e-07
6.93,0.001684486749771458,77.5000088860839,0,60,3.0,5,2.0908432715901547e-07
6.935,0.003097557930867117,77.50000608328911,0,60,3.0,5,1.431362143060088e-07
6.94,0.005475106668887023,77.50000414334353,0,60,3.0,5,9.7490436032518e-08
6.945,0.00930222931468658,77.50000280768167,0,60,3.0,5,6.606309806128968e-08
6.95,0.01519157517868857,77.50000189290678,0,60,3.0,5,4.453898307420947e-08
6.955,0.023847336626128316,77.50000126968219,0,60,3.0,5,2.9874874986917885e-08
6.96,0.0359830743700859,77.50000084731572,0,60,3.0,5,1.9936840424313284e-08
6.965,0.05218887796857759,77.50000056257437,0,60,3.0,5,1.3237044025599436e-08
6.97,0.0727577001223134,77.50000037161998,0,60,3.0,5,8.743999427786228e-09
6.975,0.0974992498694751,77.50000024423203,0,60,3.0,5,5.7466359200642566e-09
6.98,0.12558706050443358,77.50000015969474,0,60,3.0,5,3.757523191940409e-09
6.985,0.15549263588878245,77.50000010388743,0,60,3.0,5,2.444410122681053e-09
6.99,0.1850529723539114,77.50000006723879,0,60,3.0,5,1.5820891054746051e-09
6.995,0.21169159439317053,77.50000004329733,0,60,3.0,5,1.018760793372434e-09
7.0,0.23277292922115492,77.50000002773875,0,60,3.0,5,6.526764697328498e-10
7.005,0.24602692519491282,77.5000000176806,0,60,3.0,5,4.1601424527470956e-10
7.01,0.24995056064839283,77.50000001121222,0,60,3.0,5,2.6381699439405244e-10
7.015,0.24408826520424054,77.50000000707409,0,60,3.0,5,1.6644923348127014e-10
7.02,0.22911894216865275,77.50000000444052,0,60,3.0,5,1.0448288508889484e-10
7.025,0.20672661788705934,77.5000000027732,0,60,3.0,5,6.525189800253001e-11
7.03,0.17928878030241233,77.50000000172311,0,60,3.0,5,4.054373568899738e-11
7.035,0.14946211903866036,77.5000000010652,0,60,3.0,5,2.5063600867938744e-11
7.04,0.1197651512573837,77.50000000065513,0,60,3.0,5,1.5414932075894767e-11
7.045,0.09224675744988023,77.50000000040089,0,60,3.0,5,9.432663800372906e-12
7.05,0.06829565320281596,77.50000000024406,0,60,3.0,5,5.7425227971500995e-12
7.055,0.04860224607515734,77.50000000014782,0,60,3.0,5,3.4781484881772057e-12
7.06,0.03324612389699793,77.50000000008907,0,60,3.0,5,2.0958502907032036e-12
7.065,0.021859876340472782,77.5000000000534,0,60,3.0,5,1.2565739298759795e-12
7.07,0.01381595518554205,77.50000000003186,0,60,3.0,5,7.49664382858421e-13
7.075,0.008394095110402422,77.5000000000189,0,60,3.0,5,4.447161593227921e-13
7.08,0.0049052535271608,77.50000000001116,0,60,3.0,5,2.6248284591608404e-13
7.085,0.0027671663551903634,77.50000000000655,0,60,3.0,5,1.5414597702842645e-13
7.09,0.0015425553464444616,77.50000000000384,0,60,3.0,5,9.028072407304802e-14
7.095,0.0009638206637011801,77.50000000000223,0,60,3.0,5,5.2496569183216817e-14
7.1,0.0009804935156568228,77.5000000000013,0,60,3.0,5,3.042794774313841e-14
7.105,0.0018793744894085216,77.50000000000074,0,60,3.0,5,1.7387398710364806e-14
7.11,0.004535525206900863,77.50000000000043,0,60,3.0,5,1.0031191563672003e-14
7.115,0.010832767979632273,77.50000000000024,0,60,3.0,5,5.684341886080802e-15
7.12,0.024208003392322392,77.50000000000014,0,60,3.0,5,3.343730521224001e-15
7.125,0.0500971897335304,77.50000000000007,0,60,3.0,5,1.6718652606120004e-15
7.13,0.09582894921774403,77.50000000000004,0,60,3.0,5,1.0031191563672002e-15
7.135,0.16937896721820658,77.50000000000003,0,60,3.0,5,6.687461042448002e-16
7.14,0.27661303008991756,77.50000000000001,0,60,3.0,5,3.343730521224001e-16
7.145,0.4173782800009149,77.5,0,60,3.0,5,0.0
7.15,0.5818720934538056,77.5,0,60,3.0,5,0.0
7.155,0.7494718801585675,77.5,0,60,3.0,5,0.0
7.16,0.891813020752378,77.5,0,60,3.0,5,0.0
7.165,0.9800361632936612,77.5,0,60,3.0,5,0.0
7.17,0.993574479225126,77.50000248997046,1,60,3.0,5,5.8587540131745354e-08
7.175,0.9263438449375362,77.50000384762257,0,60,3.0,5,9.053229565752725e-08
7.18,0.7873015962290536,77.50000607642373,0,60,3.0,5,1.4297467600954406e-07
7.185,0.5959516244629897,77.5000099193542,0,60,3.0,5,2.3339656937584068e-07
7.19,0.376910120078773,77.50001691763335,0,60,3.0,5,3.9806196107693883e-07
7.195,0.15739335672107918,77.50003032958121,0,60,3.0,5,7.13637204880262e-07
7.2,-0.033361226269301235,77.50005706326723,0,60,3.0,5,1.3426651114112996e-06
7.205,-0.1680180840843834,77.50011163602987,0,60,3.0,5,2.6267301146109436e-06
7.21,-0.23069703190837854,77.50022405397121,0,60,3.0,5,5.271858146095516e-06
7.215,-0.22587267821131068,77.50045501243203,0,60,3.0,5,1.0706174871235335e-05
7.22,-0.17718181630665902,77.50092427728828,0,60,3.0,5,2.17477009006389e-05
7.225,-0.11494332516451301,77.50186190043328,0,60,3.0,5,4.3809421959608964e-05
7.23,-0.061810214049552864,77.5036974124983,0,60,3.0,6,8.699794113641367e-05
7.235,-0.026546104631500547,77.50720948330502,0,60,3.0,6,0.00016963490129455748
7.24,-0.00719600351942686,77.51376740494521,0,60,3.0,6,0.00032393893988736473
7.245,0.0022072757983807078,77.52570486126365,0,60,3.0,6,0.0006048202650270147
7.25,0.006917199873730717,77.54687310100944,0,60,3.0,6,0.0011028964943397355
7.255,0.01004859748264829,77.58342030040448,0,60,3.0,6,0.0019628305977525597
7.26,0.013037082251128167,77.64483019563318,0,60,3.0,6,0.0034077693090159085
7.265,0.01645163937690478,77.74521845683252,0,60,3.0,6,0.00576984604311807
7.27,0.020526639934696615,77.90482292278939,0,60,3.0,6,0.009525245242103358
7.275,0.02539629541761738,78.15153067952627,0,60,3.0,6,0.015330133635912341
7.28,0.031171612185577933,78.52216589770399,0,60,3.0,6,0.024050962298917296
7.285,0.03795853426638131,79.06313417566034,0,60,3.0,6,0.03677962766259618
7.29,0.0458588961882057,79.82991303787692,0,60,3.0,6,0.05482148324416284
7.295,0.054966995891435555,80.88483816617295,0,60,3.0,6,0.0796432509687754
7.3,0.06536491004445595,82.29271025083777,0,60,3.0,6,0.11276965296088874
7.305,0.07711726085088699,84.1139790420912,0,60,3.0,6,0.15562303628449886
7.31,0.09026570629555215,86.39566362124735,0,60,3.0,6,0.20930973226464356
7.315,0.10482339848670268,89.16071083043977,0,60,3.0,6,0.2743696665985828
7.32,0.12076968927580028,92.39709175659418,0,60,3.0,6,0.3505198060375101
7.325,0.13804539501007884,96.04845287733258,0,60,3.0,6,0.43643418534900186
7.33,0.15654895051787066,100.00841066564702,0,60,3.0,6,0.5296096627211063
7.335,0.17613378141900526,104.12045778604747,0,60,3.0,6,0.6263637126128816
7.34,0.19660720058055794,108.18485302700304,0,60,3.0,6,0.7219965418118364
7.345,0.21773108748496234,111.9728233716453,0,60,3.0,6,0.811125255803419
7.35,0.23922453870058807,115.2470723582789,0,60,3.0,6,0.8881664084300918
7.355,0.2607685857914563,117.78623296545425,0,60,3.0,6,0.9479113638930411
7.36,0.2820129681603682,119.40984825503094,0,60,3.0,6,0.9861140765889632
7.365,0.30258482867153996,120.0,0,60,3.0,6,1.0
7.37,0.3220990771751686,119.5160061135284,0,60,3.0,6,0.9886119085536096
7.375,0.3401700499968971,117.99966259133913,0,60,3.0,6,0.9529332374432736
7.38,0.3564239911198326,115.57011308967998,0,60,3.0,6,0.8957673668159994
7.385,0.3705118017738417,112.40924080138602,0,60,3.0,6,0.8213939012090828
7.39,0.3821214567925213,108.74008947923315,0,60,3.0,6,0.7350609289231329
7.395,0.39098947374066967,104.80188363205593,0,60,3.0,6,0.6423972619307279
7.4,0.3969108472035567,100.82552814904717,0,60,3.0,6,0.5488359564481687
7.405,0.3997469255491936,97.0130132410624,0,60,3.0,6,0.45912972331911517
7.41,0.3994308076379137,93.5231013335713,0,60,3.0,6,0.37701414902520713
7.415,0.3959699661768434,90.4643185404905,0,60,3.0,6,0.30504278918801164
7.42,0.38944595408114946,87.89493732644314,0,60,3.0,6,0.24458676062219156
7.425,0.38001120995358023,85.82858881956196,0,60,3.0,6,0.19596679575439901
7.43,0.3678831374098315,84.24354173369385,0,60,3.0,6,0.15867157020456107
7.435,0.35333577933796634,83.09355905991723,0,60,3.0,6,0.13161315435099355
7.44,0.33668953221163944,82.31851219968635,0,60,3.0,6,0.11337675763967889
7.445,0.3182994390982644,81.8534471763782,0,60,3.0,6,0.10243405120889874
7.45,0.29854265738230645,81.63539558810754,0,60,3.0,6,0.0973034256025304
7.455,0.2778057157821067,81.60776725230997,0,60,3.0,6,0.09665334711317575
7.46,0.2564721553719815,81.7225659161887,0,60,3.0,6,0.09935449214561645
7.465,0.23491109433464996,81.94090307100727,0,60,3.0,6,0.10449183696487693
7.47,0.21346717185309805,82.23236173414895,0,60,3.0,6,0.1113496878623283
7.475,0.19245222055656455,82.5737228448738,0,60,3.0,6,0.11938171399703057
7.48,0.17213889801761392,82.94746101237237,0,60,3.0,6,0.1281755532322911
7.485,0.15275638501270183,83.34028784104275,0,60,3.0,6,0.13741853743630003
7.49,0.13448814019607322,83.74190129408117,0,60,3.0,6,0.14686826574308645
7.495,0.11747159495449566,84.14400555542274,0,60,3.0,6,0.156329542480535
7.5,0.10179958433370105,84.53960260488017,0,60,3.0,6,0.1656377083501217
7.505,0.08752324394101413,84.9225212845037,0,60,3.0,6,0.17464755963538123
7.51,0.07465606047174059,85.28713521594845,0,60,3.0,6,0.18322671096349302
7.515,0.0631787448609295,85.62822001971128,0,60,3.0,6,0.19125223575791245
7.52,0.05304460019959574,85.94090650370732,0,60,3.0,6,0.19860956479311354
7.525,0.044185078305849994,86.22069530027292,0,60,3.0,6,0.20519283059465698
7.53,0.03651525513023255,86.46350713588414,0,60,3.0,6,0.2109060502560975
7.535,0.0299390014708757,86.66575024332924,0,60,3.0,6,0.21566471160774686
7.54,0.024353677220580638,86.82439202975053,0,60,3.0,6,0.2193974595235418
7.545,0.01965423034339045,86.93702615390892,0,60,3.0,6,0.22204767420962157
7.55,0.015736632374757337,87.00192899594394,0,60,3.0,6,0.22357479990456333
7.555,0.012500627640593535,87.0181014934289,0,60,3.0,6,0.22395532925715061
7.56,0.009851811652115898,86.98529377288109,0,60,3.0,6,0.22318338289131984
7.565,0.007703084175428559,86.90401114067697,0,60,3.0,6,0.2212708503688699
7.57,0.005975544002062424,86.77550094420542,0,60,3.0,6,0.2182470810401275
7.575,0.004598905818663047,86.60172064316458,0,60,3.0,6,0.21415813278034312
7.58,0.0035115256454839104,86.38528817010885,0,60,3.0,6,0.2090656040025612
7.585,0.002660121266303676,86.12941631144672,0,60,3.0,6,0.20304508968109924
7.59,0.0019992692560877024,85.8378333951069,0,60,3.0,6,0.19618431517898585
7.595,0.0014907520044639367,85.5146930147361,0,60,3.0,6,0.18858101211143755
7.6,0.0011028178277539807,85.16447583928647,0,60,3.0,6,0.180340607983211
7.605,0.0008094059938923333,84.79188674208152,0,60,3.0,6,0.17157380569603567
7.61,0.0005893771793717645,84.40175053163802,0,60,3.0,6,0.1623941301561886
7.615,0.0004257792353490551,83.99890948084484,0,60,3.0,6,0.15291551719634927
7.62,0.0003051686392901525,83.58812564108673,0,60,3.0,6,0.14325001508439372
7.625,0.00021699992642659966,83.17399060876907,0,60,3.0,6,0.13350566138280173
7.63,0.00015308884054097838,82.76084500333593,0,60,3.0,6,0.1237845883137866
7.635,0.00010714989329311098,82.35270944151372,0,60,3.0,6,0.11418139862385233
7.64,7.440535854020571e-05,81.95322827731624,0,60,3.0,6,0.1047818418192057
7.645,5.1260276743925106e-05,81.5656268469004,0,60,3.0,6,0.09566180816236236
7.65,3.503659887882241e-05,81.19268243627361,0,60,3.0,6,0.08688664555937915
7.655,2.375894748103639e-05,80.83670870048552,0,60,3.0,6,0.07851079295260038
7.66,1.5984413869232557e-05,80.49955282436576,0,60,3.0,6,0.07057771351448858
7.665,1.0669166579899869e-05,80.18260434212327,0,60,3.0,6,0.06312010216760634
7.67,7.06526633560511e-06,79.88681423671093,0,60,3.0,6,0.05616033498143371
7.675,4.641847214699205e-06,79.61272272561617,0,60,3.0,6,0.049711122955674494
7.68,3.025641074479182e-06,79.3604940089418,0,60,3.0,6,0.043776329622159986
7.685,1.9566278676921314e-06,79.12995620540356,0,60,3.0,6,0.03835191071537786
7.69,1.2553456560008793e-06,78.92064472570667,0,60,3.0,6,0.03342693472250978
7.695,7.990660428214668e-07,78.73184742133546,0,60,3.0,6,0.028984645207893154
7.7,5.046221251618276e-07,78.56264998870968,0,60,3.0,6,0.025003529146110114
7.705,3.1616527078858815e-07,78.41198029133812,0,60,3.0,6,0.021458359796191175
7.71,1.9652884407760343e-07,78.27865047304697,0,60,3.0,6,0.018321187601105078
7.715,1.2120002189836396e-07,78.16139596092438,0,60,3.0,6,0.015562257904103075
7.72,7.415549848886236e-08,78.05891068560801,0,60,3.0,6,0.013150839661364992
7.725,4.501406988770349e-08,77.96987806868721,0,60,3.0,6,0.011055954557346079
7.73,0.0,77.89299753381259,0,60,3.0,6,0.009247000795590352
7.735,0.0,77.8270064830745,0,60,3.0,6,0.007694270189988201
7.74,0.0,77.77069783881038,0,60,3.0,6,0.00636936091318536
7.745,0.0,77.72293338065182,0,60,3.0,6,0.005245491309454685
7.75,0.0,77.6826532075086,0,60,3.0,6,0.004297722529613967
7.755,0.0,77.64888172502401,0,60,3.0,6,0.0035030994123296886
7.76,0.0,77.62073060277085,0,60,3.0,6,0.0028407200651964317
7.765,0.0,77.59739916496626,0,60,3.0,6,0.002291745058029699
7.77,0.0,77.57817267726432,0,60,3.0,6,0.0018393571121016388
7.775,0.0,77.56241897406092,0,60,3.0,6,0.0014686817426098407
7.78,0.0,77.54958383962341,0,60,3.0,6,0.0011666785793743337
7.785,0.0,77.53918551600158,0,60,3.0,6,0.0009220121412136665
7.79,0.0,77.53080866455502,0,60,3.0,6,0.000724909754235876
7.795,0.0,77.52409805909379,0,60,3.0,6,0.0005670131551479538
7.8,0.0,77.51875223963577,0,60,3.0,6,0.0004412291679005541
7.805,0.0,77.51451730867906,0,60,3.0,6,0.0003415837336249564
7.81,0.0,77.51118100820227,0,60,3.0,6,0.00026308254593579797
7.815,0.0,77.50856717638953,0,60,3.0,6,0.000201580620930198
7.82,0.0,77.506530648948,0,60,3.0,6,0.0001536623281882545
7.825,0.0,77.50495264109921,0,60,3.0,6,0.00011653273174608651
7.83,0.0,77.50373662283334,0,60,3.0,6,8.792053725515228e-05
7.835,0.0,77.50280468154695,0,60,3.0,6,6.599250698701219e-05
7.84,0.0,77.50209435230339,0,60,3.0,6,4.927887772677262e-05
7.845,0.0,77.50155588612591,0,60,3.0,6,3.660908531561718e-05
7.85,0.0,77.50114992036497,0,60,3.0,6,2.705694976391308e-05
7.855,0.0,77.50084551167804,0,60,3.0,6,1.989439242439563e-05
7.86,0.0,77.50061849094135,0,60,3.0,6,1.4552728031744396e-05
7.865,0.0,77.50045009994905,0,60,3.0,6,1.0590587036444156e-05
7.87,0.0,77.5003258715694,0,60,3.0,6,7.667566338862825e-06
7.875,0.0,77.50023471771487,0,60,3.0,6,5.522769761763116e-06
7.88,0.0,77.50016819270388,0,60,3.0,6,3.95747538545145e-06
7.885,0.0,77.50011990307587,0,60,3.0,6,2.8212488439962992e-06
7.89,0.0,77.50008503845943,0,60,3.0,6,2.0009049278007082e-06
7.895,0.0,77.5000600015309,0,60,3.0,6,1.4118007270018793e-06
7.9,0.0,77.50004211833227,0,60,3.0,6,9.910195829246839e-07
7.905,0.0,77.50002941317382,0,60,3.0,6,6.920746781200732e-07
7.91,0.0,77.50002043499333,0,60,3.0,6,4.80823372500334e-07
7.915,0.0,77.50001412436717,0,60,3.0,6,3.3233805103972213e-07
7.92,0.001684486749771458,77.50000971237372,0,60,3.0,6,2.2852644058409221e-07
7.925,0.003097557930867117,77.50000664421472,0,60,3.0,6,1.5633446403572795e-07
7.93,0.005475106668887023,77.50000452192985,0,60,3.0,6,1.0639834947730432e-07
7.935,0.00930222931468658,77.50000306172282,0,60,3.0,6,7.204053698681973e-08
7.94,0.01519157517868857,77.50000206238532,0,60,3.0,6,4.8526713418836795e-08
7.945,0.023847336626128316,77.5000013820878,0,60,3.0,6,3.2519712998263834e-08
7.95,0.0359830743700859,77.50000092143212,0,60,3.0,6,2.1680755721450518e-08
7.955,0.05218887796857759,77.50000061115722,0,60,3.0,6,1.4380169860113015e-08
7.96,0.0727577001223134,77.50000040327791,0,60,3.0,6,9.48889197281781e-09
7.965,0.0974992498694751,77.50000026473893,0,60,3.0,6,6.229151281064225e-09
7.97,0.12558706050443358,77.50000017289923,0,60,3.0,6,4.068217282003709e-09
7.975,0.15549263588878245,77.50000011233891,0,60,3.0,6,2.643268464239287e-09
7.98,0.1850529723539114,77.50000007261549,0,60,3.0,6,1.7085998184912194e-09
7.985,0.21169159439317053,77.50000004669712,0,60,3.0,6,1.0987558679891449e-09
7.99,0.23277292922115492,77.50000002987535,0,60,3.0,6,7.029494581194526e-10
7.995,0.24602692519491282,77.50000001901506,0,60,3.0,6,4.474132123612114e-10
8.0,0.24995056064839283,77.50000001204049,0,60,3.0,6,2.833055933639544e-10
8.005,0.24408826520424054,77.50000000758494,0,60,3.0,6,1.7846927595896618e-10
8.01,0.22911894216865275,77.5000000047536,0,60,3.0,6,1.1184945780020345e-10
8.015,0.20672661788705934,77.50000000296384,0,60,3.0,6,6.9737512496752e-11
8.02,0.17928878030241233,77.50000000183844,0,60,3.0,6,4.325750738002278e-11
8.025,0.14946211903866036,77.5000000011345,0,60,3.0,6,2.6694003870087567e-11
8.03,0.1197651512573837,77.5000000006965,0,60,3.0,6,1.6388292030623073e-11
8.035,0.09224675744988023,77.5000000004254,0,60,3.0,6,1.0009457315284047e-11
8.04,0.06829565320281596,77.5000000002585,0,60,3.0,6,6.0822458181064576e-12
8.045,0.04860224607515734,77.50000000015626,0,60,3.0,6,3.676766081137912e-12
8.05,0.03324612389699793,77.50000000009398,0,60,3.0,6,2.2112089936854317e-12
8.055,0.021859876340472782,77.50000000005623,0,60,3.0,6,1.3231141672483372e-12
8.06,0.01381595518554205,77.50000000003347,0,60,3.0,6,7.874485377482522e-13
8.065,0.008394095110402422,77.50000000001982,0,60,3.0,6,4.664504077107481e-13
8.07,0.0049052535271608,77.50000000001168,0,60,3.0,6,2.7485464884461285e-13
8.075,0.0027671663551903634,77.50000000000685,0,60,3.0,6,1.6116781112299685e-13
8.08,0.0015425553464444616,77.500000000004,0,60,3.0,6,9.395882764639442e-14
8.085,0.0009638206637011801,77.50000000000232,0,60,3.0,6,5.4502807495951216e-14
8.09,0.0009804935156568228,77.50000000000134,0,60,3.0,6,3.143106689950561e-14
8.095,0.0018793744894085216,77.50000000000077,0,60,3.0,6,1.8056144814609604e-14
8.1,0.004535525206900863,77.50000000000044,0,60,3.0,6,1.0365564615794402e-14
8.105,0.010832767979632273,77.50000000000024,0,60,3.0,6,5.684341886080802e-15
8.11,0.024208003392322392,77.50000000000014,0,60,3.0,6,3.343730521224001e-15
8.115,0.0500971897335304,77.50000000000009,0,60,3.0,6,2.0062383127344005e-15
8.12,0.09582894921774403,77.50000000000004,0,60,3.0,6,1.0031191563672002e-15
8.125,0.16937896721820658,77.50000000000003,0,60,3.0,6,6.687461042448002e-16
8.13,0.27661303008991756,77.50000000000001,0,60,3.0,6,3.343730521224001e-16
8.135,0.4173782800009149,77.5,0,60,3.0,6,0.0
8.14,0.5818720934538056,77.5,0,60,3.0,6,0.0
8.145,0.7494718801585675,77.5,0,60,3.0,6,0.0
8.15,0.891813020752378,77.5,0,60,3.0,6,0.0
8.155,0.9800361632936612,77.5,0,60,3.0,6,0.0
8.16,0.993574479225126,77.50000249379623,1,60,3.0,6,5.8677558372972485e-08
8.165,0.9263438449375362,77.50000382794776,0,60,3.0,6,9.006935917622125e-08
8.17,0.7873015962290536,77.50000600036053,0,60,3.0,6,1.4118495361050436e-07
8.175,0.5959516244629897,77.50000970943701,0,60,3.0,6,2.2845734138975198e-07
8.18,0.376910120078773,77.5000163868594,0,60,3.0,6,3.8557316235496463e-07
8.185,0.15739335672107918,77.50002902423199,0,60,3.0,6,6.829231056947131e-07
8.19,-0.033361226269301235,77.50005389476512,0,60,3.0,6,1.268112120388811e-06
8.195,-0.1680180840843834,77.50010404947875,0,60,3.0,6,2.4482230294191086e-06
8.2,-0.23069703190837854,77.50020622040319,0,60,3.0,6,4.852244780843595e-06
8.205,-0.22587267821131068,77.50041404783398,0,60,3.0,6,9.742301976115521e-06
8.21,-0.17718181630665902,77.50083263801669,0,60,3.0,6,1.959148274562829e-05
8.215,-0.11494332516451301,77.50166268015035,0,60,3.0,6,3.912188589050161e-05
8.22,-0.061810214049552864,77.5032770278292,0,60,3.0,6,7.710653715762687e-05
8.225,-0.026546104631500547,77.50634895429774,0,60,3.0,6,0.0001493871599467077
8.23,-0.00719600351942686,77.5120590120072,0,60,3.0,6,0.0002837414589929294
8.235,0.0022072757983807078,77.52241562190353,0,60,3.0,6,0.0005274263977302032
8.24,0.006917199873730717,77.54073109806174,0,60,3.0,6,0.0009583787779233182
8.245,0.01004859748264829,77.57229617891642,0,60,3.0,6,0.0017010865627392323
8.25,0.013037082251128167,77.62528706971409,0,60,3.0,6,0.0029479310520962505
8.255,0.01645163937690478,77.7119131132812,0,60,3.0,6,0.004986190900734086
8.26,0.020526639934696615,77.84976424958334,0,60,3.0,6,0.008229747049019874
8.265,0.02539629541761738,78.06324165455797,0,60,3.0,6,0.013252744813128709
8.27,0.031171612185577933,78.38485440731901,0,60,3.0,6,0.020820103701623793
8.275,0.03795853426638131,78.85605110071748,0,60,3.0,6,0.031907084722764226
8.28,0.0458588961882057,79.52715125776614,0,60,3.0,6,0.047697676653320836
8.285,0.054966995891435555,80.45588226229052,0,60,3.0,6,0.06955017087742389
8.29,0.06536491004445595,81.70405544530206,0,60,3.0,6,0.09891895165416613
8.295,0.07711726085088699,83.33206946519013,0,60,3.0,6,0.1372251638868266
8.3,0.09026570629555215,85.39123254573106,0,60,3.0,6,0.1856760598995543
8.305,0.10482339848670268,87.9143369512103,0,60,3.0,6,0.24504322238141887
8.31,0.12076968927580028,90.90544393360824,0,60,3.0,6,0.3154222102025468
8.315,0.13804539501007884,94.33034336266256,0,60,3.0,6,0.396008079121472
8.32,0.15654895051787066,98.10950421064753,0,60,3.0,6,0.4849295108387654
8.325,0.17613378141900526,102.11539119616134,0,60,3.0,6,0.5791856752037963
8.33,0.19660720058055794,106.17568759500095,0,60,3.0,6,0.6747220610588459
8.335,0.21773108748496234,110.08321153763839,0,60,3.0,6,0.7666638008856091
8.34,0.23922453870058807,113.61222628224048,0,60,3.0,6,0.8496994419350702
8.345,0.2607685857914563,116.53961398056285,0,60,3.0,6,0.9185791524838317
8.35,0.2820129681603682,118.66827111065578,0,60,3.0,6,0.9686652026036654
8.355,0.30258482867153996,119.84936740314373,0,60,3.0,6,0.9964557036033819
8.36,0.3220990771751686,120.0,0,60,3.0,6,1.0
8.365,0.3401700499968971,119.11335164043977,0,60,3.0,6,0.9791376856574064
8.37,0.3564239911198326,117.2596422087817,0,60,3.0,6,0.9355209931478047
8.375,0.3705118017738417,114.57771066593102,0,60,3.0,6,0.8724167215513182
8.38,0.3821214567925213,111.25864733544083,0,60,3.0,6,0.7943211137750783
8.385,0.39098947374066967,107.52417358062645,0,60,3.0,6,0.7064511430735636
8.39,0.3969108472035567,103.60317581973628,0,60,3.0,6,0.614192372229089
8.395,0.3997469255491936,99.70982687224779,0,60,3.0,6,0.5225841616999479
8.4,0.3994308076379137,96.02611916232044,0,60,3.0,6,0.43590868617224565
8.405,0.3959699661768434,92.69058107724302,0,60,3.0,6,0.3574254371116006
8.41,0.38944595408114946,89.79371843965717,0,60,3.0,6,0.28926396328605103
8.415,0.38001120995358023,87.37958938048318,0,60,3.0,6,0.2324609265996043
8.42,0.3678831374098315,85.45209135214775,0,60,3.0,6,0.1871080318152411
8.425,0.35333577933796634,83.98411918621723,0,60,3.0,6,0.15256751026393478
8.43,0.33668953221163944,82.92773974008752,0,60,3.0,6,0.12771152329617688
8.435,0.3182994390982644,82.22383282330381,0,60,3.0,7,0.11114900760714845
8.44,0.29854265738230645,81.81013488536829,0,60,3.0,7,0.10141493847925377
8.445,0.2778057157821067,81.62715266498432,0,60,3.0,7,0.09710947447021935
8.45,0.2564721553719815,81.62187846806819,0,60,3.0,7,0.09698537571925152
8.455,0.23491109433464996,81.74957199839405,0,60,3.0,7,0.09998992937397755
8.46,0.21346717185309805,81.9740569196691,0,60,3.0,7,0.10527192752162577
8.465,0.19245222055656455,82.2670305887381,0,60,3.0,7,0.11216542561736693
8.47,0.17213889801761392,82.6068399772209,0,60,3.0,7,0.12016094064049178
8.475,0.15275638501270183,82.97707830332679,0,60,3.0,7,0.12887243066651274
8.48,0.13448814019607322,83.36524231629802,0,60,3.0,7,0.13800570155995348
8.485,0.11747159495449566,83.76158527846451,0,60,3.0,7,0.14733141831681196
8.49,0.10179958433370105,84.15821910240557,0,60,3.0,7,0.156663978880131
8.495,0.08752324394101413,84.54846447631488,0,60,3.0,7,0.16584622297211474
8.5,0.07465606047174059,84.92641729835339,0,60,3.0,7,0.17473923054949142
8.505,0.0631787448609295,85.2866873918496,0,60,3.0,7,0.18321617392587286
8.51,0.05304460019959574,85.6242648120442,0,60,3.0,7,0.19115917204809887
8.515,0.044185078305849994,85.93447459191242,0,60,3.0,7,0.19845822569205693
8.52,0.03651525513023255,86.21298860076058,0,60,3.0,7,0.20501149648848427
8.525,0.0299390014708757,86.45587095455626,0,60,3.0,7,0.21072637540132377
8.53,0.024353677220580638,86.65963999461131,0,60,3.0,7,0.2155209410496779
8.535,0.01965423034339045,86.82133492105665,0,60,3.0,7,0.21932552755427404
8.54,0.015736632374757337,86.93857885017128,0,60,3.0,7,0.2220842082393243
8.545,0.012500627640593535,87.00963266008729,0,60,3.0,7,0.2237560625902892
8.55,0.009851811652115898,87.03343582049601,0,60,3.0,7,0.2243161369528473
8.555,0.007703084175428559,87.00963173891398,0,60,3.0,7,0.2237560409156231
8.56,0.005975544002062424,86.938576193165,0,60,3.0,7,0.22208414572152954
8.565,0.004598905818663047,86.82132827999462,0,60,3.0,7,0.219325371293991
8.57,0.0035115256454839104,86.65962406044066,0,60,3.0,7,0.2155205661280156
8.575,0.002660121266303676,86.45583375264079,0,60,3.0,7,0.21072550006213614
8.58,0.0019992692560877024,86.21290391749133,0,60,3.0,7,0.2050095039409725
8.585,0.0014907520044639367,85.93428659481444,0,60,3.0,7,0.19845380223092796
8.59,0.0011028178277539807,85.62385776540609,0,60,3.0,7,0.1911495944801432
8.595,0.0008094059938923333,85.28582782555713,0,60,3.0,7,0.18319594883663848
8.6,0.0005893771793717645,84.92464695644118,0,60,3.0,7,0.17469757544567482
8.605,0.0004257792353490551,84.54490834692771,0,60,3.0,7,0.1657625493394756
8.61,0.0003051686392901525,84.1512521860989,0,60,3.0,7,0.1565000514376212
8.615,0.00021699992642659966,83.74827318768754,0,60,3.0,7,0.14701819265147165
8.62,0.00015308884054097838,83.34043415451329,0,60,3.0,7,0.13742198010619505
8.625,0.00010714989329311098,82.93198775273756,0,60,3.0,7,0.1278114765350013
8.63,7.440535854020571e-05,82.52690826257488,0,60,3.0,7,0.11828019441352654
8.635,5.1260276743925106e-05,82.12883462523583,0,60,3.0,7,0.10891375588790177
8.64,3.503659887882241e-05,81.74102563739208,0,60,3.0,7,0.09978883852687258
8.645,2.375894748103639e-05,81.36632767600855,0,60,3.0,7,0.09097241590608358
8.65,1.5984413869232557e-05,81.00715488812935,0,60,3.0,7,0.08252129148539646
8.655,1.0669166579899869e-05,80.66548136982472,0,60,3.0,7,0.07448191458411102
8.66,7.06526633560511e-06,80.34284450049499,0,60,3.0,7,0.06689045883517625
8.665,4.641847214699205e-06,80.04035830388436,0,60,3.0,7,0.059773136561984956
8.67,3.025641074479182e-06,79.75873548233507,0,60,3.0,7,0.0531467172314134
8.675,1.9566278676921314e-06,79.4983166189272,0,60,3.0,7,0.04701921456299307
8.68,1.2553456560008793e-06,79.25910496239372,0,60,3.0,7,0.04139070499749932
8.685,7.990660428214668e-07,79.04080519796145,0,60,3.0,7,0.03625423995203405
8.69,5.046221251618276e-07,78.84286465667756,0,60,3.0,7,0.03159681545123677
8.695,3.1616527078858815e-07,78.66451551736972,0,60,3.0,7,0.02740036511458169
8.7,1.9652884407760343e-07,78.50481669878073,0,60,3.0,7,0.023642745853664215
8.705,1.2120002189836396e-07,78.36269431353409,0,60,3.0,7,0.020298689730213936
8.71,7.415549848886236e-08,78.23697974928406,0,60,3.0,7,0.01734069998315436
8.715,4.501406988770349e-08,78.12644464506172,0,60,3.0,7,0.014739874001452335
8.72,0.0,78.02983223281902,0,60,3.0,7,0.012466640772212191
8.725,0.0,77.94588470720849,0,60,3.0,7,0.010491404875493934
8.73,0.0,77.87336646401664,0,60,3.0,7,0.008785093270979788
8.735,0.0,77.81108320437647,0,60,3.0,7,0.00731960480885819
8.74,0.0,77.75789703460497,0,60,3.0,7,0.006068165520116843
8.745,0.0,77.7127377985272,0,60,3.0,7,0.0050055952594635425
8.75,0.0,77.67461096019198,0,60,3.0,7,0.0041084931809878605
8.755,0.0,77.64260241090227,0,60,3.0,7,0.003355350844759307
8.76,0.0,77.61588060740796,0,60,3.0,7,0.0027266025272461
8.765,0.0,77.5936964605813,0,60,3.0,7,0.0022046226019129147
8.77,0.0,77.57538138902093,0,60,3.0,7,0.0017736797416690105
