Time,ECG,Pressure,R_Peaks,mean_hr,hrv_scale,Phase_Bin,Normalized_Pressure
0.0,0.001684486749771458,77.5,0,60,3.0,0,0.0
0.005,0.003097557930867117,77.5,0,60,3.0,0,0.0
0.01,0.005475106668887023,77.5,0,60,3.0,0,0.0
0.015,0.00930222931468658,77.5,0,60,3.0,0,0.0
0.02,0.01519157517868857,77.5,0,60,3.0,0,0.0
0.025,0.023847336626128316,77.5,0,60,3.0,0,0.0
0.03,0.0359830743700859,77.5,0,60,3.0,0,0.0
0.035,0.05218887796857759,77.5,0,60,3.0,0,0.0
0.04,0.0727577001223134,77.5,0,60,3.0,0,0.0
0.045,0.0974992498694751,77.5,0,60,3.0,0,0.0
0.05,0.12558706050443358,77.5,0,60,3.0,0,0.0
0.055,0.15549263588878245,77.5,0,60,3.0,0,0.0
0.06,0.1850529723539114,77.5,0,60,3.0,0,0.0
0.065,0.21169159439317053,77.5,0,60,3.0,0,0.0
0.07,0.23277292922115492,77.5,0,60,3.0,0,0.0
0.075,0.24602692519491282,77.5,0,60,3.0,0,0.0
0.08,0.24995056064839283,77.5,0,60,3.0,0,0.0
0.085,0.24408826520424054,77.5,0,60,3.0,0,0.0
0.09,0.22911894216865275,77.5,0,60,3.0,0,0.0
0.095,0.20672661788705934,77.5,0,60,3.0,0,0.0
0.1,0.17928878030241233,77.5,0,60,3.0,0,0.0
0.105,0.14946211903866036,77.5,0,60,3.0,0,0.0
0.11,0.1197651512573837,77.5,0,60,3.0,0,0.0
0.115,0.09224675744988023,77.5,0,60,3.0,0,0.0
0.12,0.06829565320281596,77.5,0,60,3.0,0,0.0
0.125,0.04860224607515734,77.5,0,60,3.0,0,0.0
0.13,0.03324612389699793,77.5,0,60,3.0,0,0.0
0.135,0.021859876340472782,77.5,0,60,3.0,0,0.0
0.14,0.01381595518554205,77.5,0,60,3.0,0,0.0
0.145,0.008394095110402422,77.5,0,60,3.0,0,0.0
0.15,0.0049052535271608,77.5,0,60,3.0,0,0.0
0.155,0.0027671663551903634,77.5,0,60,3.0,0,0.0
0.16,0.0015425553464444616,77.5,0,60,3.0,0,0.0
0.165,0.0009638206637011801,77.5,0,60,3.0,0,0.0
0.17,0.0009804935156568228,77.5,0,60,3.0,0,0.0
0.175,0.0018793744894085216,77.5,0,60,3.0,0,0.0
0.18,0.004535525206900863,77.5,0,60,3.0,0,0.0
0.185,0.010832767979632273,77.5,0,60,3.0,0,0.0
0.19,0.024208003392322392,77.5,0,60,3.0,0,0.0
0.195,0.0500971897335304,77.5,0,60,3.0,0,0.0
0.2,0.09582894921774403,77.5,0,60,3.0,0,0.0
0.205,0.16937896721820658,77.5,0,60,3.0,0,0.0
0.21,0.27661303008991756,77.5,0,60,3.0,0,0.0
0.215,0.4173782800009149,77.5,0,60,3.0,0,0.0
0.22,0.5818720934538056,77.5,0,60,3.0,0,0.0
0.225,0.7494718801585675,77.5,0,60,3.0,0,0.0
0.23,0.891813020752378,77.5,0,60,3.0,0,0.0
0.235,0.9800361632936612,77.5,0,60,3.0,0,0.0
0.24,0.993574479225126,77.5,0,60,3.0,0,0.0
0.245,0.9263438449375362,77.5,0,60,3.0,0,0.0
0.25,0.7873015962290536,77.5,0,60,3.0,0,0.0
0.255,0.5959516244629897,77.5,0,60,3.0,0,0.0
0.26,0.376910120078773,77.5,0,60,3.0,0,0.0
0.265,0.15739335672107918,77.5,0,60,3.0,0,0.0
0.27,-0.033361226269301235,77.5,0,60,3.0,0,0.0
0.275,-0.1680180840843834,77.5,0,60,3.0,0,0.0
0.28,-0.23069703190837854,77.5,0,60,3.0,0,0.0
0.285,-0.22587267821131068,77.5,0,60,3.0,0,0.0
0.29,-0.17718181630665902,77.5,0,60,3.0,0,0.0
0.295,-0.11494332516451301,77.5,0,60,3.0,0,0.0
0.3,-0.061810214049552864,77.5,0,60,3.0,0,0.0
0.305,-0.026546104631500547,77.5,0,60,3.0,0,0.0
0.31,-0.00719600351942686,77.5,0,60,3.0,0,0.0
0.315,0.0022072757983807078,77.5,0,60,3.0,0,0.0
0.32,0.006917199873730717,77.5,0,60,3.0,0,0.0
0.325,0.01004859748264829,77.5,0,60,3.0,0,0.0
0.33,0.013037082251128167,77.5,0,60,3.0,0,0.0
0.335,0.01645163937690478,77.5,0,60,3.0,0,0.0
0.34,0.020526639934696615,77.5,0,60,3.0,0,0.0
0.345,0.02539629541761738,77.5,0,60,3.0,0,0.0
0.35,0.031171612185577933,77.5,0,60,3.0,0,0.0
0.355,0.03795853426638131,77.5,0,60,3.0,0,0.0
0.36,0.0458588961882057,77.5,0,60,3.0,0,0.0
0.365,0.054966995891435555,77.5,0,60,3.0,0,0.0
0.37,0.06536491004445595,77.5,0,60,3.0,0,0.0
0.375,0.07711726085088699,77.5,0,60,3.0,0,0.0
0.38,0.09026570629555215,77.5,0,60,3.0,0,0.0
0.385,0.10482339848670268,77.5,0,60,3.0,0,0.0
0.39,0.12076968927580028,77.5,0,60,3.0,0,0.0
0.395,0.13804539501007884,77.5,0,60,3.0,0,0.0
0.4,0.15654895051787066,77.5,0,60,3.0,0,0.0
0.405,0.17613378141900526,77.5,0,60,3.0,0,0.0
0.41,0.19660720058055794,77.5,0,60,3.0,0,0.0
0.415,0.21773108748496234,77.5,0,60,3.0,0,0.0
0.42,0.23922453870058807,77.5,0,60,3.0,0,0.0
0.425,0.2607685857914563,77.5,0,60,3.0,0,0.0
0.43,0.2820129681603682,77.5,0,60,3.0,0,0.0
0.435,0.30258482867153996,77.5,0,60,3.0,0,0.0
0.44,0.3220990771751686,77.5,0,60,3.0,0,0.0
0.445,0.3401700499968971,77.5,0,60,3.0,0,0.0
0.45,0.3564239911198326,77.5,0,60,3.0,0,0.0
0.455,0.3705118017738417,77.5,0,60,3.0,0,0.0
0.46,0.3821214567925213,77.5,0,60,3.0,0,0.0
0.465,0.39098947374066967,77.5,0,60,3.0,0,0.0
0.47,0.3969108472035567,77.5,0,60,3.0,0,0.0
0.475,0.3997469255491936,77.5,0,60,3.0,0,0.0
0.48,0.3994308076379137,77.5,0,60,3.0,0,0.0
0.485,0.3959699661768434,77.5,0,60,3.0,0,0.0
0.49,0.38944595408114946,77.5,0,60,3.0,0,0.0
0.495,0.38001120995358023,77.5,0,60,3.0,0,0.0
0.5,0.3678831374098315,77.5,0,60,3.0,0,0.0
0.505,0.35333577933796634,77.5,0,60,3.0,0,0.0
0.51,0.33668953221163944,77.5,0,60,3.0,0,0.0
0.515,0.3182994390982644,77.5,0,60,3.0,0,0.0
0.52,0.29854265738230645,77.5,0,60,3.0,0,0.0
0.525,0.2778057157821067,77.5,0,60,3.0,0,0.0
0.53,0.2564721553719815,77.5,0,60,3.0,0,0.0
0.535,0.23491109433464996,77.5,0,60,3.0,0,0.0
0.54,0.21346717185309805,77.5,0,60,3.0,0,0.0
0.545,0.19245222055656455,77.5,0,60,3.0,0,0.0
0.55,0.17213889801761392,77.5,0,60,3.0,0,0.0
0.555,0.15275638501270183,77.5,0,60,3.0,0,0.0
0.56,0.13448814019607322,77.5,0,60,3.0,0,0.0
0.565,0.11747159495449566,77.5,0,60,3.0,0,0.0
0.57,0.10179958433370105,77.5,0,60,3.0,0,0.0
0.575,0.08752324394101413,77.5,0,60,3.0,0,0.0
0.58,0.07465606047174059,77.5,0,60,3.0,0,0.0
0.585,0.0631787448609295,77.5,0,60,3.0,0,0.0
0.59,0.05304460019959574,77.5,0,60,3.0,0,0.0
0.595,0.044185078305849994,77.5,0,60,3.0,0,0.0
0.6,0.03651525513023255,77.5,0,60,3.0,0,0.0
0.605,0.0299390014708757,77.5,0,60,3.0,0,0.0
0.61,0.024353677220580638,77.5,0,60,3.0,0,0.0
0.615,0.01965423034339045,77.5,0,60,3.0,0,0.0
0.62,0.015736632374757337,77.5,0,60,3.0,0,0.0
0.625,0.012500627640593535,77.5,0,60,3.0,0,0.0
0.63,0.009851811652115898,77.5,0,60,3.0,0,0.0
0.635,0.007703084175428559,77.5,0,60,3.0,0,0.0
0.64,0.005975544002062424,77.5,0,60,3.0,0,0.0
0.645,0.004598905818663047,77.5,0,60,3.0,0,0.0
0.65,0.0035115256454839104,77.5,0,60,3.0,0,0.0
0.655,0.002660121266303676,77.5,0,60,3.0,0,0.0
0.66,0.0019992692560877024,77.5,0,60,3.0,0,0.0
0.665,0.0014907520044639367,77.5,0,60,3.0,0,0.0
0.67,0.0011028178277539807,77.5,0,60,3.0,0,0.0
0.675,0.0008094059938923333,77.5,0,60,3.0,0,0.0
0.68,0.0005893771793717645,77.5,0,60,3.0,0,0.0
0.685,0.0004257792353490551,77.5,0,60,3.0,0,0.0
0.69,0.0003051686392901525,77.5,0,60,3.0,0,0.0
0.695,0.00021699992642659966,77.5,0,60,3.0,0,0.0
0.7,0.00015308884054097838,77.5,0,60,3.0,0,0.0
0.705,0.00010714989329311098,77.5,0,60,3.0,0,0.0
0.71,7.440535854020571e-05,77.5,0,60,3.0,0,0.0
0.715,5.1260276743925106e-05,77.5,0,60,3.0,0,0.0
0.72,3.503659887882241e-05,77.5,0,60,3.0,0,0.0
0.725,2.375894748103639e-05,77.5,0,60,3.0,0,0.0
0.73,1.5984413869232557e-05,77.5,0,60,3.0,0,0.0
0.735,1.0669166579899869e-05,77.5,0,60,3.0,0,0.0
0.74,7.06526633560511e-06,77.5,0,60,3.0,0,0.0
0.745,4.641847214699205e-06,77.5,0,60,3.0,0,0.0
0.75,3.025641074479182e-06,77.5,0,60,3.0,0,0.0
0.755,1.9566278676921314e-06,77.5,0,60,3.0,0,0.0
0.76,1.2553456560008793e-06,77.5,0,60,3.0,0,0.0
0.765,7.990660428214668e-07,77.5,0,60,3.0,0,0.0
0.77,5.046221251618276e-07,77.5,0,60,3.0,0,0.0
0.775,3.1616527078858815e-07,77.5,0,60,3.0,0,0.0
0.78,1.9652884407760343e-07,77.5,0,60,3.0,0,0.0
0.785,1.2120002189836396e-07,77.5,0,60,3.0,0,0.0
0.79,7.415549848886236e-08,77.5,0,60,3.0,0,0.0
0.795,4.501406988770349e-08,77.5,0,60,3.0,0,0.0
0.8,0.0,77.5,0,60,3.0,0,0.0
0.805,0.0,77.5,0,60,3.0,0,0.0
0.81,0.0,77.5,0,60,3.0,0,0.0
0.815,0.0,77.5,0,60,3.0,0,0.0
0.82,0.0,77.5,0,60,3.0,0,0.0
0.825,0.0,77.5,0,60,3.0,0,0.0
0.83,0.0,77.5,0,60,3.0,0,0.0
0.835,0.001684486749771458,77.5,0,60,3.0,0,0.0
0.84,0.003097557930867117,77.5,0,60,3.0,0,0.0
0.845,0.005475106668887023,77.5,0,60,3.0,0,0.0
0.85,0.00930222931468658,77.5,0,60,3.0,0,0.0
0.855,0.01519157517868857,77.5,0,60,3.0,0,0.0
0.86,0.023847336626128316,77.5,0,60,3.0,0,0.0
0.865,0.0359830743700859,77.5,0,60,3.0,0,0.0
0.87,0.05218887796857759,77.5,0,60,3.0,0,0.0
0.875,0.0727577001223134,77.5,0,60,3.0,0,0.0
0.88,0.0974992498694751,77.5,0,60,3.0,0,0.0
0.885,0.12558706050443358,77.5,0,60,3.0,0,0.0
0.89,0.15549263588878245,77.5,0,60,3.0,0,0.0
0.895,0.1850529723539114,77.5,0,60,3.0,0,0.0
0.9,0.21169159439317053,77.5,0,60,3.0,0,0.0
0.905,0.23277292922115492,77.5,0,60,3.0,0,0.0
0.91,0.24602692519491282,77.5,0,60,3.0,0,0.0
0.915,0.24995056064839283,77.5,0,60,3.0,0,0.0
0.92,0.24408826520424054,77.5,0,60,3.0,0,0.0
0.925,0.22911894216865275,77.5,0,60,3.0,0,0.0
0.93,0.20672661788705934,77.5,0,60,3.0,0,0.0
0.935,0.17928878030241233,77.5,0,60,3.0,0,0.0
0.94,0.14946211903866036,77.5,0,60,3.0,0,0.0
0.945,0.1197651512573837,77.5,0,60,3.0,0,0.0
0.95,0.09224675744988023,77.5,0,60,3.0,0,0.0
0.955,0.06829565320281596,77.5,0,60,3.0,0,0.0
0.96,0.04860224607515734,77.5,0,60,3.0,0,0.0
0.965,0.03324612389699793,77.5,0,60,3.0,0,0.0
0.97,0.021859876340472782,77.5,0,60,3.0,0,0.0
0.975,0.01381595518554205,77.5,0,60,3.0,0,0.0
0.98,0.008394095110402422,77.5,0,60,3.0,0,0.0
0.985,0.0049052535271608,77.5,0,60,3.0,0,0.0
0.99,0.0027671663551903634,77.5,0,60,3.0,0,0.0
0.995,0.0015425553464444616,77.5,0,60,3.0,0,0.0
1.0,0.0009638206637011801,77.5,0,60,3.0,0,0.0
1.005,0.0009804935156568228,77.5,0,60,3.0,0,0.0
1.01,0.0018793744894085216,77.5,0,60,3.0,0,0.0
1.015,0.004535525206900863,77.5,0,60,3.0,0,0.0
1.02,0.010832767979632273,77.5,0,60,3.0,0,0.0
1.025,0.024208003392322392,77.5,0,60,3.0,0,0.0
1.03,0.0500971897335304,77.5,0,60,3.0,0,0.0
1.035,0.09582894921774403,77.5,0,60,3.0,0,0.0
1.04,0.16937896721820658,77.5,0,60,3.0,0,0.0
1.045,0.27661303008991756,77.5,0,60,3.0,0,0.0
1.05,0.4173782800009149,77.5,0,60,3.0,0,0.0
1.055,0.5818720934538056,77.5,0,60,3.0,0,0.0
1.06,0.7494718801585675,77.5,0,60,3.0,0,0.0
1.065,0.891813020752378,77.5,0,60,3.0,0,0.0
1.07,0.9800361632936612,77.5,0,60,3.0,0,0.0
1.075,0.993574479225126,77.50000249158927,1,60,3.0,0,5.8625629903604824e-08
1.08,0.9263438449375362,77.50000379993156,0,60,3.0,0,8.941015440701877e-08
1.085,0.7873015962290536,77.50000591356006,0,60,3.0,0,1.3914258963321865e-07
1.09,0.5959516244629897,77.50000948821413,0,60,3.0,0,2.232520972377054e-07
1.095,0.376910120078773,77.50001585275675,0,60,3.0,0,3.730060410923804e-07
1.1,0.15739335672107918,77.50002775258693,0,60,3.0,0,6.530020454299708e-07
1.105,-0.033361226269301235,77.50005088320476,0,60,3.0,0,1.1972518768074865e-06
1.11,-0.1680180840843834,77.50009697753961,0,60,3.0,0,2.2818244614801885e-06
1.115,-0.23069703190837854,77.50018985514251,0,60,3.0,0,4.4671798237312244e-06
1.12,-0.22587267821131068,77.50037693597443,0,60,3.0,0,8.86908175128637e-06
1.125,-0.17718181630665902,77.5007504971461,0,60,3.0,0,1.7658756378830946e-05
1.13,-0.11494332516451301,77.50148568815435,0,60,3.0,0,3.495736833756649e-05
1.135,-0.061810214049552864,77.5029063011008,0,60,3.0,0,6.838355531278787e-05
1.14,-0.026546104631500547,77.50559469328022,0,60,3.0,0,0.0001316398418874301
1.145,-0.00719600351942686,77.51056896157553,0,60,3.0,0,0.00024868144883598953
1.15,0.0022072757983807078,77.51955777873579,0,60,3.0,0,0.00046018302907735713
1.155,0.006917199873730717,77.53540961162948,0,60,3.0,0,0.0008331673324582479
1.16,0.01004859748264829,77.56267550080591,0,60,3.0,0,0.0014747176660213936
1.165,0.013037082251128167,77.60839895060144,0,60,3.0,0,0.0025505635435633047
1.17,0.01645163937690478,77.68312739222574,0,60,3.0,0,0.004308879817076291
1.175,0.020526639934696615,77.80212156747965,0,60,3.0,0,0.007108742764226944
1.18,0.02539629541761738,77.98667804053113,0,60,3.0,0,0.011451248012497217
1.185,0.031171612185577933,78.2653960540608,0,60,3.0,0,0.018009318919077675
1.19,0.03795853426638131,78.67512045415272,0,60,3.0,0,0.0276498930388875
1.195,0.0458588961882057,79.26119444970924,0,60,3.0,0,0.04143986940492322
1.2,0.054966995891435555,80.07658695093733,0,60,3.0,0,0.060625575316172374
1.205,0.06536491004445595,81.17945433275491,0,60,3.0,1,0.08657539606482152
1.21,0.07711726085088699,82.62879178438199,0,60,3.0,1,0.12067745375016443
1.215,0.09026570629555215,84.47805091356526,0,60,3.0,1,0.16418943326035895
1.22,0.10482339848670268,86.76695055985479,0,60,3.0,1,0.2180458955259951
1.225,0.12076968927580028,89.51215426574176,0,60,3.0,1,0.28263892389980605
1.23,0.13804539501007884,92.69795756330784,0,60,3.0,1,0.35759900148959617
1.235,0.15654895051787066,96.26851367759303,0,60,3.0,1,0.44161208653160083
1.24,0.17613378141900526,100.12330495994888,0,60,3.0,1,0.5323130578811501
1.245,0.19660720058055794,104.11743307542135,0,60,3.0,1,0.6262925429510905
1.25,0.21773108748496234,108.0677995687299,0,60,3.0,1,0.7192423427936446
1.255,0.23922453870058807,111.76540786080702,0,60,3.0,1,0.806244890842518
1.26,0.2607685857914563,114.99296001198383,0,60,3.0,1,0.8821872943996194
1.265,0.2820129681603682,117.54584870617109,0,60,3.0,1,0.9422552636746138
1.27,0.30258482867153996,119.2537975193284,0,60,3.0,1,0.9824422945724329
1.275,0.3220990771751686,120.0,0,60,3.0,1,1.0
1.28,0.3401700499968971,119.73478616852705,0,60,3.0,1,0.9937596745535777
1.285,0.3564239911198326,118.48161074436288,0,60,3.0,1,0.964273193985009
1.29,0.3705118017738417,116.33437700317083,0,60,3.0,1,0.9137500471334312
1.295,0.3821214567925213,113.44653664567393,0,60,3.0,1,0.8458008622511513
1.3,0.39098947374066967,110.0137397798626,0,60,3.0,1,0.7650291712908848
1.305,0.3969108472035567,106.25277411123389,0,60,3.0,1,0.6765358614407975
1.31,0.3997469255491936,102.379945660435,0,60,3.0,1,0.5854104861278823
1.315,0.3994308076379137,98.59186644889243,0,60,3.0,1,0.4962792105621749
1.32,0.3959699661768434,95.05091722544557,0,60,3.0,1,0.4129627582457782
1.325,0.38944595408114946,91.87663925411117,0,60,3.0,1,0.33827386480261573
1.33,0.38001120995358023,89.14321850764775,0,60,3.0,1,0.2739580825328881
1.335,0.3678831374098315,86.88228150405848,0,60,3.0,1,0.22075956480137607
1.34,0.35333577933796634,85.08958077085171,0,60,3.0,1,0.1785783710788638
1.345,0.33668953221163944,83.73387384780025,0,60,3.0,1,0.1466793846541236
1.35,0.3182994390982644,82.76636774511343,0,60,3.0,1,0.12391453517913947
1.355,0.29854265738230645,82.12942061521238,0,60,3.0,1,0.10892754388735017
1.36,0.2778057157821067,81.76364371168687,0,60,3.0,1,0.10032102851027924
1.365,0.2564721553719815,81.61301314306044,0,60,3.0,1,0.09677677983671629
1.37,0.23491109433464996,81.62799466338542,0,60,3.0,1,0.09712928619730406
1.375,0.21346717185309805,81.76695761370226,0,60,3.0,1,0.10039900267534729
1.38,0.19245222055656455,81.99629623494059,0,60,3.0,1,0.10579520552801382
1.385,0.17213889801761392,82.28970640800449,0,60,3.0,1,0.11269897430598803
1.39,0.15275638501270183,82.62701710307833,0,60,3.0,1,0.12063569654301953
1.395,0.13448814019607322,82.99288504130256,0,60,3.0,1,0.12924435391300135
1.4,0.11747159495449566,83.37555924692441,0,60,3.0,1,0.13824845286880966
1.405,0.10179958433370105,83.76583043233612,0,60,3.0,1,0.14743130429026158
1.41,0.08752324394101413,84.15620940218066,0,60,3.0,1,0.15661669181601562
1.415,0.07465606047174059,84.54033150564439,0,60,3.0,1,0.16565485895633855
1.42,0.0631787448609295,84.91255790226458,0,60,3.0,1,0.1744131271121078
1.425,0.05304460019959574,85.26773383409369,0,60,3.0,1,0.182770207861028
1.43,0.044185078305849994,85.60106363445495,0,60,3.0,1,0.19061326198717518
1.435,0.03651525513023255,85.90806713082313,0,60,3.0,1,0.19783687366642652
1.44,0.0299390014708757,86.18458904516632,0,60,3.0,1,0.2043432716509722
1.445,0.024353677220580638,86.42683991565524,0,60,3.0,1,0.21004329213306439
1.45,0.01965423034339045,86.63145296320879,0,60,3.0,1,0.2148577167813832
1.455,0.015736632374757337,86.79554590696114,0,60,3.0,1,0.218718727222615
1.46,0.012500627640593535,86.91678008455858,0,60,3.0,1,0.22157129610726076
1.465,0.009851811652115898,86.9934116100258,0,60,3.0,1,0.22337439082413652
1.47,0.007703084175428559,87.0243309843258,0,60,3.0,1,0.22410190551354825
1.475,0.005975544002062424,87.00908880101858,0,60,3.0,1,0.2237432659063195
1.48,0.004598905818663047,86.94790613701386,0,60,3.0,1,0.22230367381209082
1.485,0.0035115256454839104,86.84166899981275,0,60,3.0,1,0.21980397646618244
1.49,0.002660121266303676,86.6919068819151,0,60,3.0,1,0.21628016192741417
1.495,0.0019992692560877024,86.50075607951777,0,60,3.0,1,0.21178249598865342
1.5,0.0014907520044639367,86.27090897359844,0,60,3.0,1,0.20637432879055148
1.505,0.0011028178277539807,86.00555094222749,0,60,3.0,1,0.20013061040535263
1.51,0.0008094059938923333,85.7082869635257,0,60,3.0,1,0.19313616384766338
1.515,0.0005893771793717645,85.38306026845892,0,60,3.0,1,0.1854837710225628
1.52,0.0004257792353490551,85.03406560313258,0,60,3.0,1,0.17727213183841353
1.525,0.0003051686392901525,84.66565975665422,0,60,3.0,1,0.16860375898009933
1.53,0.00021699992642659966,84.2822720027081,0,60,3.0,1,0.15958287065195523
1.535,0.00015308884054097838,83.88831699514871,0,60,3.0,1,0.15031334106232266
1.54,0.00010714989329311098,83.48811245900696,0,60,3.0,1,0.14089676374134014
1.545,7.440535854020571e-05,83.0858037409954,0,60,3.0,1,0.13143067625871535
1.55,5.1260276743925106e-05,82.68529694362411,0,60,3.0,1,0.12200698690880259
1.555,3.503659887882241e-05,82.29020198220566,0,60,3.0,1,0.11271063487542726
1.56,2.375894748103639e-05,81.90378649321408,0,60,3.0,1,0.10361850572268436
1.565,1.5984413869232557e-05,81.52894110457248,0,60,3.0,1,0.09479861422523486
1.57,1.0669166579899869e-05,81.16815617144748,0,60,3.0,1,0.08630955697523478
1.575,7.06526633560511e-06,80.82350970120721,0,60,3.0,1,0.07820022826369917
1.58,4.641847214699205e-06,80.49666585205212,0,60,3.0,1,0.07050978475416748
1.585,3.025641074479182e-06,80.18888310217035,0,60,3.0,1,0.06326783769812591
1.59,1.9566278676921314e-06,79.90103095754084,0,60,3.0,1,0.05649484605978447
1.595,1.2553456560008793e-06,79.63361390077021,0,60,3.0,1,0.05020268001812269
1.6,7.990660428214668e-07,79.38680118140502,0,60,3.0,1,0.04439532191541221
1.605,5.046221251618276e-07,79.16046100780952,0,60,3.0,1,0.03906967077198862
1.61,3.1616527078858815e-07,78.95419771716094,0,60,3.0,1,0.034216416874375
1.615,1.9652884407760343e-07,78.76739056652946,0,60,3.0,1,0.029820954506575455
1.62,1.2120002189836396e-07,78.59923289601649,0,60,3.0,1,0.02586430343568208
1.625,7.415549848886236e-08,78.44877055523571,0,60,3.0,1,0.022324013064369676
1.63,4.501406988770349e-08,78.31493864740304,0,60,3.0,1,0.019175026997718572
1.635,0.0,78.19659582148978,0,60,3.0,1,0.01639048991740658
1.64,0.0,78.09255552344018,0,60,3.0,1,0.013942482904474886
1.645,0.0,78.00161379448677,0,60,3.0,1,0.011802677517335818
1.65,0.0,77.92257337147358,0,60,3.0,1,0.009942902858201772
1.655,0.0,77.85426399556034,0,60,3.0,1,0.00833562342494929
1.66,0.0,77.79555896792559,0,60,3.0,1,0.006954328657072625
1.665,0.0,77.74538810172116,0,60,3.0,1,0.005773837687556739
1.67,0.0,77.70274730749595,0,60,3.0,1,0.004770524882257753
1.675,0.0,77.66670511470362,0,60,3.0,1,0.003922473287143943
1.68,0.0,77.63640647582612,0,60,3.0,1,0.003209564137085194
1.685,0.0,77.61107422393171,0,60,3.0,1,0.002613511151334331
1.69,0.0,77.59000856154358,0,60,3.0,1,0.0021178485069078628
1.695,0.0,77.57258495126403,0,60,3.0,1,0.0017078812062125588
1.7,0.0,77.55825075956768,0,60,3.0,1,0.001370606107474928
1.705,0.0,77.54652097741523,0,60,3.0,1,0.001094611233299461
1.71,0.0,77.53697330756953,0,60,3.0,1,0.0008699601781064731
1.715,0.0,77.52924287118194,0,60,3.0,1,0.000688067557222011
1.72,0.0,77.52301674750609,0,60,3.0,1,0.0005415705295550812
1.725,0.0,77.51802852227003,0,60,3.0,1,0.00042420052400068606
1.73,0.0,77.51405298370467,0,60,3.0,1,0.00033065844010994784
1.735,0.0,77.51090107153125,0,60,3.0,1,0.00025649580073531175
1.74,0.0,77.50841515405568,0,60,3.0,1,0.00019800362483960379
1.745,0.0,77.50646468230802,0,60,3.0,1,0.00015211017195343522
1.75,0.0,77.50494224804716,0,60,3.0,1,0.00011628818934488716
1.755,0.0,77.50376005436644,0,60,3.0,1,8.847186744560531e-05
1.76,0.0,77.50284679336629,0,60,3.0,1,6.698337332442647e-05
1.765,0.0,77.50214491457672,0,60,3.0,1,5.046857827571383e-05
1.77,0.0,77.50160826011297,0,60,3.0,1,3.7841414422914834e-05
1.775,0.0,77.50120003749603,0,60,3.0,1,2.823617637726356e-05
1.78,0.0,77.50089109821971,0,60,3.0,1,2.0967016934371393e-05
1.785,0.0,77.50065848907005,0,60,3.0,1,1.5493860471719124e-05
1.79,0.0,77.50048424350034,0,60,3.0,1,1.1393964713841556e-05
1.795,0.0,77.5003543816815,0,60,3.0,1,8.338392505974673e-06
1.8,0.0,77.5002580898728,0,60,3.0,1,6.072702889442178e-06
1.805,0.0,77.50018705223314,0,60,3.0,1,4.401229015162672e-06
1.81,0.0,77.50013491090827,0,60,3.0,1,3.1743743122928316e-06
1.815,0.0,77.5000968330184,0,60,3.0,1,2.2784239624396672e-06
1.82,0.0,77.50006916591201,0,60,3.0,1,1.627433223749155e-06
1.825,0.0,77.50004916465329,0,60,3.0,1,1.1568153715469474e-06
1.83,0.0,77.50003477811896,0,60,3.0,1,8.183086813861497e-07
1.835,0.0,77.50002448225581,0,60,3.0,1,5.760530778870281e-07
1.84,0.0,77.5000171509827,0,60,3.0,1,4.035525341136878e-07
1.845,0.0,77.50001195690616,0,60,3.0,1,2.81338968561078e-07
1.85,0.0,77.50000829546754,0,60,3.0,1,1.9518747147712395e-07
1.855,0.001684486749771458,77.5000057273688,0,60,3.0,1,1.3476161885752363e-07
1.86,0.003097557930867117,77.5000039351534,0,60,3.0,1,9.259184473782678e-08
1.865,0.005475106668887023,77.50000269066989,0,60,3.0,1,6.33098797125593e-08
1.87,0.00930222931468658,77.50000183084427,0,60,3.0,1,4.3078688684224345e-08
1.875,0.01519157517868857,77.50000123975146,0,60,3.0,1,2.917062247701431e-08
1.88,0.023847336626128316,77.50000083543003,0,60,3.0,1,1.96571771566061e-08
1.885,0.0359830743700859,77.50000056024471,0,60,3.0,1,1.3182228579299751e-08
1.89,0.05218887796857759,77.5000003738847,0,60,3.0,1,8.797287123610765e-09
1.895,0.0727577001223134,77.50000024830751,0,60,3.0,1,5.8425297645632836e-09
1.9,0.0974992498694751,77.5000001641097,0,60,3.0,1,3.861404539908536e-09
1.905,0.12558706050443358,77.50000010793714,0,60,3.0,1,2.53969741446353e-09
1.91,0.15549263588878245,77.50000007064799,0,60,3.0,1,1.662305535051821e-09
1.915,0.1850529723539114,77.50000004601726,0,60,3.0,1,1.082759126802557e-09
1.92,0.21169159439317053,77.50000002982868,0,60,3.0,1,7.018513770162827e-10
1.925,0.23277292922115492,77.50000001924154,0,60,3.0,1,4.5274211569288607e-10
1.93,0.24602692519491282,77.500000012352,0,60,3.0,1,2.906353850395295e-10
1.935,0.24995056064839283,77.50000000789092,0,60,3.0,1,1.856686621442136e-10
1.94,0.24408826520424054,77.5000000050166,0,60,3.0,1,1.180376998758327e-10
1.945,0.22911894216865275,77.50000000317384,0,60,3.0,1,7.467854308796471e-11
1.95,0.20672661788705934,77.50000000199826,0,60,3.0,1,4.701786672419129e-11
1.955,0.17928878030241233,77.50000000125202,0,60,3.0,1,2.9459269011139815e-11
1.96,0.14946211903866036,77.50000000078066,0,60,3.0,1,1.8368449245291926e-11
1.965,0.1197651512573837,77.5000000004844,0,60,3.0,1,1.1397774227696251e-11
1.97,0.09224675744988023,77.50000000029911,0,60,3.0,1,7.037884001072277e-12
1.975,0.06829565320281596,77.5000000001838,0,60,3.0,1,4.3247810561511225e-12
1.98,0.04860224607515734,77.50000000011241,0,60,3.0,1,2.6448908422881848e-12
1.985,0.03324612389699793,77.50000000006841,0,60,3.0,1,1.609671872917234e-12
1.99,0.021859876340472782,77.50000000004142,0,60,3.0,1,9.746974469367963e-13
1.995,0.01381595518554205,77.50000000002497,0,60,3.0,1,5.87493452579057e-13
2.0,0.008394095110402422,77.50000000001498,0,60,3.0,1,3.524291969370097e-13
2.005,0.0049052535271608,77.50000000000894,0,60,3.0,1,2.1032064978498967e-13
2.01,0.0027671663551903634,77.50000000000531,0,60,3.0,1,1.2505552149377764e-13
2.015,0.0015425553464444616,77.50000000000314,0,60,3.0,1,7.389644451905042e-14
2.02,0.0009638206637011801,77.50000000000185,0,60,3.0,1,4.346849677591201e-14
2.025,0.0009804935156568228,77.50000000000108,0,60,3.0,1,2.5412351961302408e-14
2.03,0.0018793744894085216,77.50000000000063,0,60,3.0,1,1.4712414293385605e-14
2.035,0.004535525206900863,77.50000000000037,0,60,3.0,1,8.693699355182403e-15
2.04,0.010832767979632273,77.50000000000021,0,60,3.0,1,5.015595781836002e-15
2.045,0.024208003392322392,77.50000000000011,0,60,3.0,1,2.6749844169792007e-15
2.05,0.0500971897335304,77.50000000000007,0,60,3.0,1,1.6718652606120004e-15
2.055,0.09582894921774403,77.50000000000004,0,60,3.0,1,1.0031191563672002e-15
2.06,0.16937896721820658,77.50000000000003,0,60,3.0,1,6.687461042448002e-16
2.065,0.27661303008991756,77.50000000000001,0,60,3.0,1,3.343730521224001e-16
2.07,0.4173782800009149,77.5,0,60,3.0,1,0.0
2.075,0.5818720934538056,77.5,0,60,3.0,1,0.0
2.08,0.7494718801585675,77.5,0,60,3.0,1,0.0
2.085,0.891813020752378,77.5,0,60,3.0,1,0.0
2.09,0.9800361632936612,77.5,0,60,3.0,1,0.0
2.095,0.993574479225126,77.5000024950473,1,60,3.0,1,5.8706995238989134e-08
2.1,0.9263438449375362,77.50000375849318,0,60,3.0,1,8.843513362134057e-08
2.105,0.7873015962290536,77.50000576910975,0,60,3.0,1,1.3574375877985458e-07
2.11,0.5959516244629897,77.50000910888895,0,60,3.0,1,2.1432679873482008e-07
2.115,0.376910120078773,77.50001493160252,0,60,3.0,1,3.5133182403596413e-07
2.12,0.15739335672107918,77.5000255695211,0,60,3.0,1,6.016357905777755e-07
2.125,-0.033361226269301235,77.50004576207117,0,60,3.0,1,1.076754615697235e-06
2.13,-0.1680180840843834,77.50008508819586,0,60,3.0,1,2.002075196702101e-06
2.135,-0.23069703190837854,77.50016266149757,0,60,3.0,1,3.827329354568492e-06
2.14,-0.22587267821131068,77.50031595083036,0,60,3.0,1,7.434137184833055e-06
2.145,-0.17718181630665902,77.50061688523299,0,60,3.0,1,1.4514946658503986e-05
2.15,-0.11494332516451301,77.50120039677721,0,60,3.0,1,2.824463005193887e-05
2.155,-0.061810214049552864,77.50231346534846,0,60,3.0,1,5.443447878740378e-05
2.16,-0.026546104631500547,77.50439671869992,0,60,3.0,1,0.00010345220470405954
2.165,-0.00719600351942686,77.50821569935404,0,60,3.0,1,0.00019331057303622188
2.17,0.0022072757983807078,77.51506467288199,0,60,3.0,1,0.00035446289134095904
2.175,0.006917199873730717,77.52707136715546,0,60,3.0,1,0.0006369733448342926
2.18,0.01004859748264829,77.54763451316305,0,60,3.0,1,0.0011208120744246276
2.185,0.013037082251128167,77.58202471776275,0,60,3.0,1,0.0019299933591235138
2.19,0.01645163937690478,77.63816929854207,0,60,3.0,1,0.0032510423186368717
2.195,0.020526639934696615,77.72761899891924,0,60,3.0,1,0.005355741151040949
2.2,0.02539629541761738,77.86665519753228,0,60,3.0,1,0.008627181118406631
2.205,0.031171612185577933,78.07743861114501,0,60,3.0,1,0.013586790850470888
2.21,0.03795853426638131,78.38902695888922,0,60,3.0,1,0.02091828138562866
2.215,0.0458588961882057,78.83800818984425,0,60,3.0,1,0.03148254564339401
2.22,0.054966995891435555,79.46842379043065,0,60,3.0,1,0.046315853892485846
2.225,0.06536491004445595,80.33061667635269,0,60,3.0,1,0.06660274532594565
2.23,0.07711726085088699,81.478657744938,0,60,3.0,1,0.09361547635148246
2.235,0.09026570629555215,82.96611002699977,0,60,3.0,1,0.12861435357646522
2.24,0.10482339848670268,84.84009485117352,0,60,3.0,1,0.17270811414525924
2.245,0.12076968927580028,87.13392597640826,0,60,3.0,1,0.22668061120960623
2.25,0.13804539501007884,89.85894336803423,0,60,3.0,1,0.2907986674831584
2.255,0.15654895051787066,92.99654686910407,0,60,3.0,1,0.3646246322142133
2.26,0.17613378141900526,96.4917169559891,0,60,3.0,1,0.44686392837621425
2.265,0.19660720058055794,100.24942305018932,0,60,3.0,1,0.5352805423573957
2.27,0.21773108748496234,104.13518312180872,0,60,3.0,1,0.6267101911013817
2.275,0.23922453870058807,107.9806163769576,0,60,3.0,1,0.7171909735754729
2.28,0.2607685857914563,111.59415000783865,0,60,3.0,1,0.8022152943020858
2.285,0.2820129681603682,114.77619649389209,0,60,3.0,1,0.8770869763268726
2.29,0.30258482867153996,117.33726280597426,0,60,3.0,1,0.9373473601405709
2.295,0.3220990771751686,119.11676822855112,0,60,3.0,1,0.9792180759659088
2.3,0.3401700499968971,120.0,0,60,3.0,1,1.0
2.305,0.3564239911198326,119.9307331115752,0,60,3.0,1,0.9983701908605928
2.31,0.3705118017738417,118.9175974986838,0,60,3.0,1,0.9745317058513836
2.315,0.3821214567925213,117.03320410260207,0,60,3.0,1,0.930193037708284
2.32,0.39098947374066967,114.40616519711772,0,60,3.0,1,0.8683803575792404
2.325,0.3969108472035567,111.20724128607212,0,60,3.0,1,0.7931115596722852
2.33,0.3997469255491936,107.63170063411125,0,60,3.0,1,0.708981191390853
2.335,0.3994308076379137,103.88043014450193,0,60,3.0,1,0.6207160034000454
2.34,0.3959699661768434,100.14232342849641,0,60,3.0,1,0.5327605512587391
2.345,0.38944595408114946,96.580032392726,0,60,3.0,1,0.4489419386523764
2.35,0.38001120995358023,93.32042761436257,0,60,3.0,1,0.3722453556320605
2.355,0.3678831374098315,90.45024438360306,0,60,3.0,1,0.3047116325553662
2.36,0.35333577933796634,88.0165735885304,0,60,3.0,1,0.2474487903183625
2.365,0.33668953221163944,86.03123100878861,0,60,3.0,1,0.20073484726561433
2.37,0.3182994390982644,84.47768427158562,0,60,3.0,1,0.1641808063902498
2.375,0.29854265738230645,83.31914425655404,0,60,3.0,1,0.13692104133068328
2.38,0.2778057157821067,82.50659004090923,0,60,3.0,1,0.11780211860962896
2.385,0.2564721553719815,81.98581116195565,0,60,3.0,1,0.10554849792836829
2.39,0.23491109433464996,81.70292592125253,0,60,3.0,1,0.09889237461770656
2.395,0.21346717185309805,81.60818956190883,0,60,3.0,1,0.09666328380961953
2.4,0.19245222055656455,81.65818681746455,0,60,3.0,1,0.09783968982269538
2.405,0.17213889801761392,81.81668455993696,0,60,3.0,1,0.10156904846910493
2.41,0.15275638501270183,82.05450301165449,0,60,3.0,2,0.10716477674481151
2.415,0.13448814019607322,82.34876686016689,0,60,3.0,2,0.11408863200392683
2.42,0.11747159495449566,82.68184745982325,0,60,3.0,2,0.12192582258407636
2.425,0.10179958433370105,83.04023106346655,0,60,3.0,2,0.1303583779639188
2.43,0.08752324394101413,83.41346746591435,0,60,3.0,2,0.1391404109626906
2.435,0.07465606047174059,83.79328285470342,0,60,3.0,2,0.14807724364008049
2.44,0.0631787448609295,84.1728870216122,0,60,3.0,2,0.15700910639087523
2.445,0.05304460019959574,84.5464696298717,0,60,3.0,2,0.16579928540874575
2.45,0.044185078305849994,84.90886059231357,0,60,3.0,2,0.17432613158384877
2.455,0.03651525513023255,85.25532179626946,0,60,3.0,2,0.1824781599122225
2.46,0.0299390014708757,85.58143722891543,0,60,3.0,2,0.1901514642097749
2.465,0.024353677220580638,85.88307248935271,0,60,3.0,2,0.19724876445535797
2.47,0.01965423034339045,86.15638018885323,0,60,3.0,2,0.20367953385537022
2.475,0.015736632374757337,86.39783327928087,0,60,3.0,2,0.20936078304190292
2.48,0.012500627640593535,86.60427312857465,0,60,3.0,2,0.21421819126057992
2.485,0.009851811652115898,86.77296292498974,0,60,3.0,2,0.2181873629409351
2.49,0.007703084175428559,86.90163978459339,0,60,3.0,2,0.22121505375513847
2.495,0.005975544002062424,86.9885609412461,0,60,3.0,2,0.22326025744108485
2.5,0.004598905818663047,87.0325408276639,0,60,3.0,2,0.22429507829797396
2.505,0.0035115256454839104,87.03297689853875,0,60,3.0,2,0.22430533878914702
2.51,0.002660121266303676,86.98986284516437,0,60,3.0,2,0.22329089047445572
2.515,0.0019992692560877024,86.90378850197658,0,60,3.0,2,0.2212656118112136
2.52,0.0014907520044639367,86.77592630638017,0,60,3.0,2,0.21825708956188639
2.525,0.0011028178277539807,86.60800467318072,0,60,3.0,2,0.2143059923101345
2.53,0.0008094059938923333,86.40226909402966,0,60,3.0,2,0.20946515515363912
2.535,0.0005893771793717645,86.1614321695787,0,60,3.0,2,0.2037984039900871
2.54,0.0004257792353490551,85.88861412108902,0,60,3.0,2,0.19737915579032989
2.545,0.0003051686392901525,85.58727560093486,0,60,3.0,2,0.19028883766905552
2.55,0.00021699992642659966,85.26114482043914,0,60,3.0,2,0.18261517224562687
2.555,0.00015308884054097838,84.91414113369896,0,60,3.0,2,0.17445037961644616
2.56,0.00010714989329311098,84.55029725548142,0,60,3.0,2,0.16588934718779824
2.565,7.440535854020571e-05,84.17368225126495,0,60,3.0,2,0.15702781767682233
2.57,5.1260276743925106e-05,83.78832732279227,0,60,3.0,2,0.1479606428892299
2.575,3.503659887882241e-05,83.3981562308963,0,60,3.0,2,0.13878014660932483
2.58,2.375894748103639e-05,83.00692195925262,0,60,3.0,2,0.12957463433535582
2.585,1.5984413869232557e-05,82.6181509404913,0,60,3.0,2,0.12042708095273658
2.59,1.0669166579899869e-05,82.23509585343183,0,60,3.0,2,0.11141402008074892
2.595,7.06526633560511e-06,81.86069767131502,0,60,3.0,2,0.10260465108976526
2.6,4.641847214699205e-06,81.49755730985156,0,60,3.0,2,0.09406017199650725
2.605,3.025641074479182e-06,81.14791690391355,0,60,3.0,2,0.08583333891561304
2.61,1.9566278676921314e-06,80.81365044457142,0,60,3.0,2,0.0779682457546217
2.615,1.2553456560008793e-06,80.49626324385221,0,60,3.0,2,0.07050031162005205
2.62,7.990660428214668e-07,80.19689947078584,0,60,3.0,2,0.06345645813613734
2.625,5.046221251618276e-07,79.91635682432248,0,60,3.0,2,0.056855454689940646
2.63,3.1616527078858815e-07,79.65510727941233,0,60,3.0,2,0.050708406574407866
2.635,1.9652884407760343e-07,79.41332276242515,0,60,3.0,2,0.045019359115885955
2.64,1.2120002189836396e-07,79.19090457947316,0,60,3.0,2,0.03978599010525072
2.645,7.415549848886236e-08,78.98751543252128,0,60,3.0,2,0.035000363118147707
2.65,4.501406988770349e-08,78.80261290834281,0,60,3.0,2,0.030649715490419033
2.655,0.0,78.63548340820051,0,60,3.0,2,0.026717256663541508
2.66,0.0,78.4852755946948,0,60,3.0,2,0.023182955169289365
2.665,0.0,78.35103255931459,0,60,3.0,2,0.020024295513284454
2.67,0.0,78.23172205271597,0,60,3.0,2,0.017216989475669794
2.675,0.0,78.12626426290419,0,60,3.0,2,0.01473562971539262
2.68,0.0,78.03355676823388,0,60,3.0,2,0.012554276899620685
2.685,0.0,77.95249642725605,0,60,3.0,2,0.010646974758965906
2.69,0.0,77.88199809170625,0,60,3.0,2,0.008988190393088256
2.695,0.0,77.82101013916764,0,60,3.0,2,0.007553179745120949
2.7,0.0,77.76852691602545,0,60,3.0,2,0.006318280377069427
2.705,0.0,77.72359825811775,0,60,3.0,2,0.005261135485123452
2.71,0.0,77.68533631573966,0,60,3.0,2,0.004360854487992035
2.715,0.0,77.65291995190405,0,60,3.0,2,0.003598116515389486
2.72,0.0,77.62559700915529,0,60,3.0,2,0.0029552237448302442
2.725,0.0,77.60268475239863,0,60,3.0,2,0.002416111821144247
2.73,0.0,77.58356879509424,0,60,3.0,2,0.00196632459045264
2.735,0.0,77.56770080589084,0,60,3.0,2,0.0015929601386079305
2.74,0.0,77.55459527451477,0,60,3.0,2,0.0012845946944651133
2.745,0.0,77.54382559159987,0,60,3.0,2,0.0010311903905851657
2.75,0.0,77.53501966911314,0,60,3.0,2,0.0008239922144268268
2.755,0.0,77.52785529786952,0,60,3.0,2,0.00065541877340051
2.76,0.0,77.52205540785289,0,60,3.0,2,0.000518950773009157
2.765,0.0,77.51738336692351,0,60,3.0,2,0.00040902039820025495
2.77,0.0,77.51363842497241,0,60,3.0,2,0.00032090411699795473
2.775,0.0,77.51065138439854,0,60,3.0,2,0.00025062080937747103
2.78,0.0,77.50828055441168,0,60,3.0,2,0.00019483657439255854
2.785,0.0,77.5064080263656,0,60,3.0,2,0.00015077709095541702
2.79,0.0,77.50493629018625,0,60,3.0,2,0.00011614800438237313
2.795,0.0,77.50378519791671,0,60,3.0,2,8.906348039324578e-05
2.8,0.0,77.50288926928084,0,60,3.0,2,6.798280660806246e-05
2.805,0.0,77.50219532571992,0,60,3.0,2,5.165472282174853e-05
2.81,0.0,77.50166043327717,0,60,3.0,2,3.9069018286267345e-05
2.815,0.0,77.50125013066801,0,60,3.0,2,2.941483924734498e-05
2.82,0.0,77.50093691654406,0,60,3.0,2,2.204509515442677e-05
2.825,0.0,77.50069896901469,0,60,3.0,2,1.644632975746711e-05
2.83,0.0,77.50051907063157,0,60,3.0,2,1.2213426625147109e-05
2.835,0.0,77.50038371299648,0,60,3.0,2,9.028541093665112e-06
2.84,0.0,77.50028235668749,0,60,3.0,2,6.643686764525281e-06
2.845,0.0,77.50020682411044,0,60,3.0,2,4.866449657302998e-06
2.85,0.0,77.50015080500992,0,60,3.0,2,3.5483531746649534e-06
2.855,0.0,77.50010945658438,0,60,3.0,2,2.575449044303134e-06
2.86,0.0,77.50007908234369,0,60,3.0,2,1.8607610279693344e-06
2.865,0.0,77.50005687595332,0,60,3.0,2,1.3382577251644868e-06
2.87,0.0,77.50004071827436,0,60,3.0,2,9.580770438333276e-07
2.875,0.0,77.5000290176045,0,60,3.0,2,6.827671648031409e-07
2.88,0.0,77.5000205847344,0,60,3.0,2,4.843466917784955e-07
2.885,0.0,77.50001453585212,0,60,3.0,2,3.420200498032286e-07
2.89,0.0,77.50001021756106,0,60,3.0,2,2.4041320129446617e-07
2.895,0.0,77.50000714933266,0,60,3.0,2,1.6821959200248838e-07
2.9,0.0,77.5000049796095,0,60,3.0,2,1.1716728234954216e-07
2.905,0.001684486749771458,77.50000345252305,0,60,3.0,2,8.123583637932503e-08
2.91,0.003097557930867117,77.50000238280994,0,60,3.0,2,5.606611620458031e-08
2.915,0.005475106668887023,77.50000163701907,0,60,3.0,2,3.851809571428663e-08
2.92,0.00930222931468658,77.50000111951415,0,60,3.0,2,2.6341509470405393e-08
2.925,0.01519157517868857,77.50000076210877,0,60,3.0,2,1.7931971034854273e-08
2.93,0.023847336626128316,77.50000051643521,0,60,3.0,2,1.2151416646755773e-08
2.935,0.0359830743700859,77.50000034835837,0,60,3.0,2,8.196667522497591e-09
2.94,0.05218887796857759,77.50000023390967,0,60,3.0,2,5.503757031821057e-09
2.945,0.0727577001223134,77.50000015634414,0,60,3.0,2,3.678685716830146e-09
2.95,0.0974992498694751,77.50000010402233,0,60,3.0,2,2.4475843260648508e-09
2.955,0.12558706050443358,77.50000006889427,0,60,3.0,2,1.621041559808552e-09
2.96,0.15549263588878245,77.5000000454204,0,60,3.0,2,1.0687154586134164e-09
2.965,0.1850529723539114,77.50000002980784,0,60,3.0,2,7.013608517488191e-10
2.97,0.21169159439317053,77.5000000194725,0,60,3.0,2,4.5817634653597934e-10
2.975,0.23277292922115492,77.50000001266264,0,60,3.0,2,2.9794444558587306e-10
2.98,0.24602692519491282,77.50000000819668,0,60,3.0,2,1.9286303273367915e-10
2.985,0.24995056064839283,77.50000000528158,0,60,3.0,2,1.2427241980570696e-10
2.99,0.24408826520424054,77.50000000338767,0,60,3.0,2,7.970985440325047e-11
2.995,0.22911894216865275,77.50000000216296,0,60,3.0,2,5.089325039828991e-11
3.0,0.20672661788705934,77.5000000013747,0,60,3.0,2,3.234591157011249e-11
3.005,0.17928878030241233,77.50000000086972,0,60,3.0,2,2.0463965162943007e-11
3.01,0.14946211903866036,77.50000000054773,0,60,3.0,2,1.2887740547953666e-11
3.015,0.1197651512573837,77.50000000034336,0,60,3.0,2,8.07912168538143e-12
3.02,0.09224675744988023,77.50000000021427,0,60,3.0,2,5.041676879901548e-12
3.025,0.06829565320281596,77.5000000001331,0,60,3.0,2,3.131738006178399e-12
3.03,0.04860224607515734,77.5000000000823,0,60,3.0,2,1.9363543448408188e-12
3.035,0.03324612389699793,77.50000000005066,0,60,3.0,2,1.1920399308163562e-12
3.04,0.021859876340472782,77.50000000003104,0,60,3.0,2,7.302707458353218e-13
3.045,0.01381595518554205,77.50000000001893,0,60,3.0,2,4.453849054270369e-13
3.05,0.008394095110402422,77.5000000000115,0,60,3.0,2,2.7050779916702167e-13
3.055,0.0049052535271608,77.50000000000695,0,60,3.0,2,1.6350842248785364e-13
3.06,0.0027671663551903634,77.50000000000418,0,60,3.0,2,9.830567732398563e-14
3.065,0.0015425553464444616,77.5000000000025,0,60,3.0,2,5.884965717354242e-14
3.07,0.0009638206637011801,77.50000000000149,0,60,3.0,2,3.510917047285201e-14
3.075,0.0009804935156568228,77.50000000000088,0,60,3.0,2,2.0731129231588804e-14
3.08,0.0018793744894085216,77.50000000000053,0,60,3.0,2,1.2371802928528803e-14
3.085,0.004535525206900863,77.50000000000031,0,60,3.0,2,7.356207146692803e-15
3.09,0.010832767979632273,77.50000000000018,0,60,3.0,2,4.3468496775912015e-15
3.095,0.024208003392322392,77.5000000000001,0,60,3.0,2,2.3406113648568006e-15
3.1,0.0500971897335304,77.50000000000006,0,60,3.0,2,1.3374922084896003e-15
3.105,0.09582894921774403,77.50000000000003,0,60,3.0,2,6.687461042448002e-16
3.11,0.16937896721820658,77.50000000000001,0,60,3.0,2,3.343730521224001e-16
3.115,0.27661303008991756,77.50000000000001,0,60,3.0,2,3.343730521224001e-16
3.12,0.4173782800009149,77.5,0,60,3.0,2,0.0
3.125,0.5818720934538056,77.5,0,60,3.0,2,0.0
3.13,0.7494718801585675,77.5,0,60,3.0,2,0.0
3.135,0.891813020752378,77.5,0,60,3.0,2,0.0
3.14,0.9800361632936612,77.5,0,60,3.0,2,0.0
3.145,0.993574479225126,77.50000249070214,1,60,3.0,2,5.8604756331453034e-08
3.15,0.9263438449375362,77.5000037748439,0,60,3.0,2,8.881985656765156e-08
3.155,0.7873015962290536,77.500005833579,0,60,3.0,2,1.372606822555741e-07
3.16,0.5959516244629897,77.50000928366461,0,60,3.0,2,2.1843916730337214e-07
3.165,0.376910120078773,77.500015361103,0,60,3.0,2,3.6143771754883777e-07
3.17,0.15739335672107918,77.50002659138995,0,60,3.0,2,6.256797636230177e-07
3.175,-0.033361226269301235,77.50004815927716,0,60,3.0,2,1.133159462503553e-06
3.18,-0.1680180840843834,77.5000906430617,0,60,3.0,2,2.1327779222701793e-06
3.185,-0.23069703190837854,77.50017533177136,0,60,3.0,2,4.1254534437484836e-06
3.19,-0.22587267821131068,77.50034427932519,0,60,3.0,2,8.100690004486001e-06
3.195,-0.17718181630665902,77.50067876339347,0,60,3.0,2,1.5970903375679934e-05
3.2,-0.11494332516451301,77.50133214821588,0,60,3.0,2,3.1344663903061755e-05
3.205,-0.061810214049552864,77.5025865477528,0,60,3.0,2,6.085994712467415e-05
3.21,-0.026546104631500547,77.50494731977106,0,60,3.0,2,0.00011640752402500125
3.215,-0.00719600351942686,77.50929523851232,0,60,3.0,2,0.00021871149440759086
3.22,0.0022072757983807078,77.5171226889302,0,60,3.0,2,0.0004028867983576594
3.225,0.006917199873730717,77.53088616090623,0,60,3.0,2,0.0007267331977937588
3.23,0.01004859748264829,77.55451044219848,0,60,3.0,2,0.0012825986399641752
3.235,0.013037082251128167,77.59407677734065,0,60,3.0,2,0.00221357123154462
3.24,0.01645163937690478,77.65871339087008,0,60,3.0,2,0.003734432726354739
3.245,0.020526639934696615,77.76167727564739,0,60,3.0,2,0.006157112368173798
3.25,0.02539629541761738,77.92156705033047,0,60,3.0,2,0.009919224713658035
3.255,0.031171612185577933,78.16353698380597,0,60,3.0,2,0.01561263491308162
3.26,0.03795853426638131,78.5202964150463,0,60,3.0,2,0.02400697447167772
3.265,0.0458588961882057,79.03258899051217,0,60,3.0,2,0.036060917423815696
3.27,0.054966995891435555,79.74877354393652,0,60,3.0,2,0.05291231868085935
3.275,0.06536491004445595,80.7231018809971,0,60,3.0,2,0.07583769131757896
3.28,0.07711726085088699,82.01234009388017,0,60,3.0,2,0.1061727080912981
3.285,0.09026570629555215,83.67053603700003,0,60,3.0,2,0.1451890832235302
3.29,0.10482339848670268,85.74200698045453,0,60,3.0,2,0.1939295760106949
3.295,0.12076968927580028,88.25299216597037,0,60,3.0,2,0.25301158037577337
3.3,0.13804539501007884,91.20283520772053,0,60,3.0,2,0.3224196519463653
3.305,0.15654895051787066,94.55594843457419,0,60,3.0,2,0.40131643375468684
3.31,0.17613378141900526,98.2360618659798,0,60,3.0,2,0.48790733802305425
3.315,0.19660720058055794,102.12427180024235,0,60,3.0,2,0.5793946305939377
3.32,0.21773108748496234,106.06210749842371,0,60,3.0,2,0.672049588198205
3.325,0.23922453870058807,109.86021864616963,0,60,3.0,2,0.7614169093216383
3.33,0.2607685857914563,113.31241870434148,0,60,3.0,2,0.8426451459845055
3.335,0.2820129681603682,116.21384448755202,0,60,3.0,2,0.9109139879424005
3.34,0.30258482867153996,118.38110783857866,0,60,3.0,2,0.9619084197312625
3.345,0.3220990771751686,119.6717274950356,0,60,3.0,2,0.9922759410596611
3.35,0.3401700499968971,120.0,0,60,3.0,2,1.0
3.355,0.3564239911198326,119.34686742618811,0,60,3.0,2,0.9846321747338379
3.36,0.3705118017738417,117.76221775269957,0,60,3.0,2,0.9473463000635193
3.365,0.3821214567925213,115.35924796725743,0,60,3.0,2,0.8908058345237043
3.37,0.39098947374066967,112.30178985500262,0,60,3.0,2,0.8188656436471206
3.375,0.3969108472035567,108.78658469160068,0,60,3.0,2,0.736154933920016
3.38,0.3997469255491936,105.02318183622177,0,60,3.0,2,0.6476042784993357
3.385,0.3994308076379137,101.21431013746422,0,60,3.0,2,0.5579837679403347
3.39,0.3959699661768434,97.53923277955604,0,60,3.0,2,0.4715113595189658
3.395,0.38944595408114946,94.14185919721706,0,60,3.0,2,0.39157315758157785
3.4,0.38001120995358023,91.12443922669075,0,60,3.0,2,0.3205750406280177
3.405,0.3678831374098315,88.54671365581692,0,60,3.0,2,0.25992267425451565
3.41,0.35333577933796634,86.42962122580431,0,60,3.0,2,0.21010873472480732
3.415,0.33668953221163944,84.76217841349774,0,60,3.0,2,0.17087478619994673
3.42,0.3182994390982644,83.50998827510688,0,60,3.0,2,0.14141148882604418
3.425,0.29854265738230645,82.6239592616714,0,60,3.0,2,0.12056374733344476
3.43,0.2778057157821067,82.04813671665211,0,60,3.0,2,0.10701498156828493
3.435,0.2564721553719815,81.72596289047014,0,60,3.0,2,0.09943442095223866
3.44,0.23491109433464996,81.60468893918195,0,60,3.0,2,0.09658091621604599
3.445,0.21346717185309805,81.63799504646468,0,60,3.0,2,0.09736458932858073
3.45,0.19245222055656455,81.78709744087013,0,60,3.0,2,0.10087288096165005
3.455,0.17213889801761392,82.02073014370184,0,60,3.0,2,0.10637012102827859
3.46,0.15275638501270183,82.31440368405315,0,60,3.0,2,0.11328008668360345
3.465,0.13448814019607322,82.64929288117871,0,60,3.0,2,0.12115983249832257
3.47,0.11747159495449566,83.0110225176634,0,60,3.0,2,0.12967111806266837
3.475,0.10179958433370105,83.3885292368498,0,60,3.0,2,0.13855362910234836
3.48,0.08752324394101413,83.77309765368632,0,60,3.0,2,0.1476022977337958
3.485,0.07465606047174059,84.15760717412064,0,60,3.0,2,0.15664958056754452
3.49,0.0631787448609295,84.53598520779653,0,60,3.0,2,0.1655525931246242
3.495,0.05304460019959574,84.90283979370203,0,60,3.0,2,0.17418446573416538
3.5,0.044185078305849994,85.2532355842238,0,60,3.0,2,0.18242907256997182
3.505,0.03651525513023255,85.58257682747728,0,60,3.0,2,0.1901782782935831
3.51,0.0299390014708757,85.88656538177838,0,60,3.0,2,0.19733095015949134
3.515,0.024353677220580638,86.1612079739718,0,60,3.0,2,0.20379312879933642
3.52,0.01965423034339045,86.40285309350594,0,60,3.0,2,0.2094788963177868
3.525,0.015736632374757337,86.6082432150249,0,60,3.0,2,0.21431160505940938
3.53,0.012500627640593535,86.77457218739008,0,60,3.0,2,0.21822522793859006
3.535,0.009851811652115898,86.89954068208965,0,60,3.0,2,0.22116566310799177
3.54,0.007703084175428559,86.98140477366222,0,60,3.0,2,0.22309187702734634
3.545,0.005975544002062424,87.01901427304892,0,60,3.0,2,0.22397680642468057
3.55,0.004598905818663047,87.01183856381658,0,60,3.0,2,0.22380796620744897
3.555,0.0035115256454839104,86.95997855926363,0,60,3.0,2,0.22258773080620312
3.56,0.002660121266303676,86.86416411011633,0,60,3.0,2,0.22033327317920787
3.565,0.0019992692560877024,86.72573680860323,0,60,3.0,2,0.21707616020242895
3.57,0.0014907520044639367,86.54661868443019,0,60,3.0,2,0.21286161610423968
3.575,0.0011028178277539807,86.32926778050197,0,60,3.0,2,0.20774747718828154
3.58,0.0008094059938923333,86.0766220284689,0,60,3.0,2,0.20180287125809185
3.585,0.0005893771793717645,85.79203320823416,0,60,3.0,2,0.1951066637231567
3.59,0.0004257792353490551,85.47919306210486,0,60,3.0,2,0.18774571910834953
3.595,0.0003051686392901525,85.1420538353606,0,60,3.0,2,0.1798130314202494
3.6,0.00021699992642659966,84.78474562561813,0,60,3.0,2,0.1714057794263089
3.605,0.00015308884054097838,84.41149294219383,0,60,3.0,2,0.1626233633457372
3.61,0.00010714989329311098,84.02653280638995,0,60,3.0,2,0.15356547779741062
3.615,7.440535854020571e-05,83.63403657080012,0,60,3.0,3,0.14433027225412048
3.62,5.1260276743925106e-05,83.23803741033751,0,60,3.0,3,0.13501264494911794
3.625,3.503659887882241e-05,82.8423651525489,0,60,3.0,3,0.12570270947173867
3.63,2.375894748103639e-05,82.45058978476153,0,60,3.0,3,0.11648446552380078
3.635,1.5984413869232557e-05,82.06597461680163,0,60,3.0,3,0.1074346968659206
3.64,1.0669166579899869e-05,81.69143970684148,0,60,3.0,3,0.09862211074921126
3.645,7.06526633560511e-06,81.32953579030706,0,60,3.0,3,0.09010672447781323
3.65,4.641847214699205e-06,80.98242860237454,0,60,3.0,3,0.08193949652645977
3.655,3.025641074479182e-06,80.65189316618567,0,60,3.0,3,0.07416219214554524
3.66,1.9566278676921314e-06,80.33931734191135,0,60,3.0,3,0.06680746686850245
3.665,1.2553456560008793e-06,80.04571370388507,0,60,3.0,3,0.05989914597376636
3.67,7.990660428214668e-07,79.77173863904802,0,60,3.0,3,0.05345267385995351
3.675,5.046221251618276e-07,79.51771744188935,0,60,3.0,3,0.04747570451504343
3.68,3.1616527078858815e-07,79.28367411824715,0,60,3.0,3,0.04196880278228585
3.685,1.9652884407760343e-07,79.06936459968861,0,60,3.0,3,0.03692622587502616
3.69,1.2120002189836396e-07,78.87431210665059,0,60,3.0,3,0.03233675545060217
3.695,7.415549848886236e-08,78.69784347549275,0,60,3.0,3,0.028184552364535206
3.7,4.501406988770349e-08,78.53912537444172,0,60,3.0,3,0.024450008810393508
3.705,0.0,78.39719946787567,0,60,3.0,3,0.02111057571472155
3.71,0.0,78.27101573919998,0,60,3.0,3,0.018141546804705446
3.715,0.0,78.15946334170297,0,60,3.0,3,0.015516784510658212
3.72,0.0,78.06139850691407,0,60,3.0,3,0.013209376633272327
3.725,0.0,77.97566919470562,0,60,3.0,3,0.011192216346014514
3.73,0.0,77.9011363133772,0,60,3.0,3,0.009438501491228086
3.735,0.0,77.83669146714263,0,60,3.0,3,0.007922152168061851
3.74,0.0,77.78127129994012,0,60,3.0,3,0.006618148233885075
3.745,0.0,77.73386859662963,0,60,3.0,3,0.005502790508932562
3.75,0.0,77.69354037484015,0,60,3.0,3,0.004553891172709507
3.755,0.0,77.6594132533464,0,60,3.0,3,0.0037509000787388364
3.76,0.0,77.63068641703312,0,60,3.0,3,0.0030749745184263087
3.765,0.0,77.60663251599041,0,60,3.0,3,0.002509000376244999
3.77,0.0,77.58659683924148,0,60,3.0,3,0.002037572688034823
3.775,0.0,77.5699950944462,0,60,3.0,3,0.0016469433987340916
3.78,0.0,77.5563101061534,0,60,3.0,3,0.0013249436741977446
3.785,0.0,77.54508771925303,0,60,3.0,3,0.0010608875118360657
3.79,0.0,77.53593216351848,0,60,3.0,3,0.0008454626710230888
3.795,0.0,77.52850110161448,0,60,3.0,3,0.0006706141556348405
3.8,0.0,77.52250054847673,0,60,3.0,3,0.0005294246700406588
3.805,0.0,77.51767981603862,0,60,3.0,3,0.0004159956714970041
3.81,0.0,77.51382660505939,0,60,3.0,3,0.0003253318837504166
3.815,0.0,77.51076233615936,0,60,3.0,3,0.00025323143904375575
3.82,0.0,77.50833778567196,0,60,3.0,3,0.00019618319228129622
3.825,0.0,77.50642906890162,0,60,3.0,3,0.00015127220944999168
3.83,0.0,77.50493399394611,0,60,3.0,3,0.00011609397520260246
3.835,0.0,77.50376879333639,0,60,3.0,3,8.86774902680292e-05
3.84,0.0,77.502865228177,0,60,3.0,3,6.741713357648811e-05
3.845,0.0,77.50216804994355,0,60,3.0,3,5.101293984821228e-05
3.85,0.0,77.501632798266,0,60,3.0,3,3.841878272944942e-05
3.855,0.0,77.50122390851851,0,60,3.0,3,2.8797847494388407e-05
3.86,0.0,77.50091310046415,0,60,3.0,3,2.1484716803436587e-05
3.865,0.0,77.50067801819499,0,60,3.0,3,1.5953369293864692e-05
3.87,0.0,77.50050109181922,0,60,3.0,3,1.1790395746281908e-05
3.875,0.0,77.50036859246728,0,60,3.0,3,8.672763936053396e-06
3.88,0.0,77.5002698539488,0,60,3.0,3,6.349504677500055e-06
3.885,0.0,77.50019663656475,0,60,3.0,3,4.626742700044333e-06
3.89,0.0,77.50014261097807,0,60,3.0,3,3.3555524252653197e-06
3.895,0.0,77.5001029425252,0,60,3.0,3,2.422177063595775e-06
3.9,0.0,77.50007395879989,0,60,3.0,3,1.7402070561863238e-06
3.905,0.0,77.50005288567749,0,60,3.0,3,1.2443688821322747e-06
3.91,0.0,77.5000376391206,0,60,3.0,3,8.856263672013858e-07
3.915,0.0,77.50002666208097,0,60,3.0,3,6.273430816396714e-07
3.92,0.0,77.50001879757373,0,60,3.0,3,4.422958524815733e-07
3.925,0.0,77.50001319054469,0,60,3.0,3,3.1036575746036437e-07
3.93,0.0,77.50000921248602,0,60,3.0,3,2.167643769473002e-07
3.935,0.0,77.50000640389396,0,60,3.0,3,1.506798579451724e-07
3.94,0.001684486749771458,77.500004430621,0,60,3.0,3,1.0424990598360584e-07
3.945,0.003097557930867117,77.50000305097221,0,60,3.0,3,7.178758143227777e-08
3.95,0.005475106668887023,77.50000209105319,0,60,3.0,3,4.920125153309046e-08
3.955,0.00930222931468658,77.50000142641234,0,60,3.0,3,3.356264327896283e-08
3.96,0.01519157517868857,77.50000096845238,0,60,3.0,3,2.2787114898271874e-08
3.965,0.023847336626128316,77.50000065443217,0,60,3.0,3,1.5398404015928355e-08
3.97,0.0359830743700859,77.50000044015351,0,60,3.0,3,1.0356553262039704e-08
3.975,0.05218887796857759,77.50000029464353,0,60,3.0,3,6.9327888789249464e-09
3.98,0.0727577001223134,77.50000019631017,0,60,3.0,3,4.619062779324047e-09
3.985,0.0974992498694751,77.50000013017929,0,60,3.0,3,3.0630420657390083e-09
3.99,0.12558706050443358,77.50000008591998,0,60,3.0,3,2.021646557349253e-09
3.995,0.15549263588878245,77.50000005644164,0,60,3.0,3,1.3280384791869436e-09
4.0,0.1850529723539114,77.5000000369027,0,60,3.0,3,8.682989386322921e-10
4.005,0.21169159439317053,77.5000000240143,0,60,3.0,3,5.650423083673505e-10
4.01,0.23277292922115492,77.50000001555374,0,60,3.0,3,3.6597030242881054e-10
4.015,0.24602692519491282,77.50000001002658,0,60,3.0,3,2.3591958190937634e-10
4.02,0.24995056064839283,77.50000000643315,0,60,3.0,3,1.5136834008444567e-10
4.025,0.24408826520424054,77.50000000410817,0,60,3.0,3,9.666290251890827e-11
4.03,0.22911894216865275,77.50000000261112,0,60,3.0,3,6.143803897002191e-11
4.035,0.20672661788705934,77.5000000016518,0,60,3.0,3,3.8865851713447175e-11
4.04,0.17928878030241233,77.50000000104002,0,60,3.0,3,2.447109181957785e-11
4.045,0.14946211903866036,77.50000000065175,0,60,3.0,3,1.5335351289489637e-11
4.05,0.1197651512573837,77.5000000004065,0,60,3.0,3,9.564741155961254e-12
4.055,0.09224675744988023,77.50000000025236,0,60,3.0,3,5.9377966595895805e-12
4.06,0.06829565320281596,77.50000000015592,0,60,3.0,3,3.668741127886974e-12
4.065,0.04860224607515734,77.50000000009588,0,60,3.0,3,2.2560149826698334e-12
4.07,0.03324612389699793,77.50000000005869,0,60,3.0,3,1.3809607052655123e-12
4.075,0.021859876340472782,77.50000000003575,0,60,3.0,3,8.412825991399587e-13
4.08,0.01381595518554205,77.50000000002167,0,60,3.0,3,5.099189044866601e-13
4.085,0.008394095110402422,77.50000000001309,0,60,3.0,3,3.079575810047305e-13
4.09,0.0049052535271608,77.50000000000786,0,60,3.0,3,1.8490829782368725e-13
4.095,0.0027671663551903634,77.5000000000047,0,60,3.0,3,1.1067748025251443e-13
4.1,0.0015425553464444616,77.5000000000028,0,60,3.0,3,6.587149126811282e-14
4.105,0.0009638206637011801,77.50000000000165,0,60,3.0,3,3.878727404619841e-14
4.11,0.0009804935156568228,77.50000000000098,0,60,3.0,3,2.3071740596445606e-14
4.115,0.0018793744894085216,77.50000000000057,0,60,3.0,3,1.3374922084896003e-14
4.12,0.004535525206900863,77.50000000000033,0,60,3.0,3,7.690580198815202e-15
4.125,0.010832767979632273,77.5000000000002,0,60,3.0,3,4.681222729713601e-15
4.13,0.024208003392322392,77.50000000000011,0,60,3.0,3,2.6749844169792007e-15
4.135,0.0500971897335304,77.50000000000007,0,60,3.0,3,1.6718652606120004e-15
4.14,0.09582894921774403,77.50000000000004,0,60,3.0,3,1.0031191563672002e-15
4.145,0.16937896721820658,77.50000000000001,0,60,3.0,3,3.343730521224001e-16
4.15,0.27661303008991756,77.50000000000001,0,60,3.0,3,3.343730521224001e-16
4.155,0.4173782800009149,77.5,0,60,3.0,3,0.0
4.16,0.5818720934538056,77.5,0,60,3.0,3,0.0
4.165,0.7494718801585675,77.5,0,60,3.0,3,0.0
4.17,0.891813020752378,77.5,0,60,3.0,3,0.0
4.175,0.9800361632936612,77.5,0,60,3.0,3,0.0
4.18,0.993574479225126,77.5000024966485,1,60,3.0,3,5.874467072263702e-08
4.185,0.9263438449375362,77.50000388454893,0,60,3.0,3,9.140115132729132e-08
4.19,0.7873015962290536,77.50000618232913,0,60,3.0,3,1.454665677743726e-07
4.195,0.5959516244629897,77.5000101847726,0,60,3.0,3,2.396417083700191e-07
4.2,0.376910120078773,77.50001756083037,0,60,3.0,3,4.1319600875474007e-07
4.205,0.15739335672107918,77.50003188149957,0,60,3.0,3,7.501529309780274e-07
4.21,-0.033361226269301235,77.50006080365405,0,60,3.0,3,1.4306742129707239e-06
4.215,-0.1680180840843834,77.50012058486693,0,60,3.0,3,2.8372909866902773e-06
4.22,-0.23069703190837854,77.50024513995355,0,60,3.0,3,5.7679989070306076e-06
4.225,-0.22587267821131068,77.50050363241509,0,60,3.0,3,1.1850174472690068e-05
4.23,-0.17718181630665902,77.50103350758017,0,60,3.0,3,2.4317825415878626e-05
4.235,-0.11494332516451301,77.50210036935763,0,60,3.0,3,4.942045547375742e-05
4.24,-0.061810214049552864,77.50420258594323,0,60,3.0,3,9.888437513489087e-05
4.245,-0.026546104631500547,77.50824711533218,0,60,3.0,3,0.00019404977252192754
4.25,-0.00719600351942686,77.51583324529174,0,60,3.0,3,0.0003725469480410565
4.255,0.0022072757983807078,77.52969102922935,0,60,3.0,3,0.0006986124524554029
4.26,0.006917199873730717,77.55432766935884,0,60,3.0,3,0.0012782981025609656
4.265,0.01004859748264829,77.5969322368778,0,60,3.0,3,0.0022807585147718865
4.27,0.013037082251128167,77.66856909864642,0,60,3.0,3,0.003966331732856829
4.275,0.01645163937690478,77.78564441251984,0,60,3.0,3,0.006721045000466909
4.28,0.020526639934696615,77.97155076923681,0,60,3.0,3,0.011095312217336789
4.285,0.02539629541761738,78.2582808201053,0,60,3.0,3,0.017841901649536432
4.29,0.031171612185577933,78.68766052792253,0,60,3.0,3,0.027944953598177214
4.295,0.03795853426638131,79.31171075246023,0,60,3.0,3,0.04262848829318186
4.3,0.0458588961882057,80.19154347445966,0,60,3.0,3,0.06333043469316856
4.305,0.054966995891435555,81.39419054317591,0,60,3.0,3,0.09162801278060964
4.31,0.06536491004445595,82.9869047835598,0,60,3.0,3,0.1291036419661128
4.315,0.07711726085088699,85.02880519220997,0,60,3.0,3,0.17714835746376406
4.32,0.09026570629555215,87.56025991780172,0,60,3.0,3,0.23671199806592272
4.325,0.10482339848670268,90.59105402879193,0,60,3.0,3,0.3080248006774572
4.33,0.12076968927580028,94.08904924277502,0,60,3.0,3,0.3903305704182357
4.335,0.13804539501007884,97.97153364558193,0,60,3.0,3,0.48168314460192774
4.34,0.15654895051787066,102.10159121830677,0,60,3.0,3,0.5788609698425121
4.345,0.17613378141900526,106.29144711748273,0,60,3.0,3,0.6774458145290054
4.35,0.19660720058055794,110.31382182199403,0,60,3.0,3,0.7720899252233888
4.355,0.21773108748496234,113.92095766616347,0,60,3.0,3,0.8569637097920817
4.36,0.23922453870058807,116.86941633089845,0,60,3.0,3,0.9263392077858458
4.365,0.2607685857914563,118.94734075580467,0,60,3.0,3,0.9752315471954041
4.37,0.2820129681603682,120.0,0,60,3.0,3,1.0
4.375,0.30258482867153996,119.94936806517826,0,60,3.0,3,0.9988086603571356
4.38,0.3220990771751686,118.80431883209974,0,60,3.0,3,0.9718663254611704
4.385,0.3401700499968971,116.65961054384493,0,60,3.0,3,0.9214026010316455
4.39,0.3564239911198326,113.6838413525704,0,60,3.0,3,0.8513845024134211
4.395,0.3705118017738417,110.09852371838782,0,60,3.0,3,0.7670240874914782
4.4,0.3821214567925213,106.15190294941635,0,60,3.0,3,0.6741624223392083
4.405,0.39098947374066967,102.09182171295444,0,60,3.0,3,0.5786310991283398
4.41,0.3969108472035567,98.14171008969322,0,60,3.0,3,0.48568729622807577
4.415,0.3997469255491936,94.48278858522536,0,60,3.0,3,0.39959502553471443
4.42,0.3994308076379137,91.24411073570738,0,60,3.0,3,0.32339084084017367
4.425,0.3959699661768434,88.50051791606685,0,60,3.0,3,0.2588357156721613
4.43,0.38944595408114946,86.27727400892925,0,60,3.0,3,0.20652409432774715
4.435,0.38001120995358023,84.55931872476093,0,60,3.0,3,0.1661016170531983
4.44,0.3678831374098315,83.3028005744429,0,60,3.0,3,0.13653648410453878
4.445,0.35333577933796634,82.44675842842192,0,60,3.0,3,0.1163943159628686
4.45,0.33668953221163944,81.9233555217599,0,60,3.0,3,0.10407895345317417
4.455,0.3182994390982644,81.6657405782961,0,60,3.0,3,0.09801742537167282
4.46,0.29854265738230645,81.61324823680155,0,60,3.0,3,0.0967823114541542
4.465,0.2778057157821067,81.71414190823803,0,60,3.0,3,0.09915628019383609
4.47,0.2564721553719815,81.92639917335062,0,60,3.0,3,0.10415056878472041
4.475,0.23491109433464996,82.21715152529522,0,60,3.0,3,0.1109918005951817
4.48,0.21346717185309805,82.56136080468661,0,60,3.0,3,0.11909084246321447
4.485,0.19245222055656455,82.94020128362216,0,60,3.0,3,0.12800473608522728
4.49,0.17213889801761392,83.33947177339249,0,60,3.0,3,0.13739933584452915
4.495,0.15275638501270183,83.74822470521731,0,60,3.0,3,0.14701705188746614
4.5,0.13448814019607322,84.1576901961562,0,60,3.0,3,0.1566515340272046
4.505,0.11747159495449566,84.56049942906901,0,60,3.0,3,0.16612939833103557
4.51,0.10179958433370105,84.95017025612171,0,60,3.0,3,0.17529812367345196
4.515,0.08752324394101413,85.32080099438407,0,60,3.0,3,0.18401884692668405
4.52,0.07465606047174059,85.66691715781909,0,60,3.0,3,0.19216275665456672
4.525,0.0631787448609295,85.98342289070791,0,60,3.0,3,0.19960995036959797
4.53,0.05304460019959574,86.26561884786955,0,60,3.0,3,0.20624985524398934
4.535,0.044185078305849994,86.50925808244908,0,60,3.0,3,0.21198254311644893
4.54,0.03651525513023255,86.71061970560895,0,60,3.0,3,0.21672046366138703
4.545,0.0299390014708757,86.86658630913784,0,60,3.0,3,0.22039026609736104
4.55,0.024353677220580638,86.97471559675341,0,60,3.0,3,0.22293448462949206
4.555,0.01965423034339045,87.03329977142683,0,60,3.0,3,0.22431293579827827
4.56,0.015736632374757337,87.04140840180983,0,60,3.0,3,0.2245037271014078
4.565,0.012500627640593535,86.99891208474476,0,60,3.0,3,0.2235038137587002
4.57,0.009851811652115898,86.90648547061232,0,60,3.0,3,0.22132906989676057
4.575,0.007703084175428559,86.76558926724239,0,60,3.0,3,0.21801386511158566
4.58,0.005975544002062424,86.5784317591195,0,60,3.0,3,0.2136101590381058
4.585,0.004598905818663047,86.34791119812435,0,60,3.0,3,0.20818614583822
4.59,0.0035115256454839104,86.07754113966531,0,60,3.0,3,0.20182449740388975
4.595,0.002660121266303676,85.77136140052126,0,60,3.0,3,0.19462026824755901
4.6,0.0019992692560877024,85.43383778522907,0,60,3.0,3,0.18667853612303703
4.605,0.0014907520044639367,85.06975405182008,0,60,3.0,3,0.1781118600428255
4.61,0.0011028178277539807,84.68409975610096,0,60,3.0,3,0.16903764132002266
4.615,0.0008094059938923333,84.2819576246531,0,60,3.0,3,0.15957547352124948
4.62,0.0005893771793717645,83.86839396614698,0,60,3.0,3,0.14984456390934076
4.625,0.0004257792353490551,83.44835535165316,0,60,3.0,3,0.13996130239183913
4.63,0.0003051686392901525,83.02657439701731,0,60,3.0,3,0.13003704463570148
4.635,0.00021699992642659966,82.6074869887465,0,60,3.0,3,0.12017616444109415
4.64,0.00015308884054097838,82.19516273734413,0,60,3.0,3,0.11047441734927374
4.645,0.00010714989329311098,81.7932498483948,0,60,3.0,3,0.1010176434916422
4.65,7.440535854020571e-05,81.40493500158567,0,60,3.0,3,0.09188082356672166
4.655,5.1260276743925106e-05,81.03291824914021,0,60,3.0,3,0.08312748821506374
4.66,3.503659887882241e-05,80.6794024125245,0,60,3.0,3,0.07480946852998814
4.665,2.375894748103639e-05,80.34609599014749,0,60,3.0,3,0.06696696447405857
4.67,1.5984413869232557e-05,80.03422820440662,0,60,3.0,3,0.05962889892721451
4.675,1.0669166579899869e-05,79.74457452363798,0,60,3.0,3,0.05281351820324657
4.68,7.06526633560511e-06,79.4774907976045,0,60,3.0,3,0.04652919523775301
4.685,4.641847214699205e-06,79.23295404316598,0,60,3.0,3,0.04077538925096412
4.69,3.025641074479182e-06,79.01060790415472,0,60,3.0,3,0.035543715391875876
4.695,1.9566278676921314e-06,78.80981087682954,0,60,3.0,3,0.030819079454812815
4.7,1.2553456560008793e-06,78.62968552729907,0,60,3.0,3,0.0265808359364488
4.705,7.990660428214668e-07,78.4691671158064,0,60,3.0,3,0.022803932136621168
4.71,5.046221251618276e-07,78.32705026967079,0,60,3.0,3,0.01946000634519511
4.715,3.1616527078858815e-07,78.2020325969465,0,60,3.0,3,0.01651841404579988
4.72,1.9652884407760343e-07,78.0927543922857,0,60,3.0,3,0.013947162171428197
4.725,1.2120002189836396e-07,77.99783384238104,0,60,3.0,3,0.011713737467789209
4.73,7.415549848886236e-08,77.91589737998032,0,60,3.0,3,0.009785820705419343
4.735,4.501406988770349e-08,77.84560505434425,0,60,3.0,3,0.008131883631629347
4.74,0.0,77.78567097606587,0,60,3.0,3,0.006721670025079367
4.745,0.0,77.73487905164139,0,60,3.0,3,0.0055265659209737805
4.75,0.0,77.69209434649721,0,60,3.0,3,0.004519866976405036
4.755,0.0,77.65627050466959,0,60,3.0,3,0.0036769530510492344
4.76,0.0,77.62645371089663,0,60,3.0,3,0.0029753814328618024
4.765,0.0,77.60178370962433,0,60,3.0,3,0.0023949108146900794
4.77,0.0,77.58149239927823,0,60,3.0,3,0.0019174682183113552
4.775,0.0,77.5649005035173,0,60,3.0,3,0.001527070670995138
4.78,0.0,77.55141278863067,0,60,3.0,3,0.001209712673662847
4.785,0.0,77.5405122522104,0,60,3.0,3,0.0009532294637742379
4.79,0.0,77.53175365686594,0,60,3.0,3,0.0007471448674339974
4.795,0.0,77.5247567276939,0,60,3.0,3,0.0005825112398564242
4.8,0.0,77.51919927656837,0,60,3.0,3,0.0004517476839616981
4.805,0.0,77.51481046255032,0,60,3.0,3,0.0003484814717721212
4.81,0.0,77.51136434769356,0,60,3.0,3,0.0002673964163190088
4.815,0.0,77.50867386254117,0,60,3.0,3,0.00020409088332170916
4.82,0.0,77.50658525642717,0,60,3.0,4,0.0001549472100511112
4.825,0.0,77.50497307465665,0,60,3.0,4,0.00011701352133286491
4.83,0.0,77.50373567769842,0,60,3.0,4,8.78982987862454e-05
4.835,0.0,77.50279129638474,0,60,3.0,4,6.567756199394674e-05
4.84,0.0,77.50207460126839,0,60,3.0,4,4.88141474915317e-05
4.845,0.0,77.50153375311476,0,60,3.0,4,3.608830858250739e-05
4.85,0.0,77.50112789431837,0,60,3.0,4,2.653868984406044e-05
4.855,0.0,77.50082503712781,0,60,3.0,4,1.9412638301432976e-05
4.86,0.0,77.50060030327039,0,60,3.0,4,1.4124782832676133e-05
4.865,0.0,77.50043447026465,0,60,3.0,4,1.022282975648469e-05
4.87,0.0,77.50031278184728,0,60,3.0,4,7.35957287728899e-06
4.875,0.0,77.50022398305025,0,60,3.0,4,5.270189417588507e-06
4.88,0.0,77.50015954415629,0,60,3.0,4,3.753980147995903e-06
4.885,0.0,77.50011304172635,0,60,3.0,4,2.659805325907548e-06
4.89,0.0,77.50007966889501,0,60,3.0,4,1.8745622355709203e-06
4.895,0.0,77.50005585099808,0,60,3.0,4,1.3141411313079194e-06
4.9,0.0,77.50003894621133,0,60,3.0,4,9.163814431357263e-07
4.905,0.0,77.50002701416986,0,60,3.0,4,6.356275261008276e-07
4.91,0.0,77.50001863846614,0,60,3.0,4,4.3855214458102745e-07
4.915,0.001684486749771458,77.50001279148142,0,60,3.0,4,3.00976033512972e-07
4.92,0.003097557930867117,77.50000873219956,0,60,3.0,4,2.0546351907689635e-07
4.925,0.005475106668887023,77.5000059295071,0,60,3.0,4,1.3951781404423802e-07
4.93,0.00930222931468658,77.50000400502901,0,60,3.0,4,9.42359767631227e-08
4.935,0.01519157517868857,77.50000269082139,0,60,3.0,4,6.331344446366797e-08
4.94,0.023847336626128316,77.50000179827543,0,60,3.0,4,4.231236316092477e-08
4.945,0.0359830743700859,77.5000011954177,0,60,3.0,4,2.8127475188204484e-08
4.95,0.05218887796857759,77.50000079045161,0,60,3.0,4,1.8598861368659796e-08
4.955,0.0727577001223134,77.50000051990384,0,60,3.0,4,1.2233031424436965e-08
4.96,0.0974992498694751,77.50000034014406,0,60,3.0,4,8.003389532806229e-09
4.965,0.12558706050443358,77.50000022135784,0,60,3.0,4,5.208419692922582e-09
4.97,0.15549263588878245,77.50000014329103,0,60,3.0,4,3.3715537028911058e-09
4.975,0.1850529723539114,77.50000009226464,0,60,3.0,4,2.170932756438132e-09
4.98,0.21169159439317053,77.50000005909403,0,60,3.0,4,1.3904478718733812e-09
4.985,0.23277292922115492,77.5000000376482,0,60,3.0,4,8.858401489466333e-10
4.99,0.24602692519491282,77.50000002385815,0,60,3.0,4,5.613682172706296e-10
4.995,0.24995056064839283,77.50000001503909,0,60,3.0,4,3.538609823461978e-10
5.0,0.24408826520424054,77.50000000942971,0,60,3.0,4,2.2187557934718345e-10
5.005,0.22911894216865275,77.50000000588122,0,60,3.0,4,1.3838162511306377e-10
5.01,0.20672661788705934,77.50000000364862,0,60,3.0,4,8.58499467593741e-11
5.015,0.17928878030241233,77.50000000225155,0,60,3.0,4,5.297773200522095e-11
5.02,0.14946211903866036,77.50000000138206,0,60,3.0,4,3.25191168111119e-11
5.025,0.1197651512573837,77.50000000084385,0,60,3.0,4,1.985540620808024e-11
5.03,0.09224675744988023,77.5000000005125,0,60,3.0,4,1.2058829751742238e-11
5.035,0.06829565320281596,77.50000000030961,0,60,3.0,4,7.28498568659073e-12
5.04,0.04860224607515734,77.50000000018605,0,60,3.0,4,4.377611998386462e-12
5.045,0.03324612389699793,77.50000000011121,0,60,3.0,4,2.6168035059099033e-12
5.05,0.021859876340472782,77.50000000006612,0,60,3.0,4,1.5558378115255276e-12
5.055,0.01381595518554205,77.50000000003911,0,60,3.0,4,9.20194639440845e-13
5.06,0.008394095110402422,77.50000000002301,0,60,3.0,4,5.413499713861657e-13
5.065,0.0049052535271608,77.50000000001346,0,60,3.0,4,3.1665128035991287e-13
5.07,0.0027671663551903634,77.50000000000783,0,60,3.0,4,1.8423955171944245e-13
5.075,0.0015425553464444616,77.50000000000453,0,60,3.0,4,1.0666500362704563e-13
5.08,0.0009638206637011801,77.50000000000261,0,60,3.0,4,6.152464159052161e-14
5.085,0.0009804935156568228,77.50000000000149,0,60,3.0,4,3.510917047285201e-14
5.09,0.0018793744894085216,77.50000000000085,0,60,3.0,4,2.0062383127344007e-14
5.095,0.004535525206900863,77.50000000000048,0,60,3.0,4,1.1368683772161604e-14
5.1,0.010832767979632273,77.50000000000027,0,60,3.0,4,6.353087990325602e-15
5.105,0.024208003392322392,77.50000000000016,0,60,3.0,4,3.678103573346401e-15
5.11,0.0500971897335304,77.50000000000009,0,60,3.0,4,2.0062383127344005e-15
5.115,0.09582894921774403,77.50000000000004,0,60,3.0,4,1.0031191563672002e-15
5.12,0.16937896721820658,77.50000000000003,0,60,3.0,4,6.687461042448002e-16
5.125,0.27661303008991756,77.50000000000001,0,60,3.0,4,3.343730521224001e-16
5.13,0.4173782800009149,77.50000000000001,0,60,3.0,4,3.343730521224001e-16
5.135,0.5818720934538056,77.5,0,60,3.0,4,0.0
5.14,0.7494718801585675,77.5,0,60,3.0,4,0.0
5.145,0.891813020752378,77.5,0,60,3.0,4,0.0
5.15,0.9800361632936612,77.5,0,60,3.0,4,0.0
5.155,0.993574479225126,77.50000249233909,1,60,3.0,4,5.864327276332701e-08
5.16,0.9263438449375362,77.50000393417172,0,60,3.0,4,9.256874624738617e-08
5.165,0.7873015962290536,77.5000063640856,0,60,3.0,4,1.4974319075169179e-07
5.17,0.5959516244629897,77.50001068889715,0,60,3.0,4,2.5150346232294397e-07
5.175,0.376910120078773,77.500018862235,0,60,3.0,4,4.438172940059731e-07
5.18,0.15739335672107918,77.50003517035837,0,60,3.0,4,8.275378440751357e-07
5.185,-0.033361226269301235,77.5000690217564,0,60,3.0,4,1.6240413271241457e-06
5.19,-0.1680180840843834,77.50014082332336,0,60,3.0,4,3.3134899614892407e-06
5.195,-0.23069703190837854,77.50029396273561,0,60,3.0,4,6.916770249678366e-06
5.2,-0.22587267821131068,77.5006184111326,0,60,3.0,4,1.4550850178974382e-05
5.205,-0.17718181630665902,77.50129555570794,0,60,3.0,4,3.0483663716254607e-05
5.21,-0.11494332516451301,77.50268018361174,0,60,3.0,4,6.30631438057475e-05
5.215,-0.061810214049552864,77.50544456390197,0,60,3.0,4,0.0001281073859288159
5.22,-0.026546104631500547,77.51082130963708,0,60,3.0,4,0.00025461905028424447
5.225,-0.00719600351942686,77.52099502457159,0,60,3.0,4,0.0004940005781550634
5.23,0.0022072757983807078,77.53970458895728,0,60,3.0,4,0.0009342256225241887
5.235,0.006917199873730717,77.57312250061958,0,60,3.0,4,0.0017205294263429576
5.24,0.01004859748264829,77.63106598202572,0,60,3.0,4,0.0030839054594286393
5.245,0.013037082251128167,77.72855510062294,0,60,3.0,4,0.005377767073480968
5.25,0.01645163937690478,77.88765436303515,0,60,3.0,4,0.009121279130238904
5.255,0.020526639934696615,78.13940920963522,0,60,3.0,4,0.015044922579652193
5.26,0.02539629541761738,78.52552201584362,0,60,3.0,4,0.02412992978455577
5.265,0.031171612185577933,79.09922671308908,0,60,3.0,4,0.03762886383739014
5.27,0.03795853426638131,79.9246635323784,0,60,3.0,4,0.05705090664419773
5.275,0.0458588961882057,81.07399391584457,0,60,3.0,4,0.08409397449046042
5.28,0.054966995891435555,82.6216083176575,0,60,3.0,4,0.12050843100370598
5.285,0.06536491004445595,84.63513056756528,0,60,3.0,4,0.16788542511918314
5.29,0.07711726085088699,87.16353032455919,0,60,3.0,4,0.22737718410727506
5.295,0.09026570629555215,90.22346244534107,0,60,3.0,4,0.29937558694920163
5.3,0.10482339848670268,93.78580951149479,0,60,3.0,4,0.3831955179175245
5.305,0.12076968927580028,97.76508286953606,0,60,3.0,4,0.4768254792832014
5.31,0.13804539501007884,102.01457924490444,0,60,3.0,4,0.5768136292918692
5.315,0.15654895051787066,106.32978301415727,0,60,3.0,4,0.6783478356272299
5.32,0.17613378141900526,110.46137267563913,0,60,3.0,4,0.7755617100150383
5.325,0.19660720058055794,114.13745816212113,0,60,3.0,4,0.8620578391087326
5.33,0.21773108748496234,117.09267748946532,0,60,3.0,4,0.9315924115168309
5.335,0.23922453870058807,119.09999799759018,0,60,3.0,4,0.9788234822962395
5.34,0.2607685857914563,120.0,0,60,3.0,4,1.0
5.345,0.2820129681603682,119.72243372512452,0,60,3.0,4,0.9934690288264593
5.35,0.30258482867153996,118.29603160172158,0,60,3.0,4,0.9599066259228607
5.355,0.3220990771751686,115.84470275181431,0,60,3.0,4,0.9022283000426896
5.36,0.3401700499968971,112.57083642722209,0,60,3.0,4,0.8251961512287551
5.365,0.3564239911198326,108.72886356162313,0,60,3.0,4,0.7347967896852501
5.37,0.3705118017738417,104.59389055380377,0,60,3.0,4,0.6375033071483241
5.375,0.3821214567925213,100.43076744786238,0,60,3.0,4,0.5395474693614678
5.38,0.39098947374066967,96.46833802487183,0,60,3.0,4,0.4463138358793371
5.385,0.3969108472035567,92.88209965938944,0,60,3.0,4,0.3619317566915162
5.39,0.3997469255491936,89.78653510091544,0,60,3.0,4,0.2890949435509516
5.395,0.3994308076379137,87.23647516247385,0,60,3.0,4,0.22909353323467888
5.4,0.3959699661768434,85.23542274613382,0,60,3.0,4,0.1820099469678546
5.405,0.38944595408114946,83.7480359009732,0,60,3.0,4,0.14701260943466368
5.41,0.38001120995358023,82.71393906157272,0,60,3.0,4,0.12268091909582862
5.415,0.3678831374098315,82.0605463396646,0,60,3.0,4,0.10730697269799053
5.42,0.35333577933796634,81.71339014822254,0,60,3.0,4,0.09913859172288339
5.425,0.33668953221163944,81.60330224871552,0,60,3.0,4,0.09654828820507111
5.43,0.3182994390982644,81.67050408627944,0,60,3.0,4,0.09812950791245732
5.435,0.29854265738230645,81.86613091207013,0,60,3.0,4,0.10273249204870902
5.44,0.2778057157821067,82.1519274595226,0,60,3.0,4,0.10945711669464933
5.445,0.2564721553719815,82.49885971724305,0,60,3.0,4,0.11762022864101294
5.45,0.23491109433464996,82.88526295110748,0,60,3.0,4,0.126712069437823
5.455,0.21346717185309805,83.29496538915102,0,60,3.0,4,0.13635212680355333
5.46,0.19245222055656455,83.7156469530013,0,60,3.0,4,0.146250516541207
5.465,0.17213889801761392,84.13754643739647,0,60,3.0,4,0.15617756323285803
5.47,0.15275638501270183,84.5525306173559,0,60,3.0,4,0.16594189687896232
5.475,0.13448814019607322,84.95348219733201,0,60,3.0,4,0.1753760517019296
5.48,0.11747159495449566,85.33394014028497,0,60,3.0,4,0.18432800330082272
5.485,0.10179958433370105,85.68792381231977,0,60,3.0,4,0.19265703087811215
5.49,0.08752324394101413,86.00988131489132,0,60,3.0,4,0.2002325015268545
5.495,0.07465606047174059,86.29471515826697,0,60,3.0,4,0.20693447431216394
5.5,0.0631787448609295,86.53785088067508,0,60,3.0,4,0.21265531483941366
5.505,0.05304460019959574,86.73532447507341,0,60,3.0,4,0.21730175235466853
5.51,0.044185078305849994,86.88387214505582,0,60,3.0,4,0.2207969916483722
5.515,0.03651525513023255,86.98101130529216,0,60,3.0,4,0.22308261894805073
5.52,0.0299390014708757,87.02510545252406,0,60,3.0,4,0.22412012829468375
5.525,0.024353677220580638,87.01540812527156,0,60,3.0,4,0.22389195588874267
5.53,0.01965423034339045,86.95208308020867,0,60,3.0,4,0.22240195482843922
5.535,0.015736632374757337,86.8361993292412,0,60,3.0,4,0.219675278335087
5.54,0.012500627640593535,86.66970096816668,0,60,3.0,4,0.215757669839216
5.545,0.009851811652115898,86.4553528615175,0,60,3.0,4,0.21071418497688227
5.55,0.007703084175428559,86.19666424964625,0,60,3.0,4,0.20462739410932346
5.555,0.005975544002062424,85.8977932043951,0,60,3.0,4,0.19759513422106117
5.56,0.004598905818663047,85.5634355576622,0,60,3.0,4,0.18972789547440477
5.565,0.0035115256454839104,85.19870244066831,0,60,3.0,4,0.1811459397804309
5.57,0.002660121266303676,84.80899088419606,0,60,3.0,4,0.1719762560987309
5.575,0.0019992692560877024,84.39985203416522,0,60,3.0,4,0.16234945962741695
5.58,0.0014907520044639367,83.97686143592856,0,60,3.0,4,0.15239673966890718
5.585,0.0011028178277539807,83.54549554860398,0,60,3.0,4,0.14224695408479954
5.59,0.0008094059938923333,83.11101819122497,0,60,3.0,4,0.13202395744058756
5.595,0.0005893771793717645,82.67838002700184,0,60,3.0,4,0.12184423592945497
5.6,0.0004257792353490551,82.25213349766712,0,60,3.0,4,0.11181490582746158
5.605,0.0003051686392901525,81.83636486694634,0,60,3.0,4,0.10203211451638447
5.61,0.00021699992642659966,81.43464426137449,0,60,3.0,4,0.09257986497351733
5.615,0.00015308884054097838,81.04999384673864,0,60,3.0,4,0.08352926698208575
5.62,0.00010714989329311098,80.68487358404445,0,60,3.0,4,0.07493820197751655
5.625,7.440535854020571e-05,80.34118339892207,0,60,3.0,4,0.06685137409228399
5.63,5.1260276743925106e-05,80.02028009462396,0,60,3.0,4,0.05930070810879897
5.635,3.503659887882241e-05,79.72300695535046,0,60,3.0,4,0.05230604600824603
5.64,2.375894748103639e-05,79.4497337299169,0,60,3.0,4,0.045876087762750595
5.645,1.5984413869232557e-05,79.20040455471387,0,60,3.0,4,0.040009518934444
5.65,1.0669166579899869e-05,78.97459136193396,0,60,3.0,4,0.0346962673396226
5.655,7.06526633560511e-06,78.77155041118107,0,60,3.0,4,0.02991883320426041
5.66,4.641847214699205e-06,78.59027976286526,0,60,3.0,4,0.025653641479182705
5.665,3.025641074479182e-06,78.42957576068818,0,60,3.0,4,0.0218723708397219
5.67,1.9566278676921314e-06,78.28808688740368,0,60,3.0,4,0.018543220880086572
5.675,1.2553456560008793e-06,78.16436368248169,0,60,3.0,4,0.015632086646628053
5.68,7.990660428214668e-07,78.05690374325727,0,60,3.0,4,0.013103617488406251
5.685,5.046221251618276e-07,77.9641911558218,0,60,3.0,4,0.010922144842865744
5.69,3.1616527078858815e-07,77.88473000441364,0,60,3.0,4,0.009052470692085656
5.695,1.9652884407760343e-07,77.8170718777431,0,60,3.0,4,0.007460514770425962
5.7,1.2120002189836396e-07,77.75983752025475,0,60,3.0,4,0.0061138240059940875
5.705,7.415549848886236e-08,77.71173296173248,0,60,3.0,4,0.004981952040764233
5.71,4.501406988770349e-08,77.67156059876946,0,60,3.0,4,0.004036719971046121
5.715,0.0,77.63822579784403,0,60,3.0,4,0.003252371713977161
5.72,0.0,77.61073964544266,0,60,3.0,4,0.0026056387162979636
5.725,0.0,77.5882184906858,0,60,3.0,4,0.002075729192607161
5.73,0.0,77.56988091599175,0,60,3.0,4,0.0016442568468646105
5.735,0.0,77.55504273763573,0,60,3.0,4,0.0012951232384877773
5.74,0.0,77.54311058680572,0,60,3.0,4,0.0010143667483699867
5.745,0.0,77.53357455876296,0,60,3.0,4,0.0007899896179521072
5.75,0.0,77.52600034823041,0,60,3.0,4,0.0006117728995390922
5.755,0.0,77.52002121764062,0,60,3.0,4,0.00047108747389690026
5.76,0.0,77.51533007501172,0,60,3.0,4,0.00036070764733454674
5.765,0.0,77.51167187275792,0,60,3.0,4,0.0002746323001862466
5.77,0.0,77.50883647961976,0,60,3.0,4,0.00020791716752375364
5.775,0.0,77.50665212631242,0,60,3.0,4,0.00015652061911570106
5.78,0.0,77.50497948198337,0,60,3.0,4,0.00011716428196163018
5.785,0.0,77.50370638316724,0,60,3.0,4,8.720901569979426e-05
5.79,0.0,77.50274320924372,0,60,3.0,4,6.454609985218989e-05
5.795,0.0,77.50201887777688,0,60,3.0,4,4.7503006514743364e-05
5.8,0.0,77.50147741869665,0,60,3.0,4,3.476279286239921e-05
5.805,0.0,77.50107507713466,0,60,3.0,4,2.529593258018662e-05
5.81,0.0,77.50077788989661,0,60,3.0,4,1.830329168496171e-05
5.815,0.0,77.50055967912361,0,60,3.0,4,1.3168920555565766e-05
5.82,0.0,77.50040040782481,0,60,3.0,4,9.421360583834992e-06
5.825,0.0,77.5002848449179,0,60,3.0,4,6.70223336234866e-06
5.83,0.0,77.5002014915631,0,60,3.0,4,4.740977955380539e-06
5.835,0.0,77.50014172541191,0,60,3.0,4,3.334715574296484e-06
5.84,0.0,77.50009912451172,0,60,3.0,4,2.3323414522484895e-06
5.845,0.0,77.50006893771202,0,60,3.0,4,1.6220638121253347e-06
5.85,0.0,77.50004767329185,0,60,3.0,4,1.121724514017414e-06
5.855,0.0,77.50003278203336,0,60,3.0,4,7.713419613671302e-07
5.86,0.001684486749771458,77.50002241501873,0,60,3.0,4,5.274122054957201e-07
5.865,0.003097557930867117,77.50001523999399,0,60,3.0,4,3.5858809376483857e-07
5.87,0.005475106668887023,77.5000103032196,0,60,3.0,4,2.4242869639077554e-07
5.875,0.00930222931468658,77.50000692633651,0,60,3.0,4,1.6297262377787882e-07
5.88,0.01519157517868857,77.50000462995416,0,60,3.0,4,1.0894009793606956e-07
5.885,0.023847336626128316,77.50000307745893,0,60,3.0,4,7.241079829862642e-08
5.89,0.0359830743700859,77.500002033997,0,60,3.0,4,4.785875309126448e-08
5.895,0.05218887796857759,77.50000133675195,0,60,3.0,4,3.145298705931055e-08
5.9,0.0727577001223134,77.50000087356216,0,60,3.0,4,2.055440371109666e-08
5.905,0.0974992498694751,77.50000056764821,0,60,3.0,4,1.3356428580129217e-08
5.91,0.12558706050443358,77.50000036678132,0,60,3.0,4,8.63014874726907e-09
5.915,0.15549263588878245,77.50000023565552,0,60,3.0,4,5.5448357643934505e-09
5.92,0.1850529723539114,77.50000015055338,0,60,3.0,4,3.5424323761938413e-09
5.925,0.21169159439317053,77.50000009564138,0,60,3.0,4,2.2503854779643005e-09
5.93,0.23277292922115492,77.50000006041483,0,60,3.0,4,1.4215255064567934e-09
5.935,0.24602692519491282,77.50000003794757,0,60,3.0,4,8.928840516626438e-10
5.94,0.24995056064839283,77.500000023701,0,60,3.0,4,5.576707200602601e-10
5.945,0.24408826520424054,77.50000001471946,0,60,3.0,4,3.463402636578608e-10
5.95,0.22911894216865275,77.50000000908992,0,60,3.0,4,2.1388038529788472e-10
5.955,0.20672661788705934,77.50000000558174,0,60,3.0,4,1.313350474126363e-10
5.96,0.17928878030241233,77.50000000340818,0,60,3.0,4,8.019235471746309e-11
5.965,0.14946211903866036,77.50000000206927,0,60,3.0,4,4.868872886564692e-11
5.97,0.1197651512573837,77.50000000124926,0,60,3.0,4,2.939440063902807e-11
5.975,0.09224675744988023,77.50000000074995,0,60,3.0,4,1.764586907965542e-11
5.98,0.06829565320281596,77.50000000044767,0,60,3.0,4,1.0533419887959848e-11
5.985,0.04860224607515734,77.50000000026571,0,60,3.0,4,6.252107328584637e-12
5.99,0.03324612389699793,77.50000000015683,0,60,3.0,4,3.6901410032228076e-12
5.995,0.021859876340472782,77.50000000009204,0,60,3.0,4,2.1657342585967854e-12
6.0,0.01381595518554205,77.50000000005372,0,60,3.0,4,1.2639301370226723e-12
6.005,0.008394095110402422,77.50000000003116,0,60,3.0,4,7.332801033044234e-13
6.01,0.0049052535271608,77.50000000001798,0,60,3.0,4,4.229819109348361e-13
6.015,0.0027671663551903634,77.50000000001032,0,60,3.0,4,2.4275483584086246e-13
6.02,0.0015425553464444616,77.50000000000588,0,60,3.0,4,1.3843044357867362e-13
6.025,0.0009638206637011801,77.50000000000334,0,60,3.0,5,7.857766724876402e-14
6.03,0.0009804935156568228,77.50000000000189,0,60,3.0,5,4.447161593227921e-14
6.035,0.0018793744894085216,77.50000000000105,0,60,3.0,5,2.4743605857057607e-14
6.04,0.004535525206900863,77.50000000000058,0,60,3.0,5,1.3709295137018404e-14
6.045,0.010832767979632273,77.50000000000033,0,60,3.0,5,7.690580198815202e-15
6.05,0.024208003392322392,77.50000000000018,0,60,3.0,5,4.3468496775912015e-15
6.055,0.0500971897335304,77.5000000000001,0,60,3.0,5,2.3406113648568006e-15
6.06,0.09582894921774403,77.50000000000006,0,60,3.0,5,1.3374922084896003e-15
6.065,0.16937896721820658,77.50000000000003,0,60,3.0,5,6.687461042448002e-16
6.07,0.27661303008991756,77.50000000000001,0,60,3.0,5,3.343730521224001e-16
6.075,0.4173782800009149,77.50000000000001,0,60,3.0,5,3.343730521224001e-16
6.08,0.5818720934538056,77.5,0,60,3.0,5,0.0
6.085,0.7494718801585675,77.5,0,60,3.0,5,0.0
6.09,0.891813020752378,77.5,0,60,3.0,5,0.0
6.095,0.9800361632936612,77.5,0,60,3.0,5,0.0
6.1,0.993574479225126,77.5000024966485,1,60,3.0,5,5.874467072263702e-08
6.105,0.9263438449375362,77.50000388454893,0,60,3.0,5,9.140115132729132e-08
6.11,0.7873015962290536,77.50000618232913,0,60,3.0,5,1.454665677743726e-07
6.115,0.5959516244629897,77.5000101847726,0,60,3.0,5,2.396417083700191e-07
6.12,0.376910120078773,77.50001756083037,0,60,3.0,5,4.1319600875474007e-07
6.125,0.15739335672107918,77.50003188149957,0,60,3.0,5,7.501529309780274e-07
6.13,-0.033361226269301235,77.50006080365405,0,60,3.0,5,1.4306742129707239e-06
6.135,-0.1680180840843834,77.50012058486693,0,60,3.0,5,2.8372909866902773e-06
6.14,-0.23069703190837854,77.50024513995355,0,60,3.0,5,5.7679989070306076e-06
6.145,-0.22587267821131068,77.50050363241509,0,60,3.0,5,1.1850174472690068e-05
6.15,-0.17718181630665902,77.50103350758017,0,60,3.0,5,2.4317825415878626e-05
6.155,-0.11494332516451301,77.50210036935763,0,60,3.0,5,4.942045547375742e-05
6.16,-0.061810214049552864,77.50420258594323,0,60,3.0,5,9.888437513489087e-05
6.165,-0.026546104631500547,77.50824711533218,0,60,3.0,5,0.00019404977252192754
6.17,-0.00719600351942686,77.51583324529174,0,60,3.0,5,0.0003725469480410565
6.175,0.0022072757983807078,77.52969102922935,0,60,3.0,5,0.0006986124524554029
6.18,0.006917199873730717,77.55432766935884,0,60,3.0,5,0.0012782981025609656
6.185,0.01004859748264829,77.5969322368778,0,60,3.0,5,0.0022807585147718865
6.19,0.013037082251128167,77.66856909864642,0,60,3.0,5,0.003966331732856829
6.195,0.01645163937690478,77.78564441251984,0,60,3.0,5,0.006721045000466909
6.2,0.020526639934696615,77.97155076923681,0,60,3.0,5,0.011095312217336789
6.205,0.02539629541761738,78.2582808201053,0,60,3.0,5,0.017841901649536432
6.21,0.031171612185577933,78.68766052792253,0,60,3.0,5,0.027944953598177214
6.215,0.03795853426638131,79.31171075246023,0,60,3.0,5,0.04262848829318186
6.22,0.0458588961882057,80.19154347445966,0,60,3.0,5,0.06333043469316856
6.225,0.054966995891435555,81.39419054317591,0,60,3.0,5,0.09162801278060964
6.23,0.06536491004445595,82.9869047835598,0,60,3.0,5,0.1291036419661128
6.235,0.07711726085088699,85.02880519220997,0,60,3.0,5,0.17714835746376406
6.24,0.09026570629555215,87.56025991780172,0,60,3.0,5,0.23671199806592272
6.245,0.10482339848670268,90.59105402879193,0,60,3.0,5,0.3080248006774572
6.25,0.12076968927580028,94.08904924277502,0,60,3.0,5,0.3903305704182357
6.255,0.13804539501007884,97.97153364558193,0,60,3.0,5,0.48168314460192774
6.26,0.15654895051787066,102.10159121830677,0,60,3.0,5,0.5788609698425121
6.265,0.17613378141900526,106.29144711748273,0,60,3.0,5,0.6774458145290054
6.27,0.19660720058055794,110.31382182199403,0,60,3.0,5,0.7720899252233888
6.275,0.21773108748496234,113.92095766616347,0,60,3.0,5,0.8569637097920817
6.28,0.23922453870058807,116.86941633089845,0,60,3.0,5,0.9263392077858458
6.285,0.2607685857914563,118.94734075580467,0,60,3.0,5,0.9752315471954041
6.29,0.2820129681603682,120.0,0,60,3.0,5,1.0
6.295,0.30258482867153996,119.94936806517826,0,60,3.0,5,0.9988086603571356
6.3,0.3220990771751686,118.80431883209974,0,60,3.0,5,0.9718663254611704
6.305,0.3401700499968971,116.65961054384493,0,60,3.0,5,0.9214026010316455
6.31,0.3564239911198326,113.6838413525704,0,60,3.0,5,0.8513845024134211
6.315,0.3705118017738417,110.09852371838782,0,60,3.0,5,0.7670240874914782
6.32,0.3821214567925213,106.15190294941635,0,60,3.0,5,0.6741624223392083
6.325,0.39098947374066967,102.09182171295444,0,60,3.0,5,0.5786310991283398
6.33,0.3969108472035567,98.14171008969322,0,60,3.0,5,0.48568729622807577
6.335,0.3997469255491936,94.48278858522536,0,60,3.0,5,0.39959502553471443
6.34,0.3994308076379137,91.24411073570738,0,60,3.0,5,0.32339084084017367
6.345,0.3959699661768434,88.50051791606685,0,60,3.0,5,0.2588357156721613
6.35,0.38944595408114946,86.27727400892925,0,60,3.0,5,0.20652409432774715
6.355,0.38001120995358023,84.55931872476093,0,60,3.0,5,0.1661016170531983
6.36,0.3678831374098315,83.3028005744429,0,60,3.0,5,0.13653648410453878
6.365,0.35333577933796634,82.44675842842192,0,60,3.0,5,0.1163943159628686
6.37,0.33668953221163944,81.9233555217599,0,60,3.0,5,0.10407895345317417
6.375,0.3182994390982644,81.6657405782961,0,60,3.0,5,0.09801742537167282
6.38,0.29854265738230645,81.61324823680155,0,60,3.0,5,0.0967823114541542
6.385,0.2778057157821067,81.71414190823803,0,60,3.0,5,0.09915628019383609
6.39,0.2564721553719815,81.92639917335062,0,60,3.0,5,0.10415056878472041
6.395,0.23491109433464996,82.21715152529522,0,60,3.0,5,0.1109918005951817
6.4,0.21346717185309805,82.56136080468661,0,60,3.0,5,0.11909084246321447
6.405,0.19245222055656455,82.94020128362216,0,60,3.0,5,0.12800473608522728
6.41,0.17213889801761392,83.33947177339249,0,60,3.0,5,0.13739933584452915
6.415,0.15275638501270183,83.74822470521731,0,60,3.0,5,0.14701705188746614
6.42,0.13448814019607322,84.1576901961562,0,60,3.0,5,0.1566515340272046
6.425,0.11747159495449566,84.56049942906901,0,60,3.0,5,0.16612939833103557
6.43,0.10179958433370105,84.95017025612171,0,60,3.0,5,0.17529812367345196
6.435,0.08752324394101413,85.32080099438407,0,60,3.0,5,0.18401884692668405
6.44,0.07465606047174059,85.66691715781909,0,60,3.0,5,0.19216275665456672
6.445,0.0631787448609295,85.98342289070791,0,60,3.0,5,0.19960995036959797
6.45,0.05304460019959574,86.26561884786955,0,60,3.0,5,0.20624985524398934
6.455,0.044185078305849994,86.50925808244908,0,60,3.0,5,0.21198254311644893
6.46,0.03651525513023255,86.71061970560895,0,60,3.0,5,0.21672046366138703
6.465,0.0299390014708757,86.86658630913784,0,60,3.0,5,0.22039026609736104
6.47,0.024353677220580638,86.97471559675341,0,60,3.0,5,0.22293448462949206
6.475,0.01965423034339045,87.03329977142683,0,60,3.0,5,0.22431293579827827
6.48,0.015736632374757337,87.04140840180983,0,60,3.0,5,0.2245037271014078
6.485,0.012500627640593535,86.99891208474476,0,60,3.0,5,0.2235038137587002
6.49,0.009851811652115898,86.90648547061232,0,60,3.0,5,0.22132906989676057
6.495,0.007703084175428559,86.76558926724239,0,60,3.0,5,0.21801386511158566
6.5,0.005975544002062424,86.5784317591195,0,60,3.0,5,0.2136101590381058
6.505,0.004598905818663047,86.34791119812435,0,60,3.0,5,0.20818614583822
6.51,0.0035115256454839104,86.07754113966531,0,60,3.0,5,0.20182449740388975
6.515,0.002660121266303676,85.77136140052126,0,60,3.0,5,0.19462026824755901
6.52,0.0019992692560877024,85.43383778522907,0,60,3.0,5,0.18667853612303703
6.525,0.0014907520044639367,85.06975405182008,0,60,3.0,5,0.1781118600428255
6.53,0.0011028178277539807,84.68409975610096,0,60,3.0,5,0.16903764132002266
6.535,0.0008094059938923333,84.2819576246531,0,60,3.0,5,0.15957547352124948
6.54,0.0005893771793717645,83.86839396614698,0,60,3.0,5,0.14984456390934076
6.545,0.0004257792353490551,83.44835535165316,0,60,3.0,5,0.13996130239183913
6.55,0.0003051686392901525,83.02657439701731,0,60,3.0,5,0.13003704463570148
6.555,0.00021699992642659966,82.6074869887465,0,60,3.0,5,0.12017616444109415
6.56,0.00015308884054097838,82.19516273734413,0,60,3.0,5,0.11047441734927374
6.565,0.00010714989329311098,81.7932498483948,0,60,3.0,5,0.1010176434916422
6.57,7.440535854020571e-05,81.40493500158567,0,60,3.0,5,0.09188082356672166
6.575,5.1260276743925106e-05,81.03291824914021,0,60,3.0,5,0.08312748821506374
6.58,3.503659887882241e-05,80.6794024125245,0,60,3.0,5,0.07480946852998814
6.585,2.375894748103639e-05,80.34609599014749,0,60,3.0,5,0.06696696447405857
6.59,1.5984413869232557e-05,80.03422820440662,0,60,3.0,5,0.05962889892721451
6.595,1.0669166579899869e-05,79.74457452363798,0,60,3.0,5,0.05281351820324657
6.6,7.06526633560511e-06,79.4774907976045,0,60,3.0,5,0.04652919523775301
6.605,4.641847214699205e-06,79.23295404316598,0,60,3.0,5,0.04077538925096412
6.61,3.025641074479182e-06,79.01060790415472,0,60,3.0,5,0.035543715391875876
6.615,1.9566278676921314e-06,78.80981087682954,0,60,3.0,5,0.030819079454812815
6.62,1.2553456560008793e-06,78.62968552729907,0,60,3.0,5,0.0265808359364488
6.625,7.990660428214668e-07,78.4691671158064,0,60,3.0,5,0.022803932136621168
6.63,5.046221251618276e-07,78.32705026967079,0,60,3.0,5,0.01946000634519511
6.635,3.1616527078858815e-07,78.2020325969465,0,60,3.0,5,0.01651841404579988
6.64,1.9652884407760343e-07,78.0927543922857,0,60,3.0,5,0.013947162171428197
6.645,1.2120002189836396e-07,77.99783384238104,0,60,3.0,5,0.011713737467789209
6.65,7.415549848886236e-08,77.91589737998032,0,60,3.0,5,0.009785820705419343
6.655,4.501406988770349e-08,77.84560505434425,0,60,3.0,5,0.008131883631629347
6.66,0.0,77.78567097606587,0,60,3.0,5,0.006721670025079367
6.665,0.0,77.73487905164139,0,60,3.0,5,0.0055265659209737805
6.67,0.0,77.69209434649721,0,60,3.0,5,0.004519866976405036
6.675,0.0,77.65627050466959,0,60,3.0,5,0.0036769530510492344
6.68,0.0,77.62645371089663,0,60,3.0,5,0.0029753814328618024
6.685,0.0,77.60178370962433,0,60,3.0,5,0.0023949108146900794
6.69,0.0,77.58149239927823,0,60,3.0,5,0.0019174682183113552
6.695,0.0,77.5649005035173,0,60,3.0,5,0.001527070670995138
6.7,0.0,77.55141278863067,0,60,3.0,5,0.001209712673662847
6.705,0.0,77.5405122522104,0,60,3.0,5,0.0009532294637742379
6.71,0.0,77.53175365686594,0,60,3.0,5,0.0007471448674339974
6.715,0.0,77.5247567276939,0,60,3.0,5,0.0005825112398564242
6.72,0.0,77.51919927656837,0,60,3.0,5,0.0004517476839616981
6.725,0.0,77.51481046255032,0,60,3.0,5,0.0003484814717721212
6.73,0.0,77.51136434769356,0,60,3.0,5,0.0002673964163190088
6.735,0.0,77.50867386254117,0,60,3.0,5,0.00020409088332170916
6.74,0.0,77.50658525642717,0,60,3.0,5,0.0001549472100511112
6.745,0.0,77.50497307465665,0,60,3.0,5,0.00011701352133286491
6.75,0.0,77.50373567769842,0,60,3.0,5,8.78982987862454e-05
6.755,0.0,77.50279129638474,0,60,3.0,5,6.567756199394674e-05
6.76,0.0,77.50207460126839,0,60,3.0,5,4.88141474915317e-05
6.765,0.0,77.50153375311476,0,60,3.0,5,3.608830858250739e-05
6.77,0.0,77.50112789431837,0,60,3.0,5,2.653868984406044e-05
6.775,0.0,77.50082503712781,0,60,3.0,5,1.9412638301432976e-05
6.78,0.0,77.50060030327039,0,60,3.0,5,1.4124782832676133e-05
6.785,0.0,77.50043447026465,0,60,3.0,5,1.022282975648469e-05
6.79,0.0,77.50031278184728,0,60,3.0,5,7.35957287728899e-06
6.795,0.0,77.50022398305025,0,60,3.0,5,5.270189417588507e-06
6.8,0.0,77.50015954415629,0,60,3.0,5,3.753980147995903e-06
6.805,0.0,77.50011304172635,0,60,3.0,5,2.659805325907548e-06
6.81,0.0,77.50007966889501,0,60,3.0,5,1.8745622355709203e-06
6.815,0.0,77.50005585099808,0,60,3.0,5,1.3141411313079194e-06
6.82,0.0,77.50003894621133,0,60,3.0,5,9.163814431357263e-07
6.825,0.0,77.50002701416986,0,60,3.0,5,6.356275261008276e-07
6.83,0.0,77.50001863846614,0,60,3.0,5,4.3855214458102745e-07
6.835,0.001684486749771458,77.50001279148142,0,60,3.0,5,3.00976033512972e-07
6.84,0.003097557930867117,77.50000873219956,0,60,3.0,5,2.0546351907689635e-07
6.845,0.005475106668887023,77.5000059295071,0,60,3.0,5,1.3951781404423802e-07
6.85,0.00930222931468658,77.50000400502901,0,60,3.0,5,9.42359767631227e-08
6.855,0.01519157517868857,77.50000269082139,0,60,3.0,5,6.331344446366797e-08
6.86,0.023847336626128316,77.50000179827543,0,60,3.0,5,4.231236316092477e-08
6.865,0.0359830743700859,77.5000011954177,0,60,3.0,5,2.8127475188204484e-08
6.87,0.05218887796857759,77.50000079045161,0,60,3.0,5,1.8598861368659796e-08
6.875,0.0727577001223134,77.50000051990384,0,60,3.0,5,1.2233031424436965e-08
6.88,0.0974992498694751,77.50000034014406,0,60,3.0,5,8.003389532806229e-09
6.885,0.12558706050443358,77.50000022135784,0,60,3.0,5,5.208419692922582e-09
6.89,0.15549263588878245,77.50000014329103,0,60,3.0,5,3.3715537028911058e-09
6.895,0.1850529723539114,77.50000009226464,0,60,3.0,5,2.170932756438132e-09
6.9,0.21169159439317053,77.50000005909403,0,60,3.0,5,1.3904478718733812e-09
6.905,0.23277292922115492,77.5000000376482,0,60,3.0,5,8.858401489466333e-10
6.91,0.24602692519491282,77.50000002385815,0,60,3.0,5,5.613682172706296e-10
6.915,0.24995056064839283,77.50000001503909,0,60,3.0,5,3.538609823461978e-10
6.92,0.24408826520424054,77.50000000942971,0,60,3.0,5,2.2187557934718345e-10
6.925,0.22911894216865275,77.50000000588122,0,60,3.0,5,1.3838162511306377e-10
6.93,0.20672661788705934,77.50000000364862,0,60,3.0,5,8.58499467593741e-11
6.935,0.17928878030241233,77.50000000225155,0,60,3.0,5,5.297773200522095e-11
6.94,0.14946211903866036,77.50000000138206,0,60,3.0,5,3.25191168111119e-11
6.945,0.1197651512573837,77.50000000084385,0,60,3.0,5,1.985540620808024e-11
6.95,0.09224675744988023,77.5000000005125,0,60,3.0,5,1.2058829751742238e-11
6.955,0.06829565320281596,77.50000000030961,0,60,3.0,5,7.28498568659073e-12
6.96,0.04860224607515734,77.50000000018605,0,60,3.0,5,4.377611998386462e-12
6.965,0.03324612389699793,77.50000000011121,0,60,3.0,5,2.6168035059099033e-12
6.97,0.021859876340472782,77.50000000006612,0,60,3.0,5,1.5558378115255276e-12
6.975,0.01381595518554205,77.50000000003911,0,60,3.0,5,9.20194639440845e-13
6.98,0.008394095110402422,77.50000000002301,0,60,3.0,5,5.413499713861657e-13
6.985,0.0049052535271608,77.50000000001346,0,60,3.0,5,3.1665128035991287e-13
6.99,0.0027671663551903634,77.50000000000783,0,60,3.0,5,1.8423955171944245e-13
6.995,0.0015425553464444616,77.50000000000453,0,60,3.0,5,1.0666500362704563e-13
7.0,0.0009638206637011801,77.50000000000261,0,60,3.0,5,6.152464159052161e-14
7.005,0.0009804935156568228,77.50000000000149,0,60,3.0,5,3.510917047285201e-14
7.01,0.0018793744894085216,77.50000000000085,0,60,3.0,5,2.0062383127344007e-14
7.015,0.004535525206900863,77.50000000000048,0,60,3.0,5,1.1368683772161604e-14
7.02,0.010832767979632273,77.50000000000027,0,60,3.0,5,6.353087990325602e-15
7.025,0.024208003392322392,77.50000000000016,0,60,3.0,5,3.678103573346401e-15
7.03,0.0500971897335304,77.50000000000009,0,60,3.0,5,2.0062383127344005e-15
7.035,0.09582894921774403,77.50000000000004,0,60,3.0,5,1.0031191563672002e-15
7.04,0.16937896721820658,77.50000000000003,0,60,3.0,5,6.687461042448002e-16
7.045,0.27661303008991756,77.50000000000001,0,60,3.0,5,3.343730521224001e-16
7.05,0.4173782800009149,77.50000000000001,0,60,3.0,5,3.343730521224001e-16
7.055,0.5818720934538056,77.5,0,60,3.0,5,0.0
7.06,0.7494718801585675,77.5,0,60,3.0,5,0.0
7.065,0.891813020752378,77.5,0,60,3.0,5,0.0
7.07,0.9800361632936612,77.5,0,60,3.0,5,0.0
7.075,0.993574479225126,77.50000249379623,1,60,3.0,5,5.8677558372972485e-08
7.08,0.9263438449375362,77.50000387113866,0,60,3.0,5,9.108561551543329e-08
7.085,0.7873015962290536,77.50000614495686,0,60,3.0,5,1.44587220146979e-07
7.09,0.5959516244629897,77.50001009206693,0,60,3.0,5,2.3746039834590835e-07
7.095,0.376910120078773,77.5000173369902,0,60,3.0,5,4.079291811114458e-07
7.1,0.15739335672107918,77.50003134163862,0,60,3.0,5,7.37450320417231e-07
7.105,-0.033361226269301235,77.50005950089377,0,60,3.0,5,1.4000210298678105e-06
7.11,-0.1680180840843834,77.50011746182723,0,60,3.0,5,2.7638076995331443e-06
7.115,-0.23069703190837854,77.50023776471434,0,60,3.0,5,5.594463866868062e-06
7.12,-0.22587267821131068,77.50048658883156,0,60,3.0,5,1.1449148977964583e-05
7.125,-0.17718181630665902,77.50099513789219,0,60,3.0,5,2.341500922799402e-05
7.13,-0.11494332516451301,77.50201644570332,0,60,3.0,5,4.744578125456321e-05
7.135,-0.061810214049552864,77.50402451354624,0,60,3.0,5,9.469443638214911e-05
7.14,-0.026546104631500547,77.50788085207563,0,60,3.0,5,0.00018543181354422868
7.145,-0.00719600351942686,77.51510323642296,0,60,3.0,5,0.0003553702687755129
7.15,0.0022072757983807078,77.52828124048683,0,60,3.0,5,0.0006654409526313831
7.155,0.006917199873730717,77.55168968563063,0,60,3.0,5,0.001216227897191402
7.16,0.01004859748264829,77.59214923171803,0,60,3.0,5,0.002168217216894712
7.165,0.013037082251128167,77.66016563836381,0,60,3.0,5,0.0037686032556189944
7.17,0.01645163937690478,77.77133735087011,0,60,3.0,5,0.006384408255767352
7.175,0.020526639934696615,77.94794785355886,0,60,3.0,5,0.01053994949550255
7.18,0.02539629541761738,78.22055245920677,0,60,3.0,5,0.01695417551074757
7.185,0.031171612185577933,78.62923630281921,0,60,3.0,5,0.02657026594868726
7.19,0.03795853426638131,79.22408280415199,0,60,3.0,5,0.040566654215340954
7.195,0.0458588961882057,80.06428738171843,0,60,3.0,5,0.06033617368749246
7.2,0.054966995891435555,81.21533054261677,0,60,3.0,5,0.0874195421792181
7.205,0.06536491004445595,82.74374175486754,0,60,3.0,5,0.12338215893805983
7.21,0.07711726085088699,84.70928122426405,0,60,3.0,5,0.16963014645327168
7.215,0.09026570629555215,87.1548465652038,0,60,3.0,5,0.2271728603577364
7.22,0.10482339848670268,90.09502724164179,0,60,3.0,5,0.29635358215627733
7.225,0.12076968927580028,93.50487114298438,0,60,3.0,5,0.3765852033643385
7.23,0.13804539501007884,97.31093238205123,0,60,3.0,6,0.46613958546002904
7.235,0.15654895051787066,101.38685595826713,0,60,3.0,6,0.5620436696062855
7.24,0.17613378141900526,105.55547445391579,0,60,3.0,6,0.6601288106803715
7.245,0.19660720058055794,109.59858538401849,0,60,3.0,6,0.755260832565141
7.25,0.21773108748496234,113.27431955233847,0,60,3.0,6,0.8417486953491404
7.255,0.23922453870058807,116.34051861380365,0,60,3.0,6,0.9138945556189094
7.26,0.2607685857914563,118.58114006736284,0,60,3.0,6,0.9666150604085374
7.265,0.2820129681603682,119.8317565853096,0,60,3.0,6,0.9960413314190495
7.27,0.30258482867153996,120.0,0,60,3.0,6,1.0
7.275,0.3220990771751686,119.07744164457799,0,60,3.0,6,0.9782927445783056
7.28,0.3401700499968971,117.14080910839245,0,60,3.0,6,0.9327249201974693
7.285,0.3564239911198326,114.34232070302158,0,60,3.0,6,0.8668781341887432
7.29,0.3705118017738417,110.89084986176812,0,60,3.0,6,0.7856670555710146
7.295,0.3821214567925213,107.02717543587835,0,60,3.0,6,0.6947570690794905
7.3,0.39098947374066967,102.99739961797562,0,60,3.0,6,0.5999388145406027
7.305,0.3969108472035567,99.02858404930407,0,60,3.0,6,0.5065549188071546
7.31,0.3997469255491936,95.309845089302,0,60,3.0,6,0.4190551785718118
7.315,0.3994308076379137,91.98081845212747,0,60,3.0,6,0.340725140050058
7.32,0.3959699661768434,89.12790132529386,0,60,3.0,6,0.27359767824220854
7.325,0.38944595408114946,86.78734731342963,0,60,3.0,6,0.21852581913952082
7.33,0.38001120995358023,84.9533724015562,0,60,3.0,6,0.17537346827191044
7.335,0.3678831374098315,83.58903512890868,0,60,3.0,6,0.14327141479785122
7.34,0.35333577933796634,82.63774874869135,0,60,3.0,6,0.1208882058515612
7.345,0.33668953221163944,82.0337334377467,0,60,3.0,6,0.10667608088815775
7.35,0.3182994390982644,81.71034347243264,0,60,3.0,6,0.09906690523370919
7.355,0.29854265738230645,81.60583753471548,0,60,3.0,6,0.09660794199330533
7.36,0.2778057157821067,81.66667643687869,0,60,3.0,6,0.0980394455736162
7.365,0.2564721553719815,81.84876988678565,0,60,3.0,6,0.10232399733613286
7.37,0.23491109433464996,82.11724772973115,0,60,3.0,6,0.10864112305249758
7.375,0.21346717185309805,82.44533609838746,0,60,3.0,6,0.11636084937382253
7.38,0.19245222055656455,82.81282786982345,0,60,3.0,6,0.1250077145840812
7.385,0.17213889801761392,83.2045024139376,0,60,3.0,6,0.13422358621029656
7.39,0.15275638501270183,83.60871282730876,0,60,3.0,6,0.14373441946608856
7.395,0.13448814019607322,84.01624472320185,0,60,3.0,6,0.15332340525180826
7.4,0.11747159495449566,84.41946941505593,0,60,3.0,6,0.1628110450601395
7.405,0.10179958433370105,84.81176549258696,0,60,3.0,6,0.17204154100204605
7.41,0.08752324394101413,85.18715992974894,0,60,3.0,6,0.18087435128821044
7.415,0.07465606047174059,85.54013465057005,0,60,3.0,6,0.18917963883694242
7.42,0.0631787448609295,85.86554926666517,0,60,3.0,6,0.1968364533332981
7.425,0.05304460019959574,86.1586397512219,0,60,3.0,6,0.20373270002875055
7.43,0.044185078305849994,86.41506250951961,0,60,3.0,6,0.20976617669457917
7.435,0.03651525513023255,86.6309617919093,0,60,3.0,6,0.2148461598096306
7.44,0.0299390014708757,86.80304503126104,0,60,3.0,6,0.21889517720614202
7.445,0.024353677220580638,86.92865552465399,0,60,3.0,6,0.22185071822715272
7.45,0.01965423034339045,87.00583527328615,0,60,3.0,6,0.22366671231261534
7.455,0.015736632374757337,87.03337316307264,0,60,3.0,6,0.22431466266053268
7.46,0.012500627640593535,87.01083537210316,0,60,3.0,6,0.22378436169654492
7.465,0.009851811652115898,86.938576193165,0,60,3.0,6,0.22208414572152954
7.47,0.007703084175428559,86.81772852740197,0,60,3.0,6,0.2192406712329875
7.475,0.005975544002062424,86.65017423074696,0,60,3.0,6,0.21529821719404602
7.48,0.004598905818663047,86.43849531771997,0,60,3.0,6,0.2103175368875287
7.485,0.0035115256454839104,86.18590775527554,0,60,3.0,6,0.20437430012413027
7.49,0.002660121266303676,85.8961802035904,0,60,3.0,6,0.19755718126095068
7.495,0.0019992692560877024,85.57354056557351,0,60,3.0,6,0.1899656603664355
7.5,0.0014907520044639367,85.22257357723743,0,60,3.0,6,0.1817076135820571
7.505,0.0011028178277539807,84.84811289585821,0,60,3.0,6,0.17289677402019313
7.51,0.0008094059938923333,84.4551312173353,0,60,3.0,6,0.16365014629024252
7.515,0.0005893771793717645,84.04863188079896,0,60,3.0,6,0.15408545601879917
7.52,0.0004257792353490551,83.63354520691325,0,60,3.0,6,0.1443187107509001
7.525,0.0003051686392901525,83.21463248261027,0,60,3.0,6,0.13446194076730048
7.53,0.00021699992642659966,82.79640007066425,0,60,3.0,6,0.12462117813327642
7.535,0.00015308884054097838,82.38302561301214,0,60,3.0,6,0.11489472030616793
7.54,0.00010714989329311098,81.97829773979932,0,60,3.0,6,0.1053717115246898
7.545,7.440535854020571e-05,81.58557012016932,0,60,3.0,6,0.09613106165104288
7.55,5.1260276743925106e-05,81.20773012323724,0,60,3.0,6,0.08724070878205271
7.555,3.503659887882241e-05,80.84718182348887,0,60,3.0,6,0.07875721937620864
7.56,2.375894748103639e-05,80.50584260541186,0,60,3.0,6,0.07072570836263192
7.565,1.5984413869232557e-05,80.18515221437653,0,60,3.0,6,0.06318005210297717
7.57,1.0669166579899869e-05,79.88609277648273,0,60,3.0,6,0.05614335944665239
7.575,7.06526633560511e-06,79.60921807587849,0,60,3.0,6,0.0496286606089056
7.58,4.641847214699205e-06,79.35469023543456,0,60,3.0,6,0.04363977024551907
7.585,3.025641074479182e-06,79.12232189244838,0,60,3.0,6,0.03817227982231489
7.59,1.9566278676921314e-06,78.91162198804986,0,60,3.0,6,0.03321463501293786
7.595,1.2553456560008793e-06,78.72184338679695,0,60,3.0,6,0.02874925615992819
7.6,7.990660428214668e-07,78.55203069891354,0,60,3.0,6,0.024753663503848014
7.605,5.046221251618276e-07,78.4010668777479,0,60,3.0,6,0.021201573594068095
7.61,3.1616527078858815e-07,78.2677173949188,0,60,3.0,6,0.018063938703971872
7.615,1.9652884407760343e-07,78.15067104128426,0,60,3.0,6,0.015309906853747179
7.62,1.2120002189836396e-07,78.04857665043636,0,60,3.0,6,0.012907685892620226
7.625,7.415549848886236e-08,77.96007528166045,0,60,3.0,6,0.010825300744951792
7.63,4.501406988770349e-08,77.88382762196936,0,60,3.0,6,0.009031238163984934
7.635,0.0,77.81853656491259,0,60,3.0,6,0.007494977997943325
7.64,0.0,77.76296509259281,0,60,3.0,6,0.006187413943360177
7.645,0.0,77.71594972407637,0,60,3.0,6,0.005081169978267459
7.65,0.0,77.6764098974902,0,60,3.0,6,0.004150821117416533
7.655,0.0,77.64335372555104,0,60,3.0,6,0.003373028836494996
7.66,0.0,77.61588060740796,0,60,3.0,6,0.0027266025272461
7.665,0.0,77.59318119681424,0,60,3.0,6,0.002192498748570415
7.67,0.0,77.5745352217389,0,60,3.0,6,0.001753769923268197
7.675,0.0,77.55930762785665,0,60,3.0,6,0.0013954735966271582
7.68,0.0,77.54694348223622,0,60,3.0,6,0.001104552523205083
7.685,0.0,77.53696202809876,0,60,3.0,6,0.0008696947787942623
7.69,0.0,77.52895023050213,0,60,3.0,6,0.0006811818941678345
7.695,0.0,77.52255609948452,0,60,3.0,6,0.0005307317525768988
7.7,0.0,77.5174820242859,0,60,3.0,6,0.0004113417479034604
7.705,0.0,77.51347830188524,0,60,3.0,6,0.0003171365149468971
7.71,0.0,77.51033699680363,0,60,3.0,6,0.00024322345420306889
7.715,0.0,77.50788622796446,0,60,3.0,6,0.00018555830504617596
7.72,0.0,77.50598494293993,0,60,3.0,6,0.00014082218682193236
7.725,0.0,77.50451821032726,0,60,3.0,6,0.00010631083122970107
7.73,0.0,77.50339303715964,0,60,3.0,6,7.983616846211268e-05
7.735,0.0,77.50253469979884,0,60,3.0,6,5.963999526690767e-05
7.74,0.0,77.50188356315793,0,60,3.0,6,4.431913312781516e-05
7.745,0.0,77.5013923537419,0,60,3.0,6,3.276126451543646e-05
7.75,0.0,77.501023846212,0,60,3.0,6,2.4090499105715722e-05
7.755,0.0,77.50074892031576,0,60,3.0,6,1.7621654488413484e-05
7.76,0.0,77.5005449444552,0,60,3.0,6,1.2822222475292353e-05
7.765,0.0,77.50039444332097,0,60,3.0,6,9.281019316965873e-06
7.77,0.0,77.50028400940215,0,60,3.0,6,6.682574168253803e-06
7.775,0.0,77.5002034213682,0,60,3.0,6,4.786385134072107e-06
7.78,0.0,77.50014493596511,0,60,3.0,6,3.410258002598793e-06
7.785,0.0,77.50010272390129,0,60,3.0,6,2.417032971593739e-06
7.79,0.0,77.50007242401301,0,60,3.0,6,1.704094423824726e-06
7.795,0.0,77.50005079364838,0,60,3.0,6,1.1951446678642029e-06
7.8,0.0,77.50003543659405,0,60,3.0,6,8.338022128635417e-07
7.805,0.0,77.50002459293042,0,60,3.0,6,5.786571862512681e-07
7.81,0.0,77.50001697791406,0,60,3.0,6,3.994803307705297e-07
7.815,0.001684486749771458,77.5000116593442,0,60,3.0,6,2.7433751049155786e-07
7.82,0.003097557930867117,77.50000796488771,0,60,3.0,6,1.874091226989763e-07
7.825,0.005475106668887023,77.5000054125377,0,60,3.0,6,1.2735382831445296e-07
7.83,0.00930222931468658,77.50000365879397,0,60,3.0,6,8.608926992458103e-08
7.835,0.01519157517868857,77.50000246031502,0,60,3.0,6,5.7889765096607495e-08
7.84,0.023847336626128316,77.50000164573241,0,60,3.0,6,3.8723115548076324e-08
7.845,0.0359830743700859,77.500001095074,0,60,3.0,6,2.5766447004785092e-08
7.85,0.05218887796857759,77.50000072484218,0,60,3.0,6,1.7055110139849337e-08
7.855,0.0727577001223134,77.50000047726456,0,60,3.0,6,1.1229754443989162e-08
7.86,0.0974992498694751,77.50000031260122,0,60,3.0,6,7.355322729969938e-09
7.865,0.12558706050443358,77.50000020367507,0,60,3.0,6,4.79235462294395e-09
7.87,0.15549263588878245,77.50000013200818,0,60,3.0,6,3.106074874428005e-09
7.875,0.1850529723539114,77.50000008510979,0,60,3.0,6,2.0025832809016505e-09
7.88,0.21169159439317053,77.50000005458509,0,60,3.0,6,1.284354980538517e-09
7.885,0.23277292922115492,77.50000003482444,0,60,3.0,6,8.193985516246518e-10
7.89,0.24602692519491282,77.5000000221009,0,60,3.0,6,5.200213175104342e-10
7.895,0.24995056064839283,77.50000001395249,0,60,3.0,6,3.2829381566176274e-10
7.9,0.24408826520424054,77.50000000876211,0,60,3.0,6,2.0616740210457733e-10
7.905,0.22911894216865275,77.50000000547372,0,60,3.0,6,1.2879347784345396e-10
7.91,0.20672661788705934,77.50000000340151,0,60,3.0,6,8.003553375601768e-11
7.915,0.17928878030241233,77.5000000021027,0,60,3.0,6,4.9475174284238806e-11
7.92,0.14946211903866036,77.50000000129299,0,60,3.0,6,3.0423266520408696e-11
7.925,0.1197651512573837,77.50000000079092,0,60,3.0,6,1.86098665889243e-11
7.93,0.09224675744988023,77.50000000048126,0,60,3.0,6,1.1323877783177202e-11
7.935,0.06829565320281596,77.50000000029131,0,60,3.0,6,6.854313195457079e-12
7.94,0.04860224607515734,77.5000000001754,0,60,3.0,6,4.1271665823467845e-12
7.945,0.03324612389699793,77.50000000010506,0,60,3.0,6,2.4720199743409036e-12
7.95,0.021859876340472782,77.5000000000626,0,60,3.0,6,1.4729132945991723e-12
7.955,0.01381595518554205,77.5000000000371,0,60,3.0,6,8.730480390915867e-13
7.96,0.008394095110402422,77.50000000002187,0,60,3.0,6,5.146001272163737e-13
7.965,0.0049052535271608,77.50000000001283,0,60,3.0,6,3.0193886606652727e-13
7.97,0.0027671663551903634,77.50000000000749,0,60,3.0,6,1.7621459846850485e-13
7.975,0.0015425553464444616,77.50000000000435,0,60,3.0,6,1.0231815394945443e-13
7.98,0.0009638206637011801,77.5000000000025,0,60,3.0,6,5.884965717354242e-14
7.985,0.0009804935156568228,77.50000000000144,0,60,3.0,6,3.377167826436241e-14
7.99,0.0018793744894085216,77.50000000000082,0,60,3.0,6,1.9393637023099206e-14
7.995,0.004535525206900863,77.50000000000047,0,60,3.0,6,1.1034310720039203e-14
8.0,0.010832767979632273,77.50000000000027,0,60,3.0,6,6.353087990325602e-15
8.005,0.024208003392322392,77.50000000000014,0,60,3.0,6,3.343730521224001e-15
8.01,0.0500971897335304,77.50000000000009,0,60,3.0,6,2.0062383127344005e-15
8.015,0.09582894921774403,77.50000000000004,0,60,3.0,6,1.0031191563672002e-15
8.02,0.16937896721820658,77.50000000000003,0,60,3.0,6,6.687461042448002e-16
8.025,0.27661303008991756,77.50000000000001,0,60,3.0,6,3.343730521224001e-16
8.03,0.4173782800009149,77.5,0,60,3.0,6,0.0
8.035,0.5818720934538056,77.5,0,60,3.0,6,0.0
8.04,0.7494718801585675,77.5,0,60,3.0,6,0.0
8.045,0.891813020752378,77.5,0,60,3.0,6,0.0
8.05,0.9800361632936612,77.5,0,60,3.0,6,0.0
8.055,0.993574479225126,77.50000248990796,1,60,3.0,6,5.858606955906212e-08
8.06,0.9263438449375362,77.5000037286574,0,60,3.0,6,8.773311539217128e-08
8.065,0.7873015962290536,77.50000568588439,0,60,3.0,6,1.337855150375296e-07
8.07,0.5959516244629897,77.50000890930662,0,60,3.0,6,2.0963074388526044e-07
8.075,0.376910120078773,77.50001447339277,0,60,3.0,6,3.4055041804576296e-07
8.08,0.15739335672107918,77.50002452750309,0,60,3.0,6,5.771177196787475e-07
8.085,-0.033361226269301235,77.5000433960668,0,60,3.0,6,1.021083924717245e-06
8.09,-0.1680180840843834,77.50007973898661,0,60,3.0,6,1.8762114497322353e-06
8.095,-0.23069703190837854,77.50015069162811,0,60,3.0,6,3.5456853672311648e-06
8.1,-0.22587267821131068,77.50028959295834,0,60,3.0,6,6.813951960914303e-06
8.105,-0.17718181630665902,77.50056001888449,0,60,3.0,6,1.3176914929063595e-05
8.11,-0.11494332516451301,77.50108054165499,0,60,3.0,6,2.542450952907583e-05
8.115,-0.061810214049552864,77.5020671248821,0,60,3.0,6,4.863823252007398e-05
8.12,-0.026546104631500547,77.50390348912202,0,60,3.0,6,9.184680287115256e-05
8.125,-0.00719600351942686,77.50725416478957,0,60,3.0,6,0.00017068623034286728
8.13,0.0022072757983807078,77.51324002953402,0,60,3.0,6,0.0003115301066827669
8.135,0.006917199873730717,77.52370117791926,0,60,3.0,6,0.0005576747745709219
8.14,0.01004859748264829,77.54157558450754,0,60,3.0,6,0.0009782490472362577
8.145,0.013037082251128167,77.57142194911829,0,60,3.0,6,0.0016805164498420895
8.15,0.01645163937690478,77.62010826221689,0,60,3.0,6,0.002826076758044431
8.155,0.020526639934696615,77.69767035157514,0,60,3.0,6,0.004651067095885671
8.16,0.02539629541761738,77.81831348778191,0,60,3.0,6,0.007489729124280168
8.165,0.031171612185577933,78.0014829477885,0,60,3.0,6,0.011799598771494188
8.17,0.03795853426638131,78.27286722650334,0,60,3.0,6,0.018185111211843217
8.175,0.0458588961882057,78.66512616122492,0,60,3.0,6,0.027414733205292204
8.18,0.054966995891435555,79.21806764054246,0,60,3.0,6,0.040425120953940186
8.185,0.06536491004445595,79.97794929382763,0,60,3.0,6,0.05830468926653259
8.19,0.07711726085088699,80.99557875484656,0,60,3.0,6,0.08224891187874264
8.195,0.09026570629555215,82.3229513271192,0,60,3.0,6,0.11348120769692233
8.2,0.10482339848670268,84.00831448173156,0,60,3.0,6,0.15313681133486023
8.205,0.12076968927580028,86.08978772150972,0,60,3.0,6,0.202112652270817
8.21,0.13804539501007884,88.5879756289421,0,60,3.0,6,0.26089354421040245
8.215,0.15654895051787066,91.49834781306552,0,60,3.0,6,0.32937288971918877
8.22,0.17613378141900526,94.78445551284759,0,60,3.0,6,0.4066930708905314
8.225,0.19660720058055794,98.37323150417649,0,60,3.0,6,0.4911348589217997
8.23,0.21773108748496234,102.15360288262184,0,60,3.0,6,0.5800847737087492
8.235,0.23922453870058807,105.97938632685833,0,60,3.0,6,0.6701032076907842
8.24,0.2607685857914563,109.67692951344652,0,60,3.0,6,0.7571042238458006
8.245,0.2820129681603682,113.05726517729511,0,60,3.0,6,0.8366415335834143
8.25,0.30258482867153996,115.93176672692951,0,60,3.0,6,0.9042768641630473
8.255,0.3220990771751686,118.12958552231964,0,60,3.0,6,0.9559902475839916
8.26,0.3401700499968971,119.51466594770267,0,60,3.0,6,0.9885803752400628
8.265,0.3564239911198326,120.0,0,60,3.0,6,1.0
8.27,0.3705118017738417,119.55705719463694,0,60,3.0,6,0.9895778163443986
8.275,0.3821214567925213,118.21898088329543,0,60,3.0,6,0.9580936678422454
8.28,0.39098947374066967,116.0770659251651,0,60,3.0,6,0.9076956688274141
8.285,0.3969108472035567,113.27105027643492,0,60,3.0,6,0.8416717712102334
8.29,0.3997469255491936,109.9746676782558,0,60,3.0,6,0.7641098277236659
8.295,0.3994308076379137,106.37854761648535,0,60,3.0,6,0.6794952380349494
8.3,0.3959699661768434,102.67280317329086,0,60,3.0,6,0.5923012511362555
8.305,0.38944595408114946,99.03149431203465,0,60,3.0,6,0.506623395577286
8.31,0.38001120995358023,95.60065623329429,0,60,3.0,6,0.4258977937245715
8.315,0.3678831374098315,92.49086680927319,0,60,3.0,6,0.35272627786525146
8.32,0.35333577933796634,89.77455031193628,0,60,3.0,6,0.2888129485161478
8.325,0.33668953221163944,87.48752467500061,0,60,3.0,6,0.23500058058824974
8.33,0.3182994390982644,85.63380478482745,0,60,3.0,6,0.19138364199593993
8.335,0.29854265738230645,84.19242663892466,0,60,3.0,6,0.1574688620923449
8.34,0.2778057157821067,83.1250509994629,0,60,3.0,6,0.13235414116383293
8.345,0.2564721553719815,82.38328973340646,0,60,3.0,6,0.11490093490368133
8.35,0.23491109433464996,81.91499786241418,0,60,3.0,6,0.10388230264503959
8.355,0.21346717185309805,81.66911041111341,0,60,3.0,6,0.0980967155556096
8.36,0.19245222055656455,81.59890989899148,0,60,3.0,6,0.09644493879979951
8.365,0.17213889801761392,81.66384541412548,0,60,3.0,6,0.0979728332735406
8.37,0.15275638501270183,81.8301704676645,0,60,3.0,6,0.1018863639450471
8.375,0.13448814019607322,82.07072824798924,0,60,3.0,6,0.10754654701151146
8.38,0.11747159495449566,82.36420728122273,0,60,3.0,6,0.11445193602877018
8.385,0.10179958433370105,82.69414154053058,0,60,3.0,6,0.12221509507130777
8.39,0.08752324394101413,83.04785974110723,0,60,3.0,6,0.13053787626134664
8.395,0.07465606047174059,83.41551711443385,0,60,3.0,6,0.1391886379866789
8.4,0.0631787448609295,83.78928111297144,0,60,3.0,6,0.14798308501109264
8.405,0.05304460019959574,84.16269580806126,0,60,3.0,6,0.15676931313085313
8.41,0.044185078305849994,84.53021899571937,0,60,3.0,6,0.16541691754633803
8.415,0.03651525513023255,84.88690903872194,0,60,3.0,6,0.1738096244405162
8.42,0.0299390014708757,85.22823174845027,0,60,3.0,6,0.18184074702235928
8.425,0.024353677220580638,85.5499575253136,0,60,3.0,6,0.1894107653014965
8.43,0.01965423034339045,85.84812248803348,0,60,3.0,6,0.19642641148314074
8.435,0.015736632374757337,86.1190322345129,0,60,3.0,7,0.20280075845912707
8.44,0.012500627640593535,86.35929182872866,0,60,3.0,7,0.20845392538185079
8.445,0.009851811652115898,86.56584990520606,0,60,3.0,7,0.2133141154166133
8.45,0.007703084175428559,86.73604818882806,0,60,3.0,7,0.21731878091360152
8.455,0.005975544002062424,86.86767027325033,0,60,3.0,7,0.22041577113530178
8.46,0.004598905818663047,86.95898533950358,0,60,3.0,7,0.2225643609294961
8.465,0.0035115256454839104,87.00878381221912,0,60,3.0,7,0.22373608969927344
8.47,0.002660121266303676,87.01640291098104,0,60,3.0,7,0.22391536261131867
8.475,0.0019992692560877024,86.98174078734127,0,60,3.0,7,0.2230997832315592
8.48,0.0014907520044639367,86.90525853242433,0,60,3.0,7,0.22130020076292534
8.485,0.0011028178277539807,86.78796984983194,0,60,3.0,7,0.21854046705486915
8.49,0.0008094059938923333,86.63141864206983,0,60,3.0,7,0.2148569092251725
8.495,0.0005893771793717645,86.4376451669792,0,60,3.0,7,0.21029753334068693
8.5,0.0004257792353490551,86.20914178417182,0,60,3.0,7,0.20492098315698398
8.505,0.0003051686392901525,85.94879962528395,0,60,3.0,7,0.1987952853007989
8.51,0.00021699992642659966,85.65984777902564,0,60,3.0,7,0.19199641833001505
8.515,0.00015308884054097838,85.34578677584746,0,60,3.0,7,0.184606747666999
8.52,0.00010714989329311098,85.0103182826044,0,60,3.0,7,0.1767133713553977
8.525,7.440535854020571e-05,84.65727297238483,0,60,3.0,7,0.16840642287964308
8.53,5.1260276743925106e-05,84.29053851906718,0,60,3.0,7,0.15977737691922786
8.535,3.503659887882241e-05,83.91398958343785,0,60,3.0,7,0.1509174019632436
8.54,2.375894748103639e-05,83.53142151384404,0,60,3.0,7,0.14191580032574205
8.545,1.5984413869232557e-05,83.14648928771153,0,60,3.0,7,0.13285857147556546
8.55,1.0669166579899869e-05,82.76265298104968,0,60,3.0,7,0.1238271289658749
8.555,7.06526633560511e-06,82.38313078282027,0,60,3.0,7,0.1148971948898888
8.56,4.641847214699205e-06,82.01086028197936,0,60,3.0,7,0.10613788898774969
8.565,3.025641074479182e-06,81.64846845941109,0,60,3.0,7,0.09761102257437863
8.57,1.9566278676921314e-06,81.29825052665099,0,60,3.0,7,0.08937060062708209
8.575,1.2553456560008793e-06,80.9621574790163,0,60,3.0,7,0.08146252891803055
8.58,7.990660428214668e-07,80.64179198183254,0,60,3.0,7,0.07392451721958918
8.585,5.046221251618276e-07,80.33841199240204,0,60,3.0,7,0.06678616452710691
8.59,3.1616527078858815e-07,80.05294134273204,0,60,3.0,7,0.06006920806428331
8.595,1.9652884407760343e-07,79.78598637227384,0,60,3.0,7,0.053787914641737405
8.6,1.2120002189836396e-07,79.53785760739456,0,60,3.0,7,0.04794959076222486
8.605,7.415549848886236e-08,79.30859543443712,0,60,3.0,7,0.04255518669263819
8.61,4.501406988770349e-08,79.09799870371573,0,60,3.0,7,0.03759996949919368
8.615,0.0,78.90565522887344,0,60,3.0,7,0.03307424067937511
8.62,0.0,78.73097320479162,0,60,3.0,7,0.028964075406861745
8.625,0.0,78.57321265199117,0,60,3.0,7,0.02525206239979224
8.63,0.0,78.43151610006214,0,60,3.0,7,0.021918025883815064
8.635,0.0,78.30493784085115,0,60,3.0,7,0.01893971390238007
8.64,0.0,78.19247120785805,0,60,3.0,7,0.016293440184895255
8.645,0.0,78.09307346591976,0,60,3.0,7,0.013954669786347254
8.65,0.0,78.00568801980442,0,60,3.0,7,0.011898541642457036
8.655,0.0,77.9292637675988,0,60,3.0,7,0.010100323943501119
8.66,0.0,77.86277153141357,0,60,3.0,7,0.008535800739142854
8.665,0.0,77.8052175915188,0,60,3.0,7,0.007181590388677585
8.67,0.0,77.75565442900356,0,60,3.0,7,0.006015398329495437
8.675,0.0,77.71318884570155,0,60,3.0,7,0.005016208134154166
8.68,0.0,77.67698767844453,0,60,3.0,7,0.004164415963400776
8.685,0.0,77.64628135832652,0,60,3.0,7,0.0034419143135651477
8.69,0.0,77.62036558570827,0,60,3.0,7,0.0028321314284299017
8.695,0.0,77.59860139965794,0,60,3.0,7,0.002320032933127938
8.7,0.0,77.5804139181414,0,60,3.0,7,0.001892092191562423
8.705,0.0,77.56529001440353,0,60,3.0,7,0.0015362356330242352
8.71,0.0,77.55277517749663,0,60,3.0,7,0.0012417688822735913
8.715,0.0,77.54246978262495,0,60,3.0,7,0.0009992890029399645
8.72,0.0,77.53402497156353,0,60,3.0,7,0.000800587566200594
8.725,0.0,77.52713831636724,0,60,3.0,7,0.0006385486204057062
8.73,0.0,77.5215494121934,0,60,3.0,7,0.0005070449927857493
8.735,0.0,77.51703551836333,0,60,3.0,7,0.0004008357261959779
8.74,0.0,77.51340734160578,0,60,3.0,7,0.00031546686131257636
