Time,ECG,Pressure,R_Peaks,mean_hr,hrv_scale,Phase_Bin,Normalized_Pressure
0.0,0.001684486749771458,77.5,0,60,3.0,0,0.0
0.005,0.003097557930867117,77.5,0,60,3.0,0,0.0
0.01,0.005475106668887023,77.5,0,60,3.0,0,0.0
0.015,0.00930222931468658,77.5,0,60,3.0,0,0.0
0.02,0.01519157517868857,77.5,0,60,3.0,0,0.0
0.025,0.023847336626128316,77.5,0,60,3.0,0,0.0
0.03,0.0359830743700859,77.5,0,60,3.0,0,0.0
0.035,0.05218887796857759,77.5,0,60,3.0,0,0.0
0.04,0.0727577001223134,77.5,0,60,3.0,0,0.0
0.045,0.0974992498694751,77.5,0,60,3.0,0,0.0
0.05,0.12558706050443358,77.5,0,60,3.0,0,0.0
0.055,0.15549263588878245,77.5,0,60,3.0,0,0.0
0.06,0.1850529723539114,77.5,0,60,3.0,0,0.0
0.065,0.21169159439317053,77.5,0,60,3.0,0,0.0
0.07,0.23277292922115492,77.5,0,60,3.0,0,0.0
0.075,0.24602692519491282,77.5,0,60,3.0,0,0.0
0.08,0.24995056064839283,77.5,0,60,3.0,0,0.0
0.085,0.24408826520424054,77.5,0,60,3.0,0,0.0
0.09,0.22911894216865275,77.5,0,60,3.0,0,0.0
0.095,0.20672661788705934,77.5,0,60,3.0,0,0.0
0.1,0.17928878030241233,77.5,0,60,3.0,0,0.0
0.105,0.14946211903866036,77.5,0,60,3.0,0,0.0
0.11,0.1197651512573837,77.5,0,60,3.0,0,0.0
0.115,0.09224675744988023,77.5,0,60,3.0,0,0.0
0.12,0.06829565320281596,77.5,0,60,3.0,0,0.0
0.125,0.04860224607515734,77.5,0,60,3.0,0,0.0
0.13,0.03324612389699793,77.5,0,60,3.0,0,0.0
0.135,0.021859876340472782,77.5,0,60,3.0,0,0.0
0.14,0.01381595518554205,77.5,0,60,3.0,0,0.0
0.145,0.008394095110402422,77.5,0,60,3.0,0,0.0
0.15,0.0049052535271608,77.5,0,60,3.0,0,0.0
0.155,0.0027671663551903634,77.5,0,60,3.0,0,0.0
0.16,0.0015425553464444616,77.5,0,60,3.0,0,0.0
0.165,0.0009638206637011801,77.5,0,60,3.0,0,0.0
0.17,0.0009804935156568228,77.5,0,60,3.0,0,0.0
0.175,0.0018793744894085216,77.5,0,60,3.0,0,0.0
0.18,0.004535525206900863,77.5,0,60,3.0,0,0.0
0.185,0.010832767979632273,77.5,0,60,3.0,0,0.0
0.19,0.024208003392322392,77.5,0,60,3.0,0,0.0
0.195,0.0500971897335304,77.5,0,60,3.0,0,0.0
0.2,0.09582894921774403,77.5,0,60,3.0,0,0.0
0.205,0.16937896721820658,77.5,0,60,3.0,0,0.0
0.21,0.27661303008991756,77.5,0,60,3.0,0,0.0
0.215,0.4173782800009149,77.5,0,60,3.0,0,0.0
0.22,0.5818720934538056,77.5,0,60,3.0,0,0.0
0.225,0.7494718801585675,77.5,0,60,3.0,0,0.0
0.23,0.891813020752378,77.5,0,60,3.0,0,0.0
0.235,0.9800361632936612,77.5,0,60,3.0,0,0.0
0.24,0.993574479225126,77.5,0,60,3.0,0,0.0
0.245,0.9263438449375362,77.5,0,60,3.0,0,0.0
0.25,0.7873015962290536,77.5,0,60,3.0,0,0.0
0.255,0.5959516244629897,77.5,0,60,3.0,0,0.0
0.26,0.376910120078773,77.5,0,60,3.0,0,0.0
0.265,0.15739335672107918,77.5,0,60,3.0,0,0.0
0.27,-0.033361226269301235,77.5,0,60,3.0,0,0.0
0.275,-0.1680180840843834,77.5,0,60,3.0,0,0.0
0.28,-0.23069703190837854,77.5,0,60,3.0,0,0.0
0.285,-0.22587267821131068,77.5,0,60,3.0,0,0.0
0.29,-0.17718181630665902,77.5,0,60,3.0,0,0.0
0.295,-0.11494332516451301,77.5,0,60,3.0,0,0.0
0.3,-0.061810214049552864,77.5,0,60,3.0,0,0.0
0.305,-0.026546104631500547,77.5,0,60,3.0,0,0.0
0.31,-0.00719600351942686,77.5,0,60,3.0,0,0.0
0.315,0.0022072757983807078,77.5,0,60,3.0,0,0.0
0.32,0.006917199873730717,77.5,0,60,3.0,0,0.0
0.325,0.01004859748264829,77.5,0,60,3.0,0,0.0
0.33,0.013037082251128167,77.5,0,60,3.0,0,0.0
0.335,0.01645163937690478,77.5,0,60,3.0,0,0.0
0.34,0.020526639934696615,77.5,0,60,3.0,0,0.0
0.345,0.02539629541761738,77.5,0,60,3.0,0,0.0
0.35,0.031171612185577933,77.5,0,60,3.0,0,0.0
0.355,0.03795853426638131,77.5,0,60,3.0,0,0.0
0.36,0.0458588961882057,77.5,0,60,3.0,0,0.0
0.365,0.054966995891435555,77.5,0,60,3.0,0,0.0
0.37,0.06536491004445595,77.5,0,60,3.0,0,0.0
0.375,0.07711726085088699,77.5,0,60,3.0,0,0.0
0.38,0.09026570629555215,77.5,0,60,3.0,0,0.0
0.385,0.10482339848670268,77.5,0,60,3.0,0,0.0
0.39,0.12076968927580028,77.5,0,60,3.0,0,0.0
0.395,0.13804539501007884,77.5,0,60,3.0,0,0.0
0.4,0.15654895051787066,77.5,0,60,3.0,0,0.0
0.405,0.17613378141900526,77.5,0,60,3.0,0,0.0
0.41,0.19660720058055794,77.5,0,60,3.0,0,0.0
0.415,0.21773108748496234,77.5,0,60,3.0,0,0.0
0.42,0.23922453870058807,77.5,0,60,3.0,0,0.0
0.425,0.2607685857914563,77.5,0,60,3.0,0,0.0
0.43,0.2820129681603682,77.5,0,60,3.0,0,0.0
0.435,0.30258482867153996,77.5,0,60,3.0,0,0.0
0.44,0.3220990771751686,77.5,0,60,3.0,0,0.0
0.445,0.3401700499968971,77.5,0,60,3.0,0,0.0
0.45,0.3564239911198326,77.5,0,60,3.0,0,0.0
0.455,0.3705118017738417,77.5,0,60,3.0,0,0.0
0.46,0.3821214567925213,77.5,0,60,3.0,0,0.0
0.465,0.39098947374066967,77.5,0,60,3.0,0,0.0
0.47,0.3969108472035567,77.5,0,60,3.0,0,0.0
0.475,0.3997469255491936,77.5,0,60,3.0,0,0.0
0.48,0.3994308076379137,77.5,0,60,3.0,0,0.0
0.485,0.3959699661768434,77.5,0,60,3.0,0,0.0
0.49,0.38944595408114946,77.5,0,60,3.0,0,0.0
0.495,0.38001120995358023,77.5,0,60,3.0,0,0.0
0.5,0.3678831374098315,77.5,0,60,3.0,0,0.0
0.505,0.35333577933796634,77.5,0,60,3.0,0,0.0
0.51,0.33668953221163944,77.5,0,60,3.0,0,0.0
0.515,0.3182994390982644,77.5,0,60,3.0,0,0.0
0.52,0.29854265738230645,77.5,0,60,3.0,0,0.0
0.525,0.2778057157821067,77.5,0,60,3.0,0,0.0
0.53,0.2564721553719815,77.5,0,60,3.0,0,0.0
0.535,0.23491109433464996,77.5,0,60,3.0,0,0.0
0.54,0.21346717185309805,77.5,0,60,3.0,0,0.0
0.545,0.19245222055656455,77.5,0,60,3.0,0,0.0
0.55,0.17213889801761392,77.5,0,60,3.0,0,0.0
0.555,0.15275638501270183,77.5,0,60,3.0,0,0.0
0.56,0.13448814019607322,77.5,0,60,3.0,0,0.0
0.565,0.11747159495449566,77.5,0,60,3.0,0,0.0
0.57,0.10179958433370105,77.5,0,60,3.0,0,0.0
0.575,0.08752324394101413,77.5,0,60,3.0,0,0.0
0.58,0.07465606047174059,77.5,0,60,3.0,0,0.0
0.585,0.0631787448609295,77.5,0,60,3.0,0,0.0
0.59,0.05304460019959574,77.5,0,60,3.0,0,0.0
0.595,0.044185078305849994,77.5,0,60,3.0,0,0.0
0.6,0.03651525513023255,77.5,0,60,3.0,0,0.0
0.605,0.0299390014708757,77.5,0,60,3.0,0,0.0
0.61,0.024353677220580638,77.5,0,60,3.0,0,0.0
0.615,0.01965423034339045,77.5,0,60,3.0,0,0.0
0.62,0.015736632374757337,77.5,0,60,3.0,0,0.0
0.625,0.012500627640593535,77.5,0,60,3.0,0,0.0
0.63,0.009851811652115898,77.5,0,60,3.0,0,0.0
0.635,0.007703084175428559,77.5,0,60,3.0,0,0.0
0.64,0.005975544002062424,77.5,0,60,3.0,0,0.0
0.645,0.004598905818663047,77.5,0,60,3.0,0,0.0
0.65,0.0035115256454839104,77.5,0,60,3.0,0,0.0
0.655,0.002660121266303676,77.5,0,60,3.0,0,0.0
0.66,0.0019992692560877024,77.5,0,60,3.0,0,0.0
0.665,0.0014907520044639367,77.5,0,60,3.0,0,0.0
0.67,0.0011028178277539807,77.5,0,60,3.0,0,0.0
0.675,0.0008094059938923333,77.5,0,60,3.0,0,0.0
0.68,0.0005893771793717645,77.5,0,60,3.0,0,0.0
0.685,0.0004257792353490551,77.5,0,60,3.0,0,0.0
0.69,0.0003051686392901525,77.5,0,60,3.0,0,0.0
0.695,0.00021699992642659966,77.5,0,60,3.0,0,0.0
0.7,0.00015308884054097838,77.5,0,60,3.0,0,0.0
0.705,0.00010714989329311098,77.5,0,60,3.0,0,0.0
0.71,7.440535854020571e-05,77.5,0,60,3.0,0,0.0
0.715,5.1260276743925106e-05,77.5,0,60,3.0,0,0.0
0.72,3.503659887882241e-05,77.5,0,60,3.0,0,0.0
0.725,2.375894748103639e-05,77.5,0,60,3.0,0,0.0
0.73,1.5984413869232557e-05,77.5,0,60,3.0,0,0.0
0.735,1.0669166579899869e-05,77.5,0,60,3.0,0,0.0
0.74,7.06526633560511e-06,77.5,0,60,3.0,0,0.0
0.745,4.641847214699205e-06,77.5,0,60,3.0,0,0.0
0.75,3.025641074479182e-06,77.5,0,60,3.0,0,0.0
0.755,1.9566278676921314e-06,77.5,0,60,3.0,0,0.0
0.76,1.2553456560008793e-06,77.5,0,60,3.0,0,0.0
0.765,7.990660428214668e-07,77.5,0,60,3.0,0,0.0
0.77,5.046221251618276e-07,77.5,0,60,3.0,0,0.0
0.775,3.1616527078858815e-07,77.5,0,60,3.0,0,0.0
0.78,1.9652884407760343e-07,77.5,0,60,3.0,0,0.0
0.785,1.2120002189836396e-07,77.5,0,60,3.0,0,0.0
0.79,7.415549848886236e-08,77.5,0,60,3.0,0,0.0
0.795,4.501406988770349e-08,77.5,0,60,3.0,0,0.0
0.8,0.0,77.5,0,60,3.0,0,0.0
0.805,0.0,77.5,0,60,3.0,0,0.0
0.81,0.0,77.5,0,60,3.0,0,0.0
0.815,0.0,77.5,0,60,3.0,0,0.0
0.82,0.0,77.5,0,60,3.0,0,0.0
0.825,0.0,77.5,0,60,3.0,0,0.0
0.83,0.0,77.5,0,60,3.0,0,0.0
0.835,0.0,77.5,0,60,3.0,0,0.0
0.84,0.0,77.5,0,60,3.0,0,0.0
0.845,0.0,77.5,0,60,3.0,0,0.0
0.85,0.0,77.5,0,60,3.0,0,0.0
0.855,0.0,77.5,0,60,3.0,0,0.0
0.86,0.0,77.5,0,60,3.0,0,0.0
0.865,0.0,77.5,0,60,3.0,0,0.0
0.87,0.0,77.5,0,60,3.0,0,0.0
0.875,0.0,77.5,0,60,3.0,0,0.0
0.88,0.0,77.5,0,60,3.0,0,0.0
0.885,0.0,77.5,0,60,3.0,0,0.0
0.89,0.0,77.5,0,60,3.0,0,0.0
0.895,0.0,77.5,0,60,3.0,0,0.0
0.9,0.0,77.5,0,60,3.0,0,0.0
0.905,0.0,77.5,0,60,3.0,0,0.0
0.91,0.0,77.5,0,60,3.0,0,0.0
0.915,0.0,77.5,0,60,3.0,0,0.0
0.92,0.0,77.5,0,60,3.0,0,0.0
0.925,0.0,77.5,0,60,3.0,0,0.0
0.93,0.0,77.5,0,60,3.0,0,0.0
0.935,0.0,77.5,0,60,3.0,0,0.0
0.94,0.0,77.5,0,60,3.0,0,0.0
0.945,0.001684486749771458,77.5,0,60,3.0,0,0.0
0.95,0.003097557930867117,77.5,0,60,3.0,0,0.0
0.955,0.005475106668887023,77.5,0,60,3.0,0,0.0
0.96,0.00930222931468658,77.5,0,60,3.0,0,0.0
0.965,0.01519157517868857,77.5,0,60,3.0,0,0.0
0.97,0.023847336626128316,77.5,0,60,3.0,0,0.0
0.975,0.0359830743700859,77.5,0,60,3.0,0,0.0
0.98,0.05218887796857759,77.5,0,60,3.0,0,0.0
0.985,0.0727577001223134,77.5,0,60,3.0,0,0.0
0.99,0.0974992498694751,77.5,0,60,3.0,0,0.0
0.995,0.12558706050443358,77.5,0,60,3.0,0,0.0
1.0,0.15549263588878245,77.5,0,60,3.0,0,0.0
1.005,0.1850529723539114,77.5,0,60,3.0,0,0.0
1.01,0.21169159439317053,77.5,0,60,3.0,0,0.0
1.015,0.23277292922115492,77.5,0,60,3.0,0,0.0
1.02,0.24602692519491282,77.5,0,60,3.0,0,0.0
1.025,0.24995056064839283,77.5,0,60,3.0,0,0.0
1.03,0.24408826520424054,77.5,0,60,3.0,0,0.0
1.035,0.22911894216865275,77.5,0,60,3.0,0,0.0
1.04,0.20672661788705934,77.5,0,60,3.0,0,0.0
1.045,0.17928878030241233,77.5,0,60,3.0,0,0.0
1.05,0.14946211903866036,77.5,0,60,3.0,0,0.0
1.055,0.1197651512573837,77.5,0,60,3.0,0,0.0
1.06,0.09224675744988023,77.5,0,60,3.0,0,0.0
1.065,0.06829565320281596,77.5,0,60,3.0,0,0.0
1.07,0.04860224607515734,77.5,0,60,3.0,0,0.0
1.075,0.03324612389699793,77.5,0,60,3.0,0,0.0
1.08,0.021859876340472782,77.5,0,60,3.0,0,0.0
1.085,0.01381595518554205,77.5,0,60,3.0,0,0.0
1.09,0.008394095110402422,77.5,0,60,3.0,0,0.0
1.095,0.0049052535271608,77.5,0,60,3.0,0,0.0
1.1,0.0027671663551903634,77.5,0,60,3.0,0,0.0
1.105,0.0015425553464444616,77.5,0,60,3.0,0,0.0
1.11,0.0009638206637011801,77.5,0,60,3.0,0,0.0
1.115,0.0009804935156568228,77.5,0,60,3.0,0,0.0
1.12,0.0018793744894085216,77.5,0,60,3.0,0,0.0
1.125,0.004535525206900863,77.5,0,60,3.0,0,0.0
1.13,0.010832767979632273,77.5,0,60,3.0,0,0.0
1.135,0.024208003392322392,77.5,0,60,3.0,0,0.0
1.14,0.0500971897335304,77.5,0,60,3.0,0,0.0
1.145,0.09582894921774403,77.5,0,60,3.0,0,0.0
1.15,0.16937896721820658,77.5,0,60,3.0,0,0.0
1.155,0.27661303008991756,77.5,0,60,3.0,0,0.0
1.16,0.4173782800009149,77.5,0,60,3.0,0,0.0
1.165,0.5818720934538056,77.5,0,60,3.0,0,0.0
1.17,0.7494718801585675,77.5,0,60,3.0,0,0.0
1.175,0.891813020752378,77.5,0,60,3.0,0,0.0
1.18,0.9800361632936612,77.5,0,60,3.0,0,0.0
1.185,0.993574479225126,77.50000249000622,1,60,3.0,0,5.858838174871754e-08
1.19,0.9263438449375362,77.50000389248275,0,60,3.0,0,9.15878294616799e-08
1.195,0.7873015962290536,77.50000622788357,0,60,3.0,0,1.4653843703961362e-07
1.2,0.5959516244629897,77.50001032445374,0,60,3.0,0,2.429283232927179e-07
1.205,0.376910120078773,77.50001793601348,0,60,3.0,1,4.220238465410041e-07
1.21,0.15739335672107918,77.50003284604738,0,60,3.0,1,7.72848173536498e-07
1.215,-0.033361226269301235,77.50006322959007,0,60,3.0,1,1.4877550604390254e-06
1.22,-0.1680180840843834,77.50012656627284,0,60,3.0,1,2.978029949177011e-06
1.225,-0.23069703190837854,77.50025954907927,0,60,3.0,1,6.10703715939481e-06
1.23,-0.22587267821131068,77.50053742037096,0,60,3.0,1,1.26451851990757e-05
1.235,-0.17718181630665902,77.50111041975664,0,60,3.0,1,2.6127523685705883e-05
1.24,-0.11494332516451301,77.50227004615842,0,60,3.0,1,5.341285078623728e-05
1.245,-0.061810214049552864,77.50456505519409,0,60,3.0,1,0.00010741306339040795
1.25,-0.026546104631500547,77.50899663500942,0,60,3.0,1,0.00021168552963351484
1.255,-0.00719600351942686,77.51733334782944,0,60,3.0,1,0.00040784347833965404
1.26,0.0022072757983807078,77.53259711175801,0,60,3.0,1,0.0007669908648943099
1.265,0.006917199873730717,77.5597775885197,0,60,3.0,1,0.0014065314945810314
1.27,0.01004859748264829,77.60682720154375,0,60,3.0,1,0.002513581212794152
1.275,0.013037082251128167,77.68596373563713,0,60,3.0,1,0.0043756173091089616
1.28,0.01645163937690478,77.81525235617987,0,60,3.0,1,0.007417702498349854
1.285,0.020526639934696615,78.02034654369058,0,60,3.0,1,0.012243448086837147
1.29,0.02539629541761738,78.33613763083831,0,60,3.0,1,0.0196738266079602
1.295,0.031171612185577933,78.80790801230718,0,60,3.0,1,0.030774306171933656
1.3,0.03795853426638131,79.49143402196233,0,60,3.0,1,0.046857271104996094
1.305,0.0458588961882057,80.45138998325675,0,60,3.0,1,0.06944447019427638
1.31,0.054966995891435555,81.75742693681694,0,60,3.0,1,0.10017475145451626
1.315,0.06536491004445595,83.47749814853324,0,60,3.0,1,0.1406470152596057
1.32,0.07711726085088699,85.66841448846296,0,60,3.0,1,0.1921979879638343
1.325,0.09026570629555215,88.36422212653916,0,60,3.0,1,0.2556287559185685
1.33,0.10482339848670268,91.56371947194285,0,60,3.0,1,0.3309110463986552
1.335,0.12076968927580028,95.21911490992028,0,60,3.0,1,0.41692035082165363
1.34,0.13804539501007884,99.22826790633349,0,60,3.0,1,0.5112533625019644
1.345,0.15654895051787066,103.43295067098154,0,60,3.0,1,0.6101870746113304
1.35,0.17613378141900526,107.62498105812116,0,60,3.0,1,0.708823083720498
1.355,0.19660720058055794,111.56090743751355,0,60,3.0,1,0.8014331161767894
1.36,0.21773108748496234,114.9843394518642,0,60,3.0,1,0.8819844576909224
1.365,0.23922453870058807,117.65333760501063,0,60,3.0,1,0.9447844142355444
1.37,0.2607685857914563,119.36890970084326,0,60,3.0,1,0.9851508164904297
1.375,0.2820129681603682,120.0,0,60,3.0,1,1.0
1.38,0.30258482867153996,119.5006402542718,0,60,3.0,1,0.9882503589240423
1.385,0.3220990771751686,117.91617040818592,0,60,3.0,1,0.9509687154867276
1.39,0.3401700499968971,115.37738557396011,0,60,3.0,1,0.8912326017402379
1.395,0.3564239911198326,112.08368211089038,0,60,3.0,1,0.8137336967268325
1.4,0.3705118017738417,108.27824070530876,0,60,3.0,1,0.7241938989484414
1.405,0.3821214567925213,104.21955090304075,0,60,3.0,1,0.6286953153656648
1.41,0.39098947374066967,100.15389681309367,0,60,3.0,1,0.5330328661904392
1.415,0.3969108472035567,96.29278932965357,0,60,3.0,1,0.44218327834478993
1.42,0.3997469255491936,92.79798252281299,0,60,3.0,1,0.3599525299485409
1.425,0.3994308076379137,89.77503474095302,0,60,3.0,1,0.2888243468459534
1.43,0.3959699661768434,87.27477976068862,0,60,3.0,1,0.2299948178985557
1.435,0.38944595408114946,85.30088686693217,0,60,3.0,1,0.1835502792219335
1.44,0.38001120995358023,83.82108308582723,0,60,3.0,1,0.14873136672534648
1.445,0.3678831374098315,82.77958866801355,0,60,3.0,1,0.12422561571796577
1.45,0.35333577933796634,82.1087468967927,0,60,3.0,1,0.10844110345394577
1.455,0.33668953221163944,81.7385096637752,0,60,3.0,1,0.09972963914765186
1.46,0.3182994390982644,81.60316637149273,0,60,3.0,1,0.09654509109394667
1.465,0.29854265738230645,81.64531852817903,0,60,3.0,1,0.097536906545389
1.47,0.2778057157821067,81.81752026347644,0,60,3.0,1,0.10158871208179857
1.475,0.2564721553719815,82.08220991158747,0,60,3.0,1,0.1078167038020581
1.48,0.23491109433464996,82.41058435809306,0,60,3.0,1,0.11554316136689555
1.485,0.21346717185309805,82.78097574839373,0,60,3.0,1,0.12425825290338186
1.49,0.19245222055656455,83.17714153356428,0,60,3.0,1,0.1335798007897478
1.495,0.17213889801761392,83.58672328897565,0,60,3.0,1,0.14321701856413288
1.5,0.15275638501270183,83.99999826166315,0,60,3.0,1,0.15294113556854474
1.505,0.13448814019607322,84.40895337124233,0,60,3.0,1,0.16256360873511372
1.51,0.11747159495449566,84.80665451989769,0,60,3.0,1,0.17192128282112215
1.515,0.10179958433370105,85.1868573489393,0,60,3.0,1,0.1808672317397482
1.52,0.08752324394101413,85.54379935372675,0,60,3.0,1,0.18926586714651186
1.525,0.07465606047174059,85.87211861230374,0,60,3.0,1,0.19699102617185263
1.53,0.0631787448609295,86.16685460853626,0,60,3.0,1,0.20392599078908835
1.535,0.05304460019959574,86.42349754884363,0,60,3.0,1,0.20996464820808536
1.54,0.044185078305849994,86.63806206698814,0,60,3.0,1,0.2150132251056033
1.545,0.03651525513023255,86.80716857960022,0,60,3.0,1,0.21899220187294624
1.55,0.0299390014708757,86.92812088388769,0,60,3.0,1,0.22183813844441616
1.555,0.024353677220580638,86.99897230219709,0,60,3.0,1,0.2235052306399315
1.56,0.01965423034339045,87.0185752592566,0,60,3.0,1,0.22396647668839043
1.565,0.015736632374757337,86.98661103599359,0,60,3.0,1,0.22321437731749624
1.57,0.012500627640593535,86.90359787095856,0,60,3.0,1,0.2212611263754956
1.575,0.009851811652115898,86.77087675820192,0,60,3.0,1,0.21813827666357463
1.58,0.007703084175428559,86.59057531515485,0,60,3.0,1,0.21389588976834945
1.585,0.005975544002062424,86.36555100430262,0,60,3.0,1,0.20860120010123803
1.59,0.004598905818663047,86.0993157926329,0,60,3.0,1,0.2023368421795975
1.595,0.0035115256454839104,85.79594501028039,0,60,3.0,1,0.1951987061242445
1.6,0.002660121266303676,85.45997370609123,0,60,3.0,1,0.18729349896685255
1.605,0.0019992692560877024,85.0962841761263,0,60,3.0,1,0.17873609826179537
1.61,0.0014907520044639367,84.70998855024048,0,60,3.0,1,0.1696467894174231
1.615,0.0011028178277539807,84.3063103584825,0,60,3.0,1,0.1601484790231178
1.62,0.0008094059938923333,83.89046886840002,0,60,3.0,1,0.15036397337411814
1.625,0.0005893771793717645,83.4675696999641,0,60,3.0,1,0.1404134047050377
1.63,0.0004257792353490551,83.04250480764743,0,60,3.0,1,0.13041187782699842
1.635,0.0003051686392901525,82.61986439594673,0,60,3.0,1,0.12046739755168788
1.64,0.00021699992642659966,82.203862736115,0,60,3.0,1,0.11067912320270586
1.645,0.00015308884054097838,81.79827921088489,0,60,3.0,1,0.10113598143258554
1.65,0.00010714989329311098,81.4064152633843,0,60,3.0,1,0.09191565325610127
1.655,7.440535854020571e-05,81.0310672972994,0,60,3.0,1,0.08308393640704474
1.66,5.1260276743925106e-05,80.67451499519211,0,60,3.0,1,0.07469447047510852
1.665,3.503659887882241e-05,80.338524013543,0,60,3.0,1,0.06678880031865868
1.67,2.375894748103639e-05,80.02436159372127,0,60,3.0,1,0.059396743381676866
1.675,1.5984413869232557e-05,79.73282330872932,0,60,3.0,1,0.05253701902892524
1.68,1.0669166579899869e-05,79.4642689510973,0,60,3.0,1,0.046218092966995195
1.685,7.06526633560511e-06,79.21866545674996,0,60,3.0,1,0.040439187217646125
1.69,4.641847214699205e-06,78.99563474688391,0,60,3.0,1,0.03519140580903314
1.695,3.025641074479182e-06,78.79450444444629,0,60,3.0,1,0.030458928104618574
1.7,1.9566278676921314e-06,78.61435957004821,0,60,3.0,1,0.026220225177604896
1.705,1.2553456560008793e-06,78.45409352834312,0,60,3.0,1,0.02244925949042641
1.71,7.990660428214668e-07,78.31245694336336,0,60,3.0,1,0.01911663396149078
1.715,5.046221251618276e-07,78.18810317343045,0,60,3.0,1,0.01619066290424585
1.72,3.1616527078858815e-07,78.07962961742325,0,60,3.0,1,0.01363834393937061
1.725,1.9652884407760343e-07,77.98561420049717,0,60,3.0,1,0.01142621648228629
1.73,1.2120002189836396e-07,77.90464668712917,0,60,3.0,1,0.009521098520686418
1.735,7.415549848886236e-08,77.83535470349312,0,60,3.0,1,0.007890698905720563
1.74,4.501406988770349e-08,77.77642455318359,0,60,3.0,1,0.006504107133731489
1.745,0.0,77.72661707634573,0,60,3.0,1,0.005332166502252529
1.75,0.0,77.68477893086524,0,60,3.0,1,0.00434773954977024
1.755,0.0,77.6498497660474,0,60,3.0,1,0.0035258768481740204
1.76,0.0,77.62086581648374,0,60,3.0,1,0.002843901564323366
1.765,0.0,77.59696047016833,0,60,3.0,1,0.0022814228274900387
1.77,0.0,77.57736236484402,0,60,3.0,1,0.0018202909375063694
1.775,0.0,77.56139154495807,0,60,3.0,1,0.001444506940189887
1.78,0.0,77.54845417352878,0,60,3.0,1,0.0011400982006772237
1.785,0.0,77.53803624353917,0,60,3.0,1,0.0008949704362157049
1.79,0.0,77.52969667664992,0,60,3.0,1,0.0006987453329392846
1.795,0.0,77.52306013697444,0,60,3.0,1,0.000542591458222031
1.8,0.0,77.51780982764838,0,60,3.0,1,0.00041905476819712985
1.805,0.0,77.51368048053044,0,60,3.0,1,0.0003218936595397495
1.81,0.0,77.51045169649136,0,60,3.0,1,0.00024592227038490764
1.815,0.0,77.5079417466527,0,60,3.0,1,0.00018686462712246474
1.82,0.0,77.50600190434021,0,60,3.0,1,0.00014122127859316017
1.825,0.0,77.50451134365947,0,60,3.0,1,0.0001061492625758413
1.83,0.0,77.50337261335471,0,60,3.0,1,7.93556083461975e-05
1.835,0.0,77.50250767355982,0,60,3.0,1,5.9004083760448657e-05
1.84,0.0,77.50185446759158,0,60,3.0,1,4.363453156670135e-05
1.845,0.0,77.50136399034713,0,60,3.0,1,3.209389052070786e-05
1.85,0.0,77.50099780838069,0,60,3.0,1,2.347784425149471e-05
1.855,0.0,77.5007259835821,0,60,3.0,1,1.708196663765407e-05
1.86,0.0,77.50052535183445,0,60,3.0,1,1.2361219634225135e-05
1.865,0.0,77.50037810942973,0,60,3.0,1,8.896692464291204e-06
1.87,0.0,77.50027066279699,0,60,3.0,1,6.368536399831475e-06
1.875,0.0,77.50019270075849,0,60,3.0,1,4.53413549387412e-06
1.88,0.0,77.50013645268456,0,60,3.0,1,3.2106514013588928e-06
1.885,0.0,77.50009610025637,0,60,3.0,1,2.2611825028541394e-06
1.89,0.0,77.50006731483874,0,60,3.0,1,1.5838785587033378e-06
1.895,0.0,77.50004689654789,0,60,3.0,1,1.103448185551101e-06
1.9,0.0,77.50003249486535,0,60,3.0,1,7.645850670916629e-07
1.905,0.0,77.50002239403797,0,60,3.0,1,5.269185404652971e-07
1.91,0.001684486749771458,77.50001534948753,0,60,3.0,1,3.6116441238471665e-07
1.915,0.003097557930867117,77.50001046403425,0,60,3.0,1,2.4621257051983453e-07
1.92,0.005475106668887023,77.5000070949318,0,60,3.0,1,1.6693957183419758e-07
1.925,0.00930222931468658,77.50000478455003,0,60,3.0,1,1.125776477425354e-07
1.93,0.01519157517868857,77.50000320905956,0,60,3.0,1,7.550728368829262e-08
1.935,0.023847336626128316,77.50000214071206,0,60,3.0,1,5.036969542636464e-08
1.94,0.0359830743700859,77.50000142030801,0,60,3.0,1,3.3419011996931445e-08
1.945,0.05218887796857759,77.50000093723958,0,60,3.0,1,2.2052695920351922e-08
1.95,0.0727577001223134,77.50000061512375,0,60,3.0,1,1.447350006642142e-08
1.955,0.0974992498694751,77.50000040153017,0,60,3.0,1,9.447768768629483e-09
1.96,0.12558706050443358,77.50000026068598,0,60,3.0,1,6.133787752225865e-09
1.965,0.15549263588878245,77.50000016832978,0,60,3.0,1,3.960700630212908e-09
1.97,0.1850529723539114,77.50000010810557,0,60,3.0,1,2.5436604038772846e-09
1.975,0.21169159439317053,77.50000006905242,0,60,3.0,1,1.6247627975056221e-09
1.98,0.23277292922115492,77.50000004386858,0,60,3.0,1,1.0322019213216502e-09
1.985,0.24602692519491282,77.50000002771866,0,60,3.0,1,6.522036662371487e-10
1.99,0.24995056064839283,77.50000001741945,0,60,3.0,1,4.098694716958562e-10
1.995,0.24408826520424054,77.5000000108878,0,60,3.0,1,2.5618359198715016e-10
2.0,0.22911894216865275,77.50000000676847,0,60,3.0,1,1.592582066223258e-10
2.005,0.20672661788705934,77.50000000418488,0,60,3.0,1,9.846784825426499e-11
2.01,0.17928878030241233,77.50000000257349,0,60,3.0,1,6.05526191280018e-11
2.015,0.14946211903866036,77.500000001574,0,60,3.0,1,3.703515925307703e-11
2.02,0.1197651512573837,77.50000000095747,0,60,3.0,1,2.2528718759798827e-11
2.025,0.09224675744988023,77.50000000057929,0,60,3.0,1,1.3630383096717517e-11
2.03,0.06829565320281596,77.50000000034858,0,60,3.0,1,8.201836595510351e-12
2.035,0.04860224607515734,77.50000000020863,0,60,3.0,1,4.908930778208956e-12
2.04,0.03324612389699793,77.50000000012419,0,60,3.0,1,2.9220861024976544e-12
2.045,0.021859876340472782,77.50000000007353,0,60,3.0,1,1.730046171681298e-12
2.05,0.01381595518554205,77.50000000004329,0,60,3.0,1,1.0185003167648307e-12
2.055,0.008394095110402422,77.50000000002535,0,60,3.0,1,5.965215249863618e-13
2.06,0.0049052535271608,77.50000000001477,0,60,3.0,1,3.4741360115517367e-13
2.065,0.0027671663551903634,77.50000000000855,0,60,3.0,1,2.0129257737768484e-13
2.07,0.0015425553464444616,77.50000000000493,0,60,3.0,1,1.1602744908647282e-13
2.075,0.0009638206637011801,77.50000000000283,0,60,3.0,1,6.654023737235762e-14
2.08,0.0009804935156568228,77.5000000000016,0,60,3.0,1,3.778415488983121e-14
2.085,0.0018793744894085216,77.50000000000091,0,60,3.0,1,2.1399875335833605e-14
2.09,0.004535525206900863,77.50000000000051,0,60,3.0,1,1.2037429876406403e-14
2.095,0.010832767979632273,77.50000000000028,0,60,3.0,1,6.687461042448002e-15
2.1,0.024208003392322392,77.50000000000016,0,60,3.0,1,3.678103573346401e-15
2.105,0.0500971897335304,77.50000000000009,0,60,3.0,1,2.0062383127344005e-15
2.11,0.09582894921774403,77.50000000000004,0,60,3.0,1,1.0031191563672002e-15
2.115,0.16937896721820658,77.50000000000003,0,60,3.0,1,6.687461042448002e-16
2.12,0.27661303008991756,77.50000000000001,0,60,3.0,1,3.343730521224001e-16
2.125,0.4173782800009149,77.50000000000001,0,60,3.0,1,3.343730521224001e-16
2.13,0.5818720934538056,77.5,0,60,3.0,1,0.0
2.135,0.7494718801585675,77.5,0,60,3.0,1,0.0
2.14,0.891813020752378,77.5,0,60,3.0,1,0.0
2.145,0.9800361632936612,77.5,0,60,3.0,1,0.0
2.15,0.993574479225126,77.5000024950473,1,60,3.0,1,5.8706995238989134e-08
2.155,0.9263438449375362,77.50000375849318,0,60,3.0,1,8.843513362134057e-08
2.16,0.7873015962290536,77.50000576910975,0,60,3.0,1,1.3574375877985458e-07
2.165,0.5959516244629897,77.50000910888895,0,60,3.0,1,2.1432679873482008e-07
2.17,0.376910120078773,77.50001493160252,0,60,3.0,1,3.5133182403596413e-07
2.175,0.15739335672107918,77.5000255695211,0,60,3.0,1,6.016357905777755e-07
2.18,-0.033361226269301235,77.50004576207117,0,60,3.0,1,1.076754615697235e-06
2.185,-0.1680180840843834,77.50008508819586,0,60,3.0,1,2.002075196702101e-06
2.19,-0.23069703190837854,77.50016266149757,0,60,3.0,1,3.827329354568492e-06
2.195,-0.22587267821131068,77.50031595083036,0,60,3.0,1,7.434137184833055e-06
2.2,-0.17718181630665902,77.50061688523299,0,60,3.0,1,1.4514946658503986e-05
2.205,-0.11494332516451301,77.50120039677721,0,60,3.0,1,2.824463005193887e-05
2.21,-0.061810214049552864,77.50231346534846,0,60,3.0,1,5.443447878740378e-05
2.215,-0.026546104631500547,77.50439671869992,0,60,3.0,1,0.00010345220470405954
2.22,-0.00719600351942686,77.50821569935404,0,60,3.0,1,0.00019331057303622188
2.225,0.0022072757983807078,77.51506467288199,0,60,3.0,1,0.00035446289134095904
2.23,0.006917199873730717,77.52707136715546,0,60,3.0,1,0.0006369733448342926
2.235,0.01004859748264829,77.54763451316305,0,60,3.0,1,0.0011208120744246276
2.24,0.013037082251128167,77.58202471776275,0,60,3.0,1,0.0019299933591235138
2.245,0.01645163937690478,77.63816929854207,0,60,3.0,1,0.0032510423186368717
2.25,0.020526639934696615,77.72761899891924,0,60,3.0,1,0.005355741151040949
2.255,0.02539629541761738,77.86665519753228,0,60,3.0,1,0.008627181118406631
2.26,0.031171612185577933,78.07743861114501,0,60,3.0,1,0.013586790850470888
2.265,0.03795853426638131,78.38902695888922,0,60,3.0,1,0.02091828138562866
2.27,0.0458588961882057,78.83800818984425,0,60,3.0,1,0.03148254564339401
2.275,0.054966995891435555,79.46842379043065,0,60,3.0,1,0.046315853892485846
2.28,0.06536491004445595,80.33061667635269,0,60,3.0,1,0.06660274532594565
2.285,0.07711726085088699,81.478657744938,0,60,3.0,1,0.09361547635148246
2.29,0.09026570629555215,82.96611002699977,0,60,3.0,1,0.12861435357646522
2.295,0.10482339848670268,84.84009485117352,0,60,3.0,1,0.17270811414525924
2.3,0.12076968927580028,87.13392597640826,0,60,3.0,1,0.22668061120960623
2.305,0.13804539501007884,89.85894336803423,0,60,3.0,1,0.2907986674831584
2.31,0.15654895051787066,92.99654686910407,0,60,3.0,1,0.3646246322142133
2.315,0.17613378141900526,96.4917169559891,0,60,3.0,1,0.44686392837621425
2.32,0.19660720058055794,100.24942305018932,0,60,3.0,1,0.5352805423573957
2.325,0.21773108748496234,104.13518312180872,0,60,3.0,1,0.6267101911013817
2.33,0.23922453870058807,107.9806163769576,0,60,3.0,1,0.7171909735754729
2.335,0.2607685857914563,111.59415000783865,0,60,3.0,1,0.8022152943020858
2.34,0.2820129681603682,114.77619649389209,0,60,3.0,1,0.8770869763268726
2.345,0.30258482867153996,117.33726280597426,0,60,3.0,1,0.9373473601405709
2.35,0.3220990771751686,119.11676822855112,0,60,3.0,1,0.9792180759659088
2.355,0.3401700499968971,120.0,0,60,3.0,1,1.0
2.36,0.3564239911198326,119.9307331115752,0,60,3.0,1,0.9983701908605928
2.365,0.3705118017738417,118.9175974986838,0,60,3.0,1,0.9745317058513836
2.37,0.3821214567925213,117.03320410260207,0,60,3.0,1,0.930193037708284
2.375,0.39098947374066967,114.40616519711772,0,60,3.0,1,0.8683803575792404
2.38,0.3969108472035567,111.20724128607212,0,60,3.0,1,0.7931115596722852
2.385,0.3997469255491936,107.63170063411125,0,60,3.0,1,0.708981191390853
2.39,0.3994308076379137,103.88043014450193,0,60,3.0,1,0.6207160034000454
2.395,0.3959699661768434,100.14232342849641,0,60,3.0,1,0.5327605512587391
2.4,0.38944595408114946,96.580032392726,0,60,3.0,1,0.4489419386523764
2.405,0.38001120995358023,93.32042761436257,0,60,3.0,1,0.3722453556320605
2.41,0.3678831374098315,90.45024438360306,0,60,3.0,2,0.3047116325553662
2.415,0.35333577933796634,88.0165735885304,0,60,3.0,2,0.2474487903183625
2.42,0.33668953221163944,86.03123100878861,0,60,3.0,2,0.20073484726561433
2.425,0.3182994390982644,84.47768427158562,0,60,3.0,2,0.1641808063902498
2.43,0.29854265738230645,83.31914425655404,0,60,3.0,2,0.13692104133068328
2.435,0.2778057157821067,82.50659004090923,0,60,3.0,2,0.11780211860962896
2.44,0.2564721553719815,81.98581116195565,0,60,3.0,2,0.10554849792836829
2.445,0.23491109433464996,81.70292592125253,0,60,3.0,2,0.09889237461770656
2.45,0.21346717185309805,81.60818956190883,0,60,3.0,2,0.09666328380961953
2.455,0.19245222055656455,81.65818681746455,0,60,3.0,2,0.09783968982269538
2.46,0.17213889801761392,81.81668455993696,0,60,3.0,2,0.10156904846910493
2.465,0.15275638501270183,82.05450301165449,0,60,3.0,2,0.10716477674481151
2.47,0.13448814019607322,82.34876686016689,0,60,3.0,2,0.11408863200392683
2.475,0.11747159495449566,82.68184745982325,0,60,3.0,2,0.12192582258407636
2.48,0.10179958433370105,83.04023106346655,0,60,3.0,2,0.1303583779639188
2.485,0.08752324394101413,83.41346746591435,0,60,3.0,2,0.1391404109626906
2.49,0.07465606047174059,83.79328285470342,0,60,3.0,2,0.14807724364008049
2.495,0.0631787448609295,84.1728870216122,0,60,3.0,2,0.15700910639087523
2.5,0.05304460019959574,84.5464696298717,0,60,3.0,2,0.16579928540874575
2.505,0.044185078305849994,84.90886059231357,0,60,3.0,2,0.17432613158384877
2.51,0.03651525513023255,85.25532179626946,0,60,3.0,2,0.1824781599122225
2.515,0.0299390014708757,85.58143722891543,0,60,3.0,2,0.1901514642097749
2.52,0.024353677220580638,85.88307248935271,0,60,3.0,2,0.19724876445535797
2.525,0.01965423034339045,86.15638018885323,0,60,3.0,2,0.20367953385537022
2.53,0.015736632374757337,86.39783327928087,0,60,3.0,2,0.20936078304190292
2.535,0.012500627640593535,86.60427312857465,0,60,3.0,2,0.21421819126057992
2.54,0.009851811652115898,86.77296292498974,0,60,3.0,2,0.2181873629409351
2.545,0.007703084175428559,86.90163978459339,0,60,3.0,2,0.22121505375513847
2.55,0.005975544002062424,86.9885609412461,0,60,3.0,2,0.22326025744108485
2.555,0.004598905818663047,87.0325408276639,0,60,3.0,2,0.22429507829797396
2.56,0.0035115256454839104,87.03297689853875,0,60,3.0,2,0.22430533878914702
2.565,0.002660121266303676,86.98986284516437,0,60,3.0,2,0.22329089047445572
2.57,0.0019992692560877024,86.90378850197658,0,60,3.0,2,0.2212656118112136
2.575,0.0014907520044639367,86.77592630638017,0,60,3.0,2,0.21825708956188639
2.58,0.0011028178277539807,86.60800467318072,0,60,3.0,2,0.2143059923101345
2.585,0.0008094059938923333,86.40226909402966,0,60,3.0,2,0.20946515515363912
2.59,0.0005893771793717645,86.1614321695787,0,60,3.0,2,0.2037984039900871
2.595,0.0004257792353490551,85.88861412108902,0,60,3.0,2,0.19737915579032989
2.6,0.0003051686392901525,85.58727560093486,0,60,3.0,2,0.19028883766905552
2.605,0.00021699992642659966,85.26114482043914,0,60,3.0,2,0.18261517224562687
2.61,0.00015308884054097838,84.91414113369896,0,60,3.0,2,0.17445037961644616
2.615,0.00010714989329311098,84.55029725548142,0,60,3.0,2,0.16588934718779824
2.62,7.440535854020571e-05,84.17368225126495,0,60,3.0,2,0.15702781767682233
2.625,5.1260276743925106e-05,83.78832732279227,0,60,3.0,2,0.1479606428892299
2.63,3.503659887882241e-05,83.3981562308963,0,60,3.0,2,0.13878014660932483
2.635,2.375894748103639e-05,83.00692195925262,0,60,3.0,2,0.12957463433535582
2.64,1.5984413869232557e-05,82.6181509404913,0,60,3.0,2,0.12042708095273658
2.645,1.0669166579899869e-05,82.23509585343183,0,60,3.0,2,0.11141402008074892
2.65,7.06526633560511e-06,81.86069767131502,0,60,3.0,2,0.10260465108976526
2.655,4.641847214699205e-06,81.49755730985156,0,60,3.0,2,0.09406017199650725
2.66,3.025641074479182e-06,81.14791690391355,0,60,3.0,2,0.08583333891561304
2.665,1.9566278676921314e-06,80.81365044457142,0,60,3.0,2,0.0779682457546217
2.67,1.2553456560008793e-06,80.49626324385221,0,60,3.0,2,0.07050031162005205
2.675,7.990660428214668e-07,80.19689947078584,0,60,3.0,2,0.06345645813613734
2.68,5.046221251618276e-07,79.91635682432248,0,60,3.0,2,0.056855454689940646
2.685,3.1616527078858815e-07,79.65510727941233,0,60,3.0,2,0.050708406574407866
2.69,1.9652884407760343e-07,79.41332276242515,0,60,3.0,2,0.045019359115885955
2.695,1.2120002189836396e-07,79.19090457947316,0,60,3.0,2,0.03978599010525072
2.7,7.415549848886236e-08,78.98751543252128,0,60,3.0,2,0.035000363118147707
2.705,4.501406988770349e-08,78.80261290834281,0,60,3.0,2,0.030649715490419033
2.71,0.0,78.63548340820051,0,60,3.0,2,0.026717256663541508
2.715,0.0,78.4852755946948,0,60,3.0,2,0.023182955169289365
2.72,0.0,78.35103255931459,0,60,3.0,2,0.020024295513284454
2.725,0.0,78.23172205271597,0,60,3.0,2,0.017216989475669794
2.73,0.0,78.12626426290419,0,60,3.0,2,0.01473562971539262
2.735,0.0,78.03355676823388,0,60,3.0,2,0.012554276899620685
2.74,0.0,77.95249642725605,0,60,3.0,2,0.010646974758965906
2.745,0.0,77.88199809170625,0,60,3.0,2,0.008988190393088256
2.75,0.0,77.82101013916764,0,60,3.0,2,0.007553179745120949
2.755,0.0,77.76852691602545,0,60,3.0,2,0.006318280377069427
2.76,0.0,77.72359825811775,0,60,3.0,2,0.005261135485123452
2.765,0.0,77.68533631573966,0,60,3.0,2,0.004360854487992035
2.77,0.0,77.65291995190405,0,60,3.0,2,0.003598116515389486
2.775,0.0,77.62559700915529,0,60,3.0,2,0.0029552237448302442
2.78,0.0,77.60268475239863,0,60,3.0,2,0.002416111821144247
2.785,0.0,77.58356879509424,0,60,3.0,2,0.00196632459045264
2.79,0.0,77.56770080589084,0,60,3.0,2,0.0015929601386079305
2.795,0.0,77.55459527451477,0,60,3.0,2,0.0012845946944651133
2.8,0.0,77.54382559159987,0,60,3.0,2,0.0010311903905851657
2.805,0.0,77.53501966911314,0,60,3.0,2,0.0008239922144268268
2.81,0.0,77.52785529786952,0,60,3.0,2,0.00065541877340051
2.815,0.0,77.52205540785289,0,60,3.0,2,0.000518950773009157
2.82,0.0,77.51738336692351,0,60,3.0,2,0.00040902039820025495
2.825,0.0,77.51363842497241,0,60,3.0,2,0.00032090411699795473
2.83,0.0,77.51065138439854,0,60,3.0,2,0.00025062080937747103
2.835,0.0,77.50828055441168,0,60,3.0,2,0.00019483657439255854
2.84,0.0,77.5064080263656,0,60,3.0,2,0.00015077709095541702
2.845,0.0,77.50493629018625,0,60,3.0,2,0.00011614800438237313
2.85,0.0,77.50378519791671,0,60,3.0,2,8.906348039324578e-05
2.855,0.0,77.50288926928084,0,60,3.0,2,6.798280660806246e-05
2.86,0.0,77.50219532571992,0,60,3.0,2,5.165472282174853e-05
2.865,0.0,77.50166043327717,0,60,3.0,2,3.9069018286267345e-05
2.87,0.0,77.50125013066801,0,60,3.0,2,2.941483924734498e-05
2.875,0.0,77.50093691654406,0,60,3.0,2,2.204509515442677e-05
2.88,0.0,77.50069896901469,0,60,3.0,2,1.644632975746711e-05
2.885,0.0,77.50051907063157,0,60,3.0,2,1.2213426625147109e-05
2.89,0.0,77.50038371299648,0,60,3.0,2,9.028541093665112e-06
2.895,0.0,77.50028235668749,0,60,3.0,2,6.643686764525281e-06
2.9,0.0,77.50020682411044,0,60,3.0,2,4.866449657302998e-06
2.905,0.0,77.50015080500992,0,60,3.0,2,3.5483531746649534e-06
2.91,0.0,77.50010945658438,0,60,3.0,2,2.575449044303134e-06
2.915,0.0,77.50007908234369,0,60,3.0,2,1.8607610279693344e-06
2.92,0.0,77.50005687595332,0,60,3.0,2,1.3382577251644868e-06
2.925,0.0,77.50004071827436,0,60,3.0,2,9.580770438333276e-07
2.93,0.0,77.5000290176045,0,60,3.0,2,6.827671648031409e-07
2.935,0.0,77.5000205847344,0,60,3.0,2,4.843466917784955e-07
2.94,0.0,77.50001453585212,0,60,3.0,2,3.420200498032286e-07
2.945,0.0,77.50001021756106,0,60,3.0,2,2.4041320129446617e-07
2.95,0.0,77.50000714933266,0,60,3.0,2,1.6821959200248838e-07
2.955,0.0,77.5000049796095,0,60,3.0,2,1.1716728234954216e-07
2.96,0.001684486749771458,77.50000345252305,0,60,3.0,2,8.123583637932503e-08
2.965,0.003097557930867117,77.50000238280994,0,60,3.0,2,5.606611620458031e-08
2.97,0.005475106668887023,77.50000163701907,0,60,3.0,2,3.851809571428663e-08
2.975,0.00930222931468658,77.50000111951415,0,60,3.0,2,2.6341509470405393e-08
2.98,0.01519157517868857,77.50000076210877,0,60,3.0,2,1.7931971034854273e-08
2.985,0.023847336626128316,77.50000051643521,0,60,3.0,2,1.2151416646755773e-08
2.99,0.0359830743700859,77.50000034835837,0,60,3.0,2,8.196667522497591e-09
2.995,0.05218887796857759,77.50000023390967,0,60,3.0,2,5.503757031821057e-09
3.0,0.0727577001223134,77.50000015634414,0,60,3.0,2,3.678685716830146e-09
3.005,0.0974992498694751,77.50000010402233,0,60,3.0,2,2.4475843260648508e-09
3.01,0.12558706050443358,77.50000006889427,0,60,3.0,2,1.621041559808552e-09
3.015,0.15549263588878245,77.5000000454204,0,60,3.0,2,1.0687154586134164e-09
3.02,0.1850529723539114,77.50000002980784,0,60,3.0,2,7.013608517488191e-10
3.025,0.21169159439317053,77.5000000194725,0,60,3.0,2,4.5817634653597934e-10
3.03,0.23277292922115492,77.50000001266264,0,60,3.0,2,2.9794444558587306e-10
3.035,0.24602692519491282,77.50000000819668,0,60,3.0,2,1.9286303273367915e-10
3.04,0.24995056064839283,77.50000000528158,0,60,3.0,2,1.2427241980570696e-10
3.045,0.24408826520424054,77.50000000338767,0,60,3.0,2,7.970985440325047e-11
3.05,0.22911894216865275,77.50000000216296,0,60,3.0,2,5.089325039828991e-11
3.055,0.20672661788705934,77.5000000013747,0,60,3.0,2,3.234591157011249e-11
3.06,0.17928878030241233,77.50000000086972,0,60,3.0,2,2.0463965162943007e-11
3.065,0.14946211903866036,77.50000000054773,0,60,3.0,2,1.2887740547953666e-11
3.07,0.1197651512573837,77.50000000034336,0,60,3.0,2,8.07912168538143e-12
3.075,0.09224675744988023,77.50000000021427,0,60,3.0,2,5.041676879901548e-12
3.08,0.06829565320281596,77.5000000001331,0,60,3.0,2,3.131738006178399e-12
3.085,0.04860224607515734,77.5000000000823,0,60,3.0,2,1.9363543448408188e-12
3.09,0.03324612389699793,77.50000000005066,0,60,3.0,2,1.1920399308163562e-12
3.095,0.021859876340472782,77.50000000003104,0,60,3.0,2,7.302707458353218e-13
3.1,0.01381595518554205,77.50000000001893,0,60,3.0,2,4.453849054270369e-13
3.105,0.008394095110402422,77.5000000000115,0,60,3.0,2,2.7050779916702167e-13
3.11,0.0049052535271608,77.50000000000695,0,60,3.0,2,1.6350842248785364e-13
3.115,0.0027671663551903634,77.50000000000418,0,60,3.0,2,9.830567732398563e-14
3.12,0.0015425553464444616,77.5000000000025,0,60,3.0,2,5.884965717354242e-14
3.125,0.0009638206637011801,77.50000000000149,0,60,3.0,2,3.510917047285201e-14
3.13,0.0009804935156568228,77.50000000000088,0,60,3.0,2,2.0731129231588804e-14
3.135,0.0018793744894085216,77.50000000000053,0,60,3.0,2,1.2371802928528803e-14
3.14,0.004535525206900863,77.50000000000031,0,60,3.0,2,7.356207146692803e-15
3.145,0.010832767979632273,77.50000000000018,0,60,3.0,2,4.3468496775912015e-15
3.15,0.024208003392322392,77.5000000000001,0,60,3.0,2,2.3406113648568006e-15
3.155,0.0500971897335304,77.50000000000006,0,60,3.0,2,1.3374922084896003e-15
3.16,0.09582894921774403,77.50000000000003,0,60,3.0,2,6.687461042448002e-16
3.165,0.16937896721820658,77.50000000000001,0,60,3.0,2,3.343730521224001e-16
3.17,0.27661303008991756,77.50000000000001,0,60,3.0,2,3.343730521224001e-16
3.175,0.4173782800009149,77.5,0,60,3.0,2,0.0
3.18,0.5818720934538056,77.5,0,60,3.0,2,0.0
3.185,0.7494718801585675,77.5,0,60,3.0,2,0.0
3.19,0.891813020752378,77.5,0,60,3.0,2,0.0
3.195,0.9800361632936612,77.5,0,60,3.0,2,0.0
3.2,0.993574479225126,77.50000249379623,1,60,3.0,2,5.8677558372972485e-08
3.205,0.9263438449375362,77.50000387113866,0,60,3.0,2,9.108561551543329e-08
3.21,0.7873015962290536,77.50000614495686,0,60,3.0,2,1.44587220146979e-07
3.215,0.5959516244629897,77.50001009206693,0,60,3.0,2,2.3746039834590835e-07
3.22,0.376910120078773,77.5000173369902,0,60,3.0,2,4.079291811114458e-07
3.225,0.15739335672107918,77.50003134163862,0,60,3.0,2,7.37450320417231e-07
3.23,-0.033361226269301235,77.50005950089377,0,60,3.0,2,1.4000210298678105e-06
3.235,-0.1680180840843834,77.50011746182723,0,60,3.0,2,2.7638076995331443e-06
3.24,-0.23069703190837854,77.50023776471434,0,60,3.0,2,5.594463866868062e-06
3.245,-0.22587267821131068,77.50048658883156,0,60,3.0,2,1.1449148977964583e-05
3.25,-0.17718181630665902,77.50099513789219,0,60,3.0,2,2.341500922799402e-05
3.255,-0.11494332516451301,77.50201644570332,0,60,3.0,2,4.744578125456321e-05
3.26,-0.061810214049552864,77.50402451354624,0,60,3.0,2,9.469443638214911e-05
3.265,-0.026546104631500547,77.50788085207563,0,60,3.0,2,0.00018543181354422868
3.27,-0.00719600351942686,77.51510323642296,0,60,3.0,2,0.0003553702687755129
3.275,0.0022072757983807078,77.52828124048683,0,60,3.0,2,0.0006654409526313831
3.28,0.006917199873730717,77.55168968563063,0,60,3.0,2,0.001216227897191402
3.285,0.01004859748264829,77.59214923171803,0,60,3.0,2,0.002168217216894712
3.29,0.013037082251128167,77.66016563836381,0,60,3.0,2,0.0037686032556189944
3.295,0.01645163937690478,77.77133735087011,0,60,3.0,2,0.006384408255767352
3.3,0.020526639934696615,77.94794785355886,0,60,3.0,2,0.01053994949550255
3.305,0.02539629541761738,78.22055245920677,0,60,3.0,2,0.01695417551074757
3.31,0.031171612185577933,78.62923630281921,0,60,3.0,2,0.02657026594868726
3.315,0.03795853426638131,79.22408280415199,0,60,3.0,2,0.040566654215340954
3.32,0.0458588961882057,80.06428738171843,0,60,3.0,2,0.06033617368749246
3.325,0.054966995891435555,81.21533054261677,0,60,3.0,2,0.0874195421792181
3.33,0.06536491004445595,82.74374175486754,0,60,3.0,2,0.12338215893805983
3.335,0.07711726085088699,84.70928122426405,0,60,3.0,2,0.16963014645327168
3.34,0.09026570629555215,87.1548465652038,0,60,3.0,2,0.2271728603577364
3.345,0.10482339848670268,90.09502724164179,0,60,3.0,2,0.29635358215627733
3.35,0.12076968927580028,93.50487114298438,0,60,3.0,2,0.3765852033643385
3.355,0.13804539501007884,97.31093238205123,0,60,3.0,2,0.46613958546002904
3.36,0.15654895051787066,101.38685595826713,0,60,3.0,2,0.5620436696062855
3.365,0.17613378141900526,105.55547445391579,0,60,3.0,2,0.6601288106803715
3.37,0.19660720058055794,109.59858538401849,0,60,3.0,2,0.755260832565141
3.375,0.21773108748496234,113.27431955233847,0,60,3.0,2,0.8417486953491404
3.38,0.23922453870058807,116.34051861380365,0,60,3.0,2,0.9138945556189094
3.385,0.2607685857914563,118.58114006736284,0,60,3.0,2,0.9666150604085374
3.39,0.2820129681603682,119.8317565853096,0,60,3.0,2,0.9960413314190495
3.395,0.30258482867153996,120.0,0,60,3.0,2,1.0
3.4,0.3220990771751686,119.07744164457799,0,60,3.0,2,0.9782927445783056
3.405,0.3401700499968971,117.14080910839245,0,60,3.0,2,0.9327249201974693
3.41,0.3564239911198326,114.34232070302158,0,60,3.0,2,0.8668781341887432
3.415,0.3705118017738417,110.89084986176812,0,60,3.0,2,0.7856670555710146
3.42,0.3821214567925213,107.02717543587835,0,60,3.0,2,0.6947570690794905
3.425,0.39098947374066967,102.99739961797562,0,60,3.0,2,0.5999388145406027
3.43,0.3969108472035567,99.02858404930407,0,60,3.0,2,0.5065549188071546
3.435,0.3997469255491936,95.309845089302,0,60,3.0,2,0.4190551785718118
3.44,0.3994308076379137,91.98081845212747,0,60,3.0,2,0.340725140050058
3.445,0.3959699661768434,89.12790132529386,0,60,3.0,2,0.27359767824220854
3.45,0.38944595408114946,86.78734731342963,0,60,3.0,2,0.21852581913952082
3.455,0.38001120995358023,84.9533724015562,0,60,3.0,2,0.17537346827191044
3.46,0.3678831374098315,83.58903512890868,0,60,3.0,2,0.14327141479785122
3.465,0.35333577933796634,82.63774874869135,0,60,3.0,2,0.1208882058515612
3.47,0.33668953221163944,82.0337334377467,0,60,3.0,2,0.10667608088815775
3.475,0.3182994390982644,81.71034347243264,0,60,3.0,2,0.09906690523370919
3.48,0.29854265738230645,81.60583753471548,0,60,3.0,2,0.09660794199330533
3.485,0.2778057157821067,81.66667643687869,0,60,3.0,2,0.0980394455736162
3.49,0.2564721553719815,81.84876988678565,0,60,3.0,2,0.10232399733613286
3.495,0.23491109433464996,82.11724772973115,0,60,3.0,2,0.10864112305249758
3.5,0.21346717185309805,82.44533609838746,0,60,3.0,2,0.11636084937382253
3.505,0.19245222055656455,82.81282786982345,0,60,3.0,2,0.1250077145840812
3.51,0.17213889801761392,83.2045024139376,0,60,3.0,2,0.13422358621029656
3.515,0.15275638501270183,83.60871282730876,0,60,3.0,2,0.14373441946608856
3.52,0.13448814019607322,84.01624472320185,0,60,3.0,2,0.15332340525180826
3.525,0.11747159495449566,84.41946941505593,0,60,3.0,2,0.1628110450601395
3.53,0.10179958433370105,84.81176549258696,0,60,3.0,2,0.17204154100204605
3.535,0.08752324394101413,85.18715992974894,0,60,3.0,2,0.18087435128821044
3.54,0.07465606047174059,85.54013465057005,0,60,3.0,2,0.18917963883694242
3.545,0.0631787448609295,85.86554926666517,0,60,3.0,2,0.1968364533332981
3.55,0.05304460019959574,86.1586397512219,0,60,3.0,2,0.20373270002875055
3.555,0.044185078305849994,86.41506250951961,0,60,3.0,2,0.20976617669457917
3.56,0.03651525513023255,86.6309617919093,0,60,3.0,2,0.2148461598096306
3.565,0.0299390014708757,86.80304503126104,0,60,3.0,2,0.21889517720614202
3.57,0.024353677220580638,86.92865552465399,0,60,3.0,2,0.22185071822715272
3.575,0.01965423034339045,87.00583527328615,0,60,3.0,2,0.22366671231261534
3.58,0.015736632374757337,87.03337316307264,0,60,3.0,2,0.22431466266053268
3.585,0.012500627640593535,87.01083537210316,0,60,3.0,2,0.22378436169654492
3.59,0.009851811652115898,86.938576193165,0,60,3.0,2,0.22208414572152954
3.595,0.007703084175428559,86.81772852740197,0,60,3.0,2,0.2192406712329875
3.6,0.005975544002062424,86.65017423074696,0,60,3.0,2,0.21529821719404602
3.605,0.004598905818663047,86.43849531771997,0,60,3.0,2,0.2103175368875287
3.61,0.0035115256454839104,86.18590775527554,0,60,3.0,2,0.20437430012413027
3.615,0.002660121266303676,85.8961802035904,0,60,3.0,3,0.19755718126095068
3.62,0.0019992692560877024,85.57354056557351,0,60,3.0,3,0.1899656603664355
3.625,0.0014907520044639367,85.22257357723743,0,60,3.0,3,0.1817076135820571
3.63,0.0011028178277539807,84.84811289585821,0,60,3.0,3,0.17289677402019313
3.635,0.0008094059938923333,84.4551312173353,0,60,3.0,3,0.16365014629024252
3.64,0.0005893771793717645,84.04863188079896,0,60,3.0,3,0.15408545601879917
3.645,0.0004257792353490551,83.63354520691325,0,60,3.0,3,0.1443187107509001
3.65,0.0003051686392901525,83.21463248261027,0,60,3.0,3,0.13446194076730048
3.655,0.00021699992642659966,82.79640007066425,0,60,3.0,3,0.12462117813327642
3.66,0.00015308884054097838,82.38302561301214,0,60,3.0,3,0.11489472030616793
3.665,0.00010714989329311098,81.97829773979932,0,60,3.0,3,0.1053717115246898
3.67,7.440535854020571e-05,81.58557012016932,0,60,3.0,3,0.09613106165104288
3.675,5.1260276743925106e-05,81.20773012323724,0,60,3.0,3,0.08724070878205271
3.68,3.503659887882241e-05,80.84718182348887,0,60,3.0,3,0.07875721937620864
3.685,2.375894748103639e-05,80.50584260541186,0,60,3.0,3,0.07072570836263192
3.69,1.5984413869232557e-05,80.18515221437653,0,60,3.0,3,0.06318005210297717
3.695,1.0669166579899869e-05,79.88609277648273,0,60,3.0,3,0.05614335944665239
3.7,7.06526633560511e-06,79.60921807587849,0,60,3.0,3,0.0496286606089056
3.705,4.641847214699205e-06,79.35469023543456,0,60,3.0,3,0.04363977024551907
3.71,3.025641074479182e-06,79.12232189244838,0,60,3.0,3,0.03817227982231489
3.715,1.9566278676921314e-06,78.91162198804986,0,60,3.0,3,0.03321463501293786
3.72,1.2553456560008793e-06,78.72184338679695,0,60,3.0,3,0.02874925615992819
3.725,7.990660428214668e-07,78.55203069891354,0,60,3.0,3,0.024753663503848014
3.73,5.046221251618276e-07,78.4010668777479,0,60,3.0,3,0.021201573594068095
3.735,3.1616527078858815e-07,78.2677173949188,0,60,3.0,3,0.018063938703971872
3.74,1.9652884407760343e-07,78.15067104128426,0,60,3.0,3,0.015309906853747179
3.745,1.2120002189836396e-07,78.04857665043636,0,60,3.0,3,0.012907685892620226
3.75,7.415549848886236e-08,77.96007528166045,0,60,3.0,3,0.010825300744951792
3.755,4.501406988770349e-08,77.88382762196936,0,60,3.0,3,0.009031238163984934
3.76,0.0,77.81853656491259,0,60,3.0,3,0.007494977997943325
3.765,0.0,77.76296509259281,0,60,3.0,3,0.006187413943360177
3.77,0.0,77.71594972407637,0,60,3.0,3,0.005081169978267459
3.775,0.0,77.6764098974902,0,60,3.0,3,0.004150821117416533
3.78,0.0,77.64335372555104,0,60,3.0,3,0.003373028836494996
3.785,0.0,77.61588060740796,0,60,3.0,3,0.0027266025272461
3.79,0.0,77.59318119681424,0,60,3.0,3,0.002192498748570415
3.795,0.0,77.5745352217389,0,60,3.0,3,0.001753769923268197
3.8,0.0,77.55930762785665,0,60,3.0,3,0.0013954735966271582
3.805,0.0,77.54694348223622,0,60,3.0,3,0.001104552523205083
3.81,0.0,77.53696202809876,0,60,3.0,3,0.0008696947787942623
3.815,0.0,77.52895023050213,0,60,3.0,3,0.0006811818941678345
3.82,0.0,77.52255609948452,0,60,3.0,3,0.0005307317525768988
3.825,0.0,77.5174820242859,0,60,3.0,3,0.0004113417479034604
3.83,0.0,77.51347830188524,0,60,3.0,3,0.0003171365149468971
3.835,0.0,77.51033699680363,0,60,3.0,3,0.00024322345420306889
3.84,0.0,77.50788622796446,0,60,3.0,3,0.00018555830504617596
3.845,0.0,77.50598494293993,0,60,3.0,3,0.00014082218682193236
3.85,0.0,77.50451821032726,0,60,3.0,3,0.00010631083122970107
3.855,0.0,77.50339303715964,0,60,3.0,3,7.983616846211268e-05
3.86,0.0,77.50253469979884,0,60,3.0,3,5.963999526690767e-05
3.865,0.0,77.50188356315793,0,60,3.0,3,4.431913312781516e-05
3.87,0.0,77.5013923537419,0,60,3.0,3,3.276126451543646e-05
3.875,0.0,77.501023846212,0,60,3.0,3,2.4090499105715722e-05
3.88,0.0,77.50074892031576,0,60,3.0,3,1.7621654488413484e-05
3.885,0.0,77.5005449444552,0,60,3.0,3,1.2822222475292353e-05
3.89,0.0,77.50039444332097,0,60,3.0,3,9.281019316965873e-06
3.895,0.0,77.50028400940215,0,60,3.0,3,6.682574168253803e-06
3.9,0.0,77.5002034213682,0,60,3.0,3,4.786385134072107e-06
3.905,0.0,77.50014493596511,0,60,3.0,3,3.410258002598793e-06
3.91,0.0,77.50010272390129,0,60,3.0,3,2.417032971593739e-06
3.915,0.0,77.50007242401301,0,60,3.0,3,1.704094423824726e-06
3.92,0.0,77.50005079364838,0,60,3.0,3,1.1951446678642029e-06
3.925,0.0,77.50003543659405,0,60,3.0,3,8.338022128635417e-07
3.93,0.0,77.50002459293042,0,60,3.0,3,5.786571862512681e-07
3.935,0.0,77.50001697791406,0,60,3.0,3,3.994803307705297e-07
3.94,0.001684486749771458,77.5000116593442,0,60,3.0,3,2.7433751049155786e-07
3.945,0.003097557930867117,77.50000796488771,0,60,3.0,3,1.874091226989763e-07
3.95,0.005475106668887023,77.5000054125377,0,60,3.0,3,1.2735382831445296e-07
3.955,0.00930222931468658,77.50000365879397,0,60,3.0,3,8.608926992458103e-08
3.96,0.01519157517868857,77.50000246031502,0,60,3.0,3,5.7889765096607495e-08
3.965,0.023847336626128316,77.50000164573241,0,60,3.0,3,3.8723115548076324e-08
3.97,0.0359830743700859,77.500001095074,0,60,3.0,3,2.5766447004785092e-08
3.975,0.05218887796857759,77.50000072484218,0,60,3.0,3,1.7055110139849337e-08
3.98,0.0727577001223134,77.50000047726456,0,60,3.0,3,1.1229754443989162e-08
3.985,0.0974992498694751,77.50000031260122,0,60,3.0,3,7.355322729969938e-09
3.99,0.12558706050443358,77.50000020367507,0,60,3.0,3,4.79235462294395e-09
3.995,0.15549263588878245,77.50000013200818,0,60,3.0,3,3.106074874428005e-09
4.0,0.1850529723539114,77.50000008510979,0,60,3.0,3,2.0025832809016505e-09
4.005,0.21169159439317053,77.50000005458509,0,60,3.0,3,1.284354980538517e-09
4.01,0.23277292922115492,77.50000003482444,0,60,3.0,3,8.193985516246518e-10
4.015,0.24602692519491282,77.5000000221009,0,60,3.0,3,5.200213175104342e-10
4.02,0.24995056064839283,77.50000001395249,0,60,3.0,3,3.2829381566176274e-10
4.025,0.24408826520424054,77.50000000876211,0,60,3.0,3,2.0616740210457733e-10
4.03,0.22911894216865275,77.50000000547372,0,60,3.0,3,1.2879347784345396e-10
4.035,0.20672661788705934,77.50000000340151,0,60,3.0,3,8.003553375601768e-11
4.04,0.17928878030241233,77.5000000021027,0,60,3.0,3,4.9475174284238806e-11
4.045,0.14946211903866036,77.50000000129299,0,60,3.0,3,3.0423266520408696e-11
4.05,0.1197651512573837,77.50000000079092,0,60,3.0,3,1.86098665889243e-11
4.055,0.09224675744988023,77.50000000048126,0,60,3.0,3,1.1323877783177202e-11
4.06,0.06829565320281596,77.50000000029131,0,60,3.0,3,6.854313195457079e-12
4.065,0.04860224607515734,77.5000000001754,0,60,3.0,3,4.1271665823467845e-12
4.07,0.03324612389699793,77.50000000010506,0,60,3.0,3,2.4720199743409036e-12
4.075,0.021859876340472782,77.5000000000626,0,60,3.0,3,1.4729132945991723e-12
4.08,0.01381595518554205,77.5000000000371,0,60,3.0,3,8.730480390915867e-13
4.085,0.008394095110402422,77.50000000002187,0,60,3.0,3,5.146001272163737e-13
4.09,0.0049052535271608,77.50000000001283,0,60,3.0,3,3.0193886606652727e-13
4.095,0.0027671663551903634,77.50000000000749,0,60,3.0,3,1.7621459846850485e-13
4.1,0.0015425553464444616,77.50000000000435,0,60,3.0,3,1.0231815394945443e-13
4.105,0.0009638206637011801,77.5000000000025,0,60,3.0,3,5.884965717354242e-14
4.11,0.0009804935156568228,77.50000000000144,0,60,3.0,3,3.377167826436241e-14
4.115,0.0018793744894085216,77.50000000000082,0,60,3.0,3,1.9393637023099206e-14
4.12,0.004535525206900863,77.50000000000047,0,60,3.0,3,1.1034310720039203e-14
4.125,0.010832767979632273,77.50000000000027,0,60,3.0,3,6.353087990325602e-15
4.13,0.024208003392322392,77.50000000000014,0,60,3.0,3,3.343730521224001e-15
4.135,0.0500971897335304,77.50000000000009,0,60,3.0,3,2.0062383127344005e-15
4.14,0.09582894921774403,77.50000000000004,0,60,3.0,3,1.0031191563672002e-15
4.145,0.16937896721820658,77.50000000000003,0,60,3.0,3,6.687461042448002e-16
4.15,0.27661303008991756,77.50000000000001,0,60,3.0,3,3.343730521224001e-16
4.155,0.4173782800009149,77.5,0,60,3.0,3,0.0
4.16,0.5818720934538056,77.5,0,60,3.0,3,0.0
4.165,0.7494718801585675,77.5,0,60,3.0,3,0.0
4.17,0.891813020752378,77.5,0,60,3.0,3,0.0
4.175,0.9800361632936612,77.5,0,60,3.0,3,0.0
4.18,0.993574479225126,77.50000249606323,1,60,3.0,3,5.8730899568485364e-08
4.185,0.9263438449375362,77.5000038398575,0,60,3.0,3,9.034958820313264e-08
4.19,0.7873015962290536,77.500006033868,0,60,3.0,3,1.4197336480826967e-07
4.195,0.5959516244629897,77.50000979196264,0,60,3.0,3,2.303991209373635e-07
4.2,0.376910120078773,77.50001658325932,0,60,3.0,3,3.9019433703448587e-07
4.205,0.15739335672107918,77.50002948944842,0,60,3.0,3,6.938693746526362e-07
4.21,-0.033361226269301235,77.50005499618474,0,60,3.0,3,1.2940278763300524e-06
4.215,-0.1680180840843834,77.50010664152244,0,60,3.0,3,2.509212292606582e-06
4.22,-0.23069703190837854,77.50021223841208,0,60,3.0,3,4.993844990006919e-06
4.225,-0.22587267821131068,77.50042774487464,0,60,3.0,3,1.006458528569751e-05
4.23,-0.17718181630665902,77.50086306382961,0,60,3.0,3,2.0307384226177473e-05
4.235,-0.11494332516451301,77.50172846110615,0,60,3.0,3,4.0669673085978825e-05
4.24,-0.061810214049552864,77.5034152292072,0,60,3.0,3,8.035833428721162e-05
4.245,-0.026546104631500547,77.5066308676186,0,60,3.0,3,0.00015602041455522073
4.25,-0.00719600351942686,77.51261714788687,0,60,3.0,3,0.0002968740679263834
4.255,0.0022072757983807078,77.5234879390857,0,60,3.0,3,0.000552657390251705
4.26,0.006917199873730717,77.5427303078502,0,60,3.0,3,0.00100541900824015
4.265,0.01004859748264829,77.57591328443115,0,60,3.0,3,0.001786194927791819
4.27,0.013037082251128167,77.63163821024733,0,60,3.0,3,0.0030973696528783824
4.275,0.01645163937690478,77.7227359889992,0,60,3.0,3,0.005240846799981281
4.28,0.020526639934696615,77.86766338596527,0,60,3.0,3,0.008650903199182882
4.285,0.02539629541761738,78.09196918540792,0,60,3.0,3,0.013928686715480447
4.29,0.031171612185577933,78.42959438652437,0,60,3.0,3,0.021872809094691092
4.295,0.03795853426638131,78.9236517302522,0,60,3.0,3,0.03349768777064007
4.3,0.0458588961882057,79.62622444184039,0,60,3.0,3,0.05002881039624453
4.305,0.054966995891435555,80.5966700411891,0,60,3.0,3,0.07286282449856706
4.31,0.06536491004445595,81.89795705296187,0,60,3.0,3,0.10348134242263227
4.315,0.07711726085088699,83.590740736457,0,60,3.0,3,0.14331154674016455
4.32,0.09026570629555215,85.72521884287897,0,60,3.0,3,0.19353456100891703
4.325,0.10482339848670268,88.3312835786459,0,60,3.0,3,0.25485373126225636
4.33,0.12076968927580028,91.40803681418913,0,60,3.0,3,0.32724792503974426
4.335,0.13804539501007884,94.91424919828907,0,60,3.0,3,0.4097470399597428
4.34,0.15654895051787066,98.7616754538298,0,60,3.0,3,0.5002747165607011
4.345,0.17613378141900526,102.81314459839467,0,60,3.0,3,0.5956034023151687
4.35,0.19660720058055794,106.88692793605124,0,60,3.0,3,0.6914571279070879
4.355,0.21773108748496234,110.76804090701927,0,60,3.0,3,0.7827774331063357
4.36,0.23922453870058807,114.22596317855158,0,60,3.0,3,0.8641403100835666
4.365,0.2607685857914563,117.0369802382121,0,60,3.0,3,0.9302818879579317
4.37,0.2820129681603682,119.00824368351186,0,60,3.0,3,0.9766645572591027
4.375,0.30258482867153996,120.0,0,60,3.0,3,1.0
4.38,0.3220990771751686,119.94245116636986,0,60,3.0,3,0.998645909796938
4.385,0.3401700499968971,118.84443995887491,0,60,3.0,3,0.9728103519735274
4.39,0.3564239911198326,116.79247804582917,0,60,3.0,3,0.9245288951959805
4.395,0.3705118017738417,113.94028233815197,0,60,3.0,3,0.857418407956517
4.4,0.3821214567925213,110.4905961503334,0,60,3.0,3,0.7762493211843153
4.405,0.39098947374066967,106.67229771772733,0,60,3.0,3,0.686407005122996
4.41,0.3969108472035567,102.71639188641603,0,60,3.0,3,0.5933268679156714
4.415,0.3997469255491936,98.83435529010902,0,60,3.0,3,0.5019848303555062
4.42,0.3994308076379137,95.20154861737079,0,60,3.0,3,0.4165070262910774
4.425,0.3959699661768434,91.94724589020063,0,60,3.0,3,0.3399351974164855
4.43,0.38944595408114946,89.1515501373611,0,60,3.0,3,0.2741541208790847
4.435,0.38001120995358023,86.84834318674413,0,60,3.0,3,0.21996101615868544
4.44,0.3678831374098315,85.03265064487029,0,60,3.0,3,0.17723883870283028
4.445,0.35333577933796634,83.67047424017679,0,60,3.0,3,0.1451876291806303
4.45,0.33668953221163944,82.70922389874646,0,60,3.0,3,0.12256997408815196
4.455,0.3182994390982644,82.08726133343396,0,60,3.0,3,0.10793556078668136
4.46,0.29854265738230645,81.74159879534122,0,60,3.0,3,0.09980232459626397
4.465,0.2778057157821067,81.61334027722147,0,60,3.0,3,0.09678447711109336
4.47,0.2564721553719815,81.6509036668351,0,60,3.0,3,0.09766832157259073
4.475,0.23491109433464996,81.81136644357802,0,60,3.0,3,0.10144391631948291
4.48,0.21346717185309805,82.06042651697676,0,60,3.0,3,0.10730415334062968
4.485,0.19245222055656455,82.37148928088116,0,60,3.0,3,0.11462327719720386
4.49,0.17213889801761392,82.72432417484066,0,60,3.0,3,0.12292527470213319
4.495,0.15275638501270183,83.10362302191093,0,60,3.0,3,0.13184995345672787
4.5,0.13448814019607322,83.49767392349987,0,60,3.0,3,0.14112173937646763
4.505,0.11747159495449566,83.89726171789964,0,60,3.0,3,0.15052380512705033
4.51,0.10179958433370105,84.29482974674242,0,60,3.0,3,0.15987834698217465
4.515,0.08752324394101413,84.68388923933297,0,60,3.0,3,0.16903268798430518
4.52,0.07465606047174059,85.05863764443257,0,60,3.0,3,0.17785029751606035
4.525,0.0631787448609295,85.41373904216793,0,60,3.0,3,0.18620562452159842
4.53,0.05304460019959574,85.74422176195922,0,60,3.0,3,0.19398168851668762
4.535,0.044185078305849994,86.0454552613927,0,60,3.0,3,0.20106953556218127
4.54,0.03651525513023255,86.31317664893982,0,60,3.0,3,0.20736886232799567
4.545,0.0299390014708757,86.54354497329876,0,60,3.0,3,0.2127892934893827
4.55,0.024353677220580638,86.73320770957436,0,60,3.0,3,0.21725194610763196
4.555,0.01965423034339045,86.87936861096367,0,60,3.0,3,0.22069102614032157
4.56,0.015736632374757337,86.97984948291244,0,60,3.0,3,0.223055281950881
4.565,0.012500627640593535,87.03314081261668,0,60,3.0,3,0.2243091955909807
4.57,0.009851811652115898,87.03843787511315,0,60,3.0,3,0.22443383235560344
4.575,0.007703084175428559,86.99566019345913,0,60,3.0,3,0.2234272986696266
4.58,0.005975544002062424,86.90545322943116,0,60,3.0,3,0.22130478186896846
4.585,0.004598905818663047,86.76917202771214,0,60,3.0,3,0.2180981653579328
4.59,0.0035115256454839104,86.58884728386485,0,60,3.0,3,0.21385523020858474
4.595,0.002660121266303676,86.36713497361453,0,60,3.0,3,0.2086384699674006
4.6,0.0019992692560877024,86.10725126733229,0,60,3.0,3,0.20252355923134793
4.605,0.0014907520044639367,85.81289494876535,0,60,3.0,3,0.19559752820624346
4.61,0.0011028178277539807,85.48815994788507,0,60,3.0,3,0.1879567046561192
4.615,0.0008094059938923333,85.13744087266727,0,60,3.0,3,0.17970449112158282
4.62,0.0005893771793717645,84.76533457621503,0,60,3.0,3,0.17094904885211823
4.625,0.0004257792353490551,84.37654082180066,0,60,3.0,3,0.1618009605129567
4.63,0.0003051686392901525,83.97576501288177,0,60,3.0,3,0.15237094147957095
4.635,0.00021699992642659966,83.5676257473155,0,60,3.0,3,0.14276766464271773
4.64,0.00015308884054097838,83.1565696492459,0,60,3.0,3,0.1330957564528446
4.645,0.00010714989329311098,82.74679554691296,0,60,3.0,3,0.12345401286854031
4.65,7.440535854020571e-05,82.34218962124325,0,60,3.0,3,0.11393387344101764
4.655,5.1260276743925106e-05,81.94627267143458,0,60,3.0,3,0.10461818050434317
4.66,3.503659887882241e-05,81.5621601530088,0,60,3.0,3,0.0955802388943248
4.665,2.375894748103639e-05,81.19253516317026,0,60,3.0,3,0.08688318030988854
4.67,1.5984413869232557e-05,80.83963409787519,0,60,3.0,3,0.07857962583235743
4.675,1.0669166579899869e-05,80.5052443018934,0,60,3.0,3,0.07071163063278585
4.68,7.06526633560511e-06,80.19071269077197,0,60,3.0,3,0.06331088684169352
4.685,4.641847214699205e-06,79.89696405136633,0,60,3.0,3,0.056399154149795884
4.69,3.025641074479182e-06,79.6245275306656,0,60,3.0,3,0.04998888307448477
4.695,1.9566278676921314e-06,79.37356970210506,0,60,3.0,3,0.044083992990707255
4.7,1.2553456560008793e-06,79.14393255178399,0,60,3.0,3,0.03868076592432919
4.705,7.990660428214668e-07,78.93517474813203,0,60,3.0,3,0.03376881760310653
4.71,5.046221251618276e-07,78.74661463915068,0,60,3.0,3,0.029332109156486548
4.715,3.1616527078858815e-07,78.57737355111618,0,60,3.0,3,0.02534996590861604
4.72,1.9652884407760343e-07,78.42641813017309,0,60,3.0,3,0.021798073651131532
4.725,1.2120002189836396e-07,78.29260066180315,0,60,3.0,3,0.01864942733654469
4.73,7.415549848886236e-08,78.17469651121884,0,60,3.0,3,0.0158752120286786
4.735,4.501406988770349e-08,78.07143803963184,0,60,3.0,3,0.013445600932513959
4.74,0.0,77.98154455767332,0,60,3.0,3,0.011330460180548632
4.745,0.0,77.9037480701592,0,60,3.0,3,0.009499954591981082
4.75,0.0,77.83681473981095,0,60,3.0,3,0.00792505270143405
4.755,0.0,77.7795621471775,0,60,3.0,3,0.006577932874764723
4.76,0.0,77.730872547324,0,60,3.0,3,0.005432295231152881
4.765,0.0,77.68970241993146,0,60,3.0,3,0.0044635863513285716
4.77,0.0,77.65508867876439,0,60,3.0,3,0.0036491453826914388
4.775,0.0,77.62615195063168,0,60,3.0,3,0.002968281191333651
4.78,0.0,77.60209735548692,0,60,3.0,3,0.0024022907173392627
4.785,0.0,77.58221322128246,0,60,3.0,3,0.001934428736057846
4.79,0.0,77.56586815304183,0,60,3.0,3,0.001549838895101964
4.795,0.0,77.5525068488899,0,60,3.0,3,0.0012354552679977695
4.8,0.0,77.54164501992928,0,60,3.0,3,0.0009798828218653371
4.805,0.0,77.53286372908609,0,60,3.0,3,0.0007732642137903119
4.81,0.0,77.52580341921859,0,60,3.0,3,0.0006071392757315366
4.815,0.0,77.5201578553129,0,60,3.0,3,0.0004743024779506467
4.82,0.0,77.51566816144691,0,60,3.0,4,0.0003686626222802528
4.825,0.0,77.51211709188321,0,60,3.0,4,0.0002851080443108725
4.83,0.0,77.50932363821491,0,60,3.0,4,0.0002193797227037334
4.835,0.0,77.50713804159365,0,60,3.0,4,0.00016795391985056086
4.84,0.0,77.50543725103012,0,60,3.0,4,0.00012793531835567966
4.845,0.0,77.5041208456039,0,60,3.0,4,9.69610730327772e-05
4.85,0.0,77.5031074199587,0,60,3.0,4,7.311576373400813e-05
4.855,0.0,77.50233141833475,0,60,3.0,4,5.485690199407145e-05
4.86,0.0,77.50174039213948,0,60,3.0,4,4.095040328192066e-05
4.865,0.0,77.501292649158,0,60,3.0,4,3.0415274305957664e-05
4.87,0.0,77.50095525841263,0,60,3.0,4,2.2476668532496712e-05
4.875,0.0,77.50070237286243,0,60,3.0,4,1.6526420292580843e-05
4.88,0.0,77.50051383209139,0,60,3.0,4,1.2090166856135992e-05
4.885,0.0,77.50037400841595,0,60,3.0,4,8.800198022259686e-06
4.89,0.0,77.50027086205799,0,60,3.0,4,6.37322489383758e-06
4.895,0.0,77.50019517384675,0,60,3.0,4,4.5923258058417775e-06
4.9,0.0,77.50013992706306,0,60,3.0,4,3.292401483764372e-06
4.905,0.0,77.50009981331155,0,60,3.0,4,2.348548507063028e-06
4.91,0.0,77.5000708405394,0,60,3.0,4,1.6668362210272307e-06
4.915,0.0,77.50005002440169,0,60,3.0,4,1.177044745592117e-06
4.92,0.0,77.50003514702703,0,60,3.0,4,8.269888714012803e-07
4.925,0.0,77.50002456981785,0,60,3.0,4,5.781133612505501e-07
4.93,0.0,77.50001708920767,0,60,3.0,4,4.0209900409054705e-07
4.935,0.0,77.50001182629116,0,60,3.0,4,2.782656742831879e-07
4.94,0.001684486749771458,77.50000814295163,0,60,3.0,4,1.9159886184805894e-07
4.945,0.003097557930867117,77.50000557855593,0,60,3.0,4,1.312601394896346e-07
4.95,0.005475106668887023,77.5000038024926,0,60,3.0,4,8.947041411535312e-08
4.955,0.00930222931468658,77.50000257882347,0,60,3.0,4,6.067819928081436e-08
4.96,0.01519157517868857,77.5000017401292,0,60,3.0,4,4.0944216634135744e-08
4.965,0.023847336626128316,77.50000116828292,0,60,3.0,4,2.748900990755989e-08
4.97,0.0359830743700859,77.50000078040709,0,60,3.0,4,1.836251980795864e-08
4.975,0.05218887796857759,77.50000051868184,0,60,3.0,4,1.220427868568496e-08
4.98,0.0727577001223134,77.50000034299478,0,60,3.0,4,8.070465435808086e-09
4.985,0.0974992498694751,77.50000022567355,0,60,3.0,4,5.3099657794946855e-09
4.99,0.12558706050443358,77.50000014773399,0,60,3.0,4,3.4760937657719136e-09
4.995,0.15549263588878245,77.50000009622477,0,60,3.0,4,2.2641121605000295e-09
5.0,0.1850529723539114,77.5000000623591,0,60,3.0,4,1.4672730899559718e-09
5.005,0.21169159439317053,77.50000004020866,0,60,3.0,4,9.460861479858388e-10
5.01,0.23277292922115492,77.50000002579563,0,60,3.0,4,6.069559704508933e-10
5.015,0.24602692519491282,77.50000001646566,0,60,3.0,4,3.874273555565571e-10
5.02,0.24995056064839283,77.50000001045728,0,60,3.0,4,2.460537603731021e-10
5.025,0.24408826520424054,77.50000000660792,0,60,3.0,4,1.5548045987944693e-10
5.03,0.22911894216865275,77.50000000415449,0,60,3.0,4,9.775262429577518e-11
5.035,0.20672661788705934,77.50000000259882,0,60,3.0,4,6.114880627993604e-11
5.04,0.17928878030241233,77.5000000016175,0,60,3.0,4,3.80586751656237e-11
5.045,0.14946211903866036,77.50000000100165,0,60,3.0,4,2.356828457884737e-11
5.05,0.1197651512573837,77.50000000061716,0,60,3.0,4,1.4521487280623714e-11
5.055,0.09224675744988023,77.50000000037834,0,60,3.0,4,8.902013766654657e-12
5.06,0.06829565320281596,77.50000000023077,0,60,3.0,4,5.4298839934156554e-12
5.065,0.04860224607515734,77.50000000014005,0,60,3.0,4,3.2952464286662528e-12
5.07,0.03324612389699793,77.50000000008457,0,60,3.0,4,1.989854033180403e-12
5.075,0.021859876340472782,77.5000000000508,0,60,3.0,4,1.1953836613375804e-12
5.08,0.01381595518554205,77.50000000003037,0,60,3.0,4,7.14555212385569e-13
5.085,0.008394095110402422,77.50000000001806,0,60,3.0,4,4.249881492475705e-13
5.09,0.0049052535271608,77.50000000001069,0,60,3.0,4,2.514485351960449e-13
5.095,0.0027671663551903634,77.5000000000063,0,60,3.0,4,1.4812726209022324e-13
5.1,0.0015425553464444616,77.50000000000368,0,60,3.0,4,8.660262049970162e-14
5.105,0.0009638206637011801,77.50000000000215,0,60,3.0,4,5.049033087048241e-14
5.11,0.0009804935156568228,77.50000000000125,0,60,3.0,4,2.942482858677121e-14
5.115,0.0018793744894085216,77.50000000000072,0,60,3.0,4,1.7053025658242404e-14
5.12,0.004535525206900863,77.50000000000041,0,60,3.0,4,9.696818511549603e-15
5.125,0.010832767979632273,77.50000000000024,0,60,3.0,4,5.684341886080802e-15
5.13,0.024208003392322392,77.50000000000013,0,60,3.0,4,3.0093574691016007e-15
5.135,0.0500971897335304,77.50000000000007,0,60,3.0,4,1.6718652606120004e-15
5.14,0.09582894921774403,77.50000000000004,0,60,3.0,4,1.0031191563672002e-15
5.145,0.16937896721820658,77.50000000000003,0,60,3.0,4,6.687461042448002e-16
5.15,0.27661303008991756,77.50000000000001,0,60,3.0,4,3.343730521224001e-16
5.155,0.4173782800009149,77.5,0,60,3.0,4,0.0
5.16,0.5818720934538056,77.5,0,60,3.0,4,0.0
5.165,0.7494718801585675,77.5,0,60,3.0,4,0.0
5.17,0.891813020752378,77.5,0,60,3.0,4,0.0
5.175,0.9800361632936612,77.5,0,60,3.0,4,0.0
5.18,0.993574479225126,77.50000249206059,1,60,3.0,4,5.8636719720251515e-08
5.185,0.9263438449375362,77.50000388649308,0,60,3.0,4,9.144689590143303e-08
5.19,0.7873015962290536,77.50000620174501,0,60,3.0,4,1.4592341197866892e-07
5.195,0.5959516244629897,77.50001024868433,0,60,3.0,4,2.411455137221577e-07
5.2,0.376910120078773,77.50001773713392,0,60,3.0,4,4.1734432744199103e-07
5.205,0.15739335672107918,77.50003234050088,0,60,3.0,4,7.609529618816047e-07
5.21,-0.033361226269301235,77.50006196542242,0,60,3.0,4,1.4580099392493568e-06
5.215,-0.1680180840843834,77.50012345839556,0,60,3.0,4,2.9049034250259437e-06
5.22,-0.23069703190837854,77.50025207253846,0,60,3.0,4,5.93111855196452e-06
5.225,-0.22587267821131068,77.50051989833095,0,60,3.0,4,1.2232901904700852e-05
5.23,-0.17718181630665902,77.50107053879677,0,60,3.0,4,2.5189148159236486e-05
5.235,-0.11494332516451301,77.50218205581817,0,60,3.0,4,5.134248983923124e-05
5.24,-0.061810214049552864,77.50437705138005,0,60,3.0,4,0.00010298944423639382
5.245,-0.026546104631500547,77.50860779491533,0,60,3.0,4,0.00020253635094905697
5.25,-0.00719600351942686,77.5165549676137,0,60,3.0,4,0.00038952864973412836
5.255,0.0022072757983807078,77.53108897869964,0,60,3.0,4,0.0007315053811680627
5.26,0.006917199873730717,77.55694911283238,0,60,3.0,4,0.0013399791254678748
5.265,0.01004859748264829,77.60169183598806,0,60,3.0,4,0.0023927490820720805
5.27,0.013037082251128167,77.67693707547176,0,60,3.0,4,0.0041632253052177794
5.275,0.01645163937690478,77.7998909378598,0,60,3.0,4,0.0070562573614070595
5.28,0.020526639934696615,77.99503777956711,0,60,3.0,4,0.011647947754520306
5.285,0.02539629541761738,78.29577278054447,0,60,3.0,4,0.01872406542457571
5.29,0.031171612185577933,78.74559890656192,0,60,3.0,4,0.029308209566162906
5.295,0.03795853426638131,79.39836652237483,0,60,3.0,4,0.04466744758529009
5.3,0.0458588961882057,80.3169349302758,0,60,3.0,4,0.0662808218888425
5.305,0.054966995891435555,81.56964085920548,0,60,3.0,4,0.09575625551071713
5.31,0.06536491004445595,83.22412774219025,0,60,3.0,4,0.13468535863977055
5.315,0.07711726085088699,85.33845947360807,0,60,3.0,4,0.18443434055548397
5.32,0.09026570629555215,87.95000681664004,0,60,3.0,4,0.24588251333270686
5.325,0.10482339848670268,91.06328339863445,0,60,3.0,4,0.3191360799678695
5.33,0.12076968927580028,94.63858211835603,0,60,3.0,4,0.40326075572602416
5.335,0.13804539501007884,98.5837320054619,0,60,3.0,4,0.4960878118932211
5.34,0.15654895051787066,102.75136341377669,0,60,3.0,4,0.5941497273829809
5.345,0.17613378141900526,106.94359409913197,0,60,3.0,4,0.6927904493913405
5.35,0.19660720058055794,110.92500582405262,0,60,3.0,4,0.7864707252718264
5.355,0.21773108748496234,114.44330342499879,0,60,3.0,4,0.8692541982352656
5.36,0.23922453870058807,117.25542188596262,0,60,3.0,4,0.9354216914344146
5.365,0.2607685857914563,119.15545481965574,0,60,3.0,4,0.9801283486977822
5.37,0.2820129681603682,120.0,0,60,3.0,4,1.0
5.375,0.30258482867153996,119.72661680769721,0,60,3.0,4,0.9935674542987579
5.38,0.3220990771751686,118.36212003966133,0,60,3.0,4,0.9614616479920314
5.385,0.3401700499968971,116.0192046826335,0,60,3.0,4,0.9063342278266706
5.39,0.3564239911198326,112.88201428084409,0,60,3.0,4,0.8325179830786844
5.395,0.3705118017738417,109.18324133098602,0,60,3.0,4,0.7454880313173181
5.4,0.3821214567925213,105.17673159742563,0,60,3.0,4,0.6512172140570737
5.405,0.39098947374066967,101.1100694710858,0,60,3.0,4,0.5555310463784893
5.41,0.3969108472035567,97.20119773854125,0,60,3.0,4,0.46355759384802947
5.415,0.3997469255491936,93.62195394509827,0,60,3.0,4,0.37934009282584163
5.42,0.3994308076379137,90.48983035382798,0,60,3.0,4,0.3056430671488937
5.425,0.3959699661768434,87.86768093596174,0,60,3.0,4,0.24394543378733516
5.43,0.38944595408114946,85.76984429058865,0,60,3.0,4,0.19458457154326236
5.435,0.38001120995358023,84.17242779702583,0,60,3.0,4,0.15699830110649018
5.44,0.3678831374098315,83.02534578800257,0,60,3.0,4,0.1300081361882957
5.445,0.35333577933796634,82.26402464586049,0,60,3.0,4,0.11209469754965853
5.45,0.33668953221163944,81.8192991437891,0,60,3.0,4,0.10163056808915519
5.455,0.3182994390982644,81.62472762003841,0,60,3.0,4,0.09705241458913914
5.46,0.29854265738230645,81.62118407871675,0,60,3.0,4,0.09696903714627651
5.465,0.2778057157821067,81.75904264873614,0,60,3.0,4,0.10021276820555626
5.47,0.2564721553719815,81.9985219925281,0,60,3.0,4,0.10584757629477876
5.475,0.23491109433464996,82.30882611113378,0,60,3.0,4,0.11314884967373606
5.48,0.21346717185309805,82.66665602002601,0,60,3.0,4,0.12156837694178849
5.485,0.19245222055656455,83.05453424588724,0,60,3.0,4,0.13069492343264094
5.49,0.17213889801761392,83.45923266320771,0,60,3.0,4,0.14021723913429918
5.495,0.15275638501270183,83.87045877227034,0,60,3.0,4,0.1498931475828315
5.5,0.13448814019607322,84.2798534333411,0,60,3.0,4,0.15952596313743772
5.505,0.11747159495449566,84.68028767641711,0,60,3.0,4,0.16894794532746138
5.51,0.10179958433370105,85.06541226325399,0,60,3.0,4,0.1780097003118586
5.515,0.08752324394101413,85.42940233018484,0,60,3.0,4,0.18657417247493746
5.52,0.07465606047174059,85.76684174356433,0,60,3.0,4,0.19451392337798418
5.525,0.0631787448609295,86.07270061918209,0,60,3.0,4,0.20171060280428438
5.53,0.05304460019959574,86.34237003707361,0,60,3.0,4,0.20805576557820252
5.535,0.044185078305849994,86.57172770912837,0,60,3.0,4,0.21345241668537335
5.54,0.03651525513023255,86.75721616923929,0,60,3.0,4,0.21781685104092435
5.545,0.0299390014708757,86.89592083331073,0,60,3.0,4,0.2210804901955465
5.55,0.024353677220580638,86.98563934776703,0,60,3.0,4,0.22319151406510668
5.555,0.01965423034339045,87.02493647066403,0,60,3.0,4,0.22411615225091838
5.56,0.015736632374757337,87.01318073228062,0,60,3.0,4,0.22383954664189687
5.565,0.012500627640593535,86.95056062220486,0,60,3.0,4,0.2223661322871732
5.57,0.009851811652115898,86.83807925732597,0,60,3.0,4,0.2197195119370817
5.575,0.007703084175428559,86.67752751899921,0,60,3.0,4,0.21594182397645206
5.58,0.005975544002062424,86.47143656288762,0,60,3.0,4,0.21109262500912043
5.585,0.004598905818663047,86.22301141626089,0,60,3.0,4,0.20524732744143268
5.59,0.0035115256454839104,85.9360480776319,0,60,3.0,4,0.19849524888545636
5.595,0.002660121266303676,85.61483710619105,0,60,3.0,4,0.19093734367508344
5.6,0.0019992692560877024,85.26405711630112,0,60,3.0,4,0.18268369685414393
5.605,0.0014907520044639367,84.88866186212869,0,60,3.0,4,0.17385086734420438
5.61,0.0011028178277539807,84.49376470286529,0,60,3.0,4,0.16455916947918334
5.615,0.0008094059938923333,84.08452418143106,0,60,3.0,4,0.15492998073955444
5.62,0.0005893771793717645,83.66603423862483,0,60,3.0,4,0.1450831585558784
5.625,0.0004257792353490551,83.24322223736209,0,60,3.0,4,0.135134640879108
5.63,0.0003051686392901525,82.82075751109831,0,60,3.0,4,0.1251942943787837
5.635,0.00021699992642659966,82.40297260454615,0,60,3.0,4,0.11536406128343883
5.64,0.00015308884054097838,81.9937987739174,0,60,3.0,4,0.10573644173923305
5.645,0.00010714989329311098,81.5967166896027,0,60,3.0,4,0.09639333387300472
5.65,7.440535854020571e-05,81.21472266694637,0,60,3.0,4,0.08740523922226758
5.655,5.1260276743925106e-05,80.85031016848625,0,60,3.0,4,0.07883082749379401
5.66,3.503659887882241e-05,80.50546579764779,0,60,3.0,4,0.07071684229759499
5.665,2.375894748103639e-05,80.18167855835483,0,60,3.0,4,0.0630983190201137
5.67,1.5984413869232557e-05,79.87996080067171,0,60,3.0,4,0.055999077662863786
5.675,1.0669166579899869e-05,79.60087901688703,0,60,3.0,4,0.049432447456165526
5.68,7.06526633560511e-06,79.34459249714048,0,60,3.0,4,0.04340217640330546
5.685,4.641847214699205e-06,79.1108977952886,0,60,3.0,4,0.037903477536202206
5.69,3.025641074479182e-06,78.8992769862145,0,60,3.0,4,0.032924164381517705
5.695,1.9566278676921314e-06,78.70894780365752,0,60,3.0,4,0.028445830674294657
5.7,1.2553456560008793e-06,78.53891391879662,0,60,3.0,4,0.024445033383449968
5.705,7.990660428214668e-07,78.38801383874541,0,60,3.0,4,0.02089444326459784
5.71,5.046221251618276e-07,78.25496715486534,0,60,3.0,4,0.017763933055655077
5.715,3.1616527078858815e-07,78.13841713794321,0,60,3.0,4,0.015021579716310766
5.72,1.9652884407760343e-07,78.03696894665431,0,60,3.0,4,0.012634563450689699
5.725,1.2120002189836396e-07,77.94922297505981,0,60,3.0,4,0.010569952354348502
5.73,7.415549848886236e-08,77.8738031041554,0,60,3.0,4,0.008795367156597636
5.735,4.501406988770349e-08,77.8093798341656,0,60,3.0,4,0.007279525509778751
5.74,0.0,77.75468845334072,0,60,3.0,4,0.005992669490369869
5.745,0.0,77.7085425428285,0,60,3.0,4,0.004906883360670503
5.75,0.0,77.6698432252712,0,60,3.0,4,0.003996311182851621
5.755,0.0,77.63758463845281,0,60,3.0,4,0.0032372856106542927
5.76,0.0,77.6108561573609,0,60,3.0,4,0.002608380173197635
5.765,0.0,77.5888419022451,0,60,3.0,4,0.002090397699884547
5.77,0.0,77.5708180611178,0,60,3.0,4,0.0016663073204189432
5.775,0.0,77.55614852741415,0,60,3.0,4,0.0013211418215094534
5.78,0.0,77.54427931196614,0,60,3.0,4,0.001041866163909082
5.785,0.0,77.53473213754465,0,60,3.0,4,0.000817226765756499
5.79,0.0,77.52709756803894,0,60,3.0,4,0.0006375898362103485
5.795,0.0,77.52102796635984,0,60,3.0,4,0.0004947756790550236
5.8,0.0,77.5162305182252,0,60,3.0,4,0.0003818945464752901
5.805,0.0,77.51246050531307,0,60,3.0,4,0.0002931883603075809
5.81,0.0,77.50951496242737,0,60,3.0,4,0.00022388146887939966
5.815,0.0,77.50722681031257,0,60,3.0,4,0.0001700425955899685
5.82,0.0,77.50545951908494,0,60,3.0,4,0.00012845927258675093
5.825,0.0,77.50410232700878,0,60,3.0,4,9.652534138307173e-05
5.83,0.0,77.50306601530963,0,60,3.0,4,7.214153669712473e-05
5.835,0.0,77.50227922141525,0,60,3.0,4,5.362873918235945e-05
5.84,0.0,77.50168525983179,0,60,3.0,4,3.965317251266456e-05
5.845,0.0,77.50123941108798,0,60,3.0,4,2.916261383481523e-05
5.85,0.0,77.50090663407934,0,60,3.0,4,2.1332566572763266e-05
5.855,0.0,77.5006596549978,0,60,3.0,4,1.5521294065980756e-05
5.86,0.0,77.50047738616604,0,60,3.0,4,1.1232615671521189e-05
5.865,0.0,77.50034362990894,0,60,3.0,4,8.085409622120043e-06
5.87,0.0,77.50024602556587,0,60,3.0,4,5.788836844043116e-06
5.875,0.0,77.50017520144215,0,60,3.0,4,4.122386874047044e-06
5.88,0.0,77.50012409756755,0,60,3.0,4,2.919942765883581e-06
5.885,0.0,77.500087429303,0,60,3.0,4,2.057160070441622e-06
5.89,0.0,77.50006126591418,0,60,3.0,4,1.4415509219682409e-06
5.895,0.0,77.50004270207464,0,60,3.0,4,1.004754697345668e-06
5.9,0.0,77.50002960378131,0,60,3.0,4,6.96559560337311e-07
5.905,0.0,77.5000204133158,0,60,3.0,4,4.803133128247924e-07
5.91,0.001684486749771458,77.50001400064605,0,60,3.0,4,3.294269658106393e-07
5.915,0.003097557930867117,77.50000955104196,0,60,3.0,4,2.247303989540395e-07
5.92,0.005475106668887023,77.50000648069503,0,60,3.0,4,1.5248694199619744e-07
5.925,0.00930222931468658,77.50000437381664,0,60,3.0,4,1.0291333263226346e-07
5.93,0.01519157517868857,77.50000293607884,0,60,3.0,4,6.908420807442727e-08
5.935,0.023847336626128316,77.5000019603924,0,60,3.0,4,4.6126879905226385e-08
5.94,0.0359830743700859,77.50000130192649,0,60,3.0,4,3.063356443282614e-08
5.945,0.05218887796857759,77.50000085999925,0,60,3.0,4,2.0235276398285778e-08
5.95,0.0727577001223134,77.50000056503822,0,60,3.0,4,1.3295016956630313e-08
5.955,0.0974992498694751,77.50000036925445,0,60,3.0,4,8.688340023902984e-09
5.96,0.12558706050443358,77.5000002400169,0,60,3.0,4,5.6474565259550755e-09
5.965,0.15549263588878245,77.50000015517654,0,60,3.0,4,3.6512126237486133e-09
5.97,0.1850529723539114,77.50000009978802,0,60,3.0,4,2.347953528335304e-09
5.975,0.21169159439317053,77.50000006382619,0,60,3.0,4,1.5017927607379319e-09
5.98,0.23277292922115492,77.50000004060576,0,60,3.0,4,9.55429534181295e-10
5.985,0.24602692519491282,77.50000002569476,0,60,3.0,4,6.045825905269286e-10
5.99,0.24995056064839283,77.50000001617221,0,60,3.0,4,3.805225520302295e-10
5.995,0.24408826520424054,77.50000001012424,0,60,3.0,4,2.382173935235615e-10
6.0,0.22911894216865275,77.5000000063041,0,60,3.0,4,1.4833189839812215e-10
6.005,0.20672661788705934,77.50000000390439,0,60,3.0,4,9.186799295147306e-11
6.01,0.17928878030241233,77.5000000024052,0,60,3.0,4,5.659297344476834e-11
6.015,0.14946211903866036,77.50000000147372,0,60,3.0,4,3.467582299730138e-11
6.02,0.1197651512573837,77.50000000089815,0,60,3.0,4,2.113304564023993e-11
6.025,0.09224675744988023,77.50000000054445,0,60,3.0,5,1.2810500372913393e-11
6.03,0.06829565320281596,77.50000000032826,0,60,3.0,5,7.72368313097532e-12
6.035,0.04860224607515734,77.50000000019686,0,60,3.0,5,4.632069891051608e-12
6.04,0.03324612389699793,77.50000000011742,0,60,3.0,5,2.762924529687392e-12
6.045,0.021859876340472782,77.50000000006968,0,60,3.0,5,1.6394310745561276e-12
6.05,0.01381595518554205,77.50000000004111,0,60,3.0,5,9.673412397901036e-13
6.055,0.008394095110402422,77.50000000002413,0,60,3.0,5,5.677654425038354e-13
6.06,0.0049052535271608,77.50000000001408,0,60,3.0,5,3.3136369465329847e-13
6.065,0.0027671663551903634,77.50000000000819,0,60,3.0,5,1.9259887802250245e-13
6.07,0.0015425553464444616,77.50000000000472,0,60,3.0,5,1.1101185330463683e-13
6.075,0.0009638206637011801,77.50000000000271,0,60,3.0,5,6.386525295537842e-14
6.08,0.0009804935156568228,77.50000000000155,0,60,3.0,5,3.644666268134161e-14
6.085,0.0018793744894085216,77.50000000000088,0,60,3.0,5,2.0731129231588804e-14
6.09,0.004535525206900863,77.5000000000005,0,60,3.0,5,1.1703056824284003e-14
6.095,0.010832767979632273,77.50000000000028,0,60,3.0,5,6.687461042448002e-15
6.1,0.024208003392322392,77.50000000000016,0,60,3.0,5,3.678103573346401e-15
6.105,0.0500971897335304,77.50000000000009,0,60,3.0,5,2.0062383127344005e-15
6.11,0.09582894921774403,77.50000000000004,0,60,3.0,5,1.0031191563672002e-15
6.115,0.16937896721820658,77.50000000000003,0,60,3.0,5,6.687461042448002e-16
6.12,0.27661303008991756,77.50000000000001,0,60,3.0,5,3.343730521224001e-16
6.125,0.4173782800009149,77.50000000000001,0,60,3.0,5,3.343730521224001e-16
6.13,0.5818720934538056,77.5,0,60,3.0,5,0.0
6.135,0.7494718801585675,77.5,0,60,3.0,5,0.0
6.14,0.891813020752378,77.5,0,60,3.0,5,0.0
6.145,0.9800361632936612,77.5,0,60,3.0,5,0.0
6.15,0.993574479225126,77.50000249460615,1,60,3.0,5,5.86966152963321e-08
6.155,0.9263438449375362,77.50000372135824,0,60,3.0,5,8.75613703582905e-08
6.16,0.7873015962290536,77.50000565062012,0,60,3.0,5,1.3295576763994177e-07
6.165,0.5959516244629897,77.50000881042637,0,60,3.0,5,2.0730414977312167e-07
6.17,0.376910120078773,77.50001422957038,0,60,3.0,5,3.3481342076329917e-07
6.175,0.15739335672107918,77.50002395205593,0,60,3.0,5,5.635777864988674e-07
6.18,-0.033361226269301235,77.5000420636567,0,60,3.0,5,9.897330986565494e-07
6.185,-0.1680180840843834,77.50007669707328,0,60,3.0,5,1.8046370184145096e-06
6.19,-0.23069703190837854,77.50014385613446,0,60,3.0,5,3.3848502225202324e-06
6.195,-0.22587267821131068,77.50027452450676,0,60,3.0,5,6.459400159161198e-06
6.2,-0.17718181630665902,77.50052752764168,0,60,3.0,5,1.241241509834414e-05
6.205,-0.11494332516451301,77.50101215744053,0,60,3.0,5,2.381546918888275e-05
6.21,-0.061810214049552864,77.50192682085145,0,60,3.0,5,4.533696121063044e-05
6.215,-0.026546104631500547,77.50362308040955,0,60,3.0,5,8.524895081303144e-05
6.22,-0.00719600351942686,77.50670845021435,0,60,3.0,5,0.00015784588739640694
6.225,0.0022072757983807078,77.51220599164661,0,60,3.0,5,0.0002871998034496461
6.23,0.006917199873730717,77.52179350964896,0,60,3.0,5,0.0005127884623284311
6.235,0.01004859748264829,77.53814877820113,0,60,3.0,5,0.0008976183106149031
6.24,0.013037082251128167,77.56542776981523,0,60,3.0,5,0.001539476936828939
6.245,0.01645163937690478,77.60989759869679,0,60,3.0,5,0.002585825851689178
6.25,0.020526639934696615,77.6807315206384,0,60,3.0,5,0.004252506367962429
6.255,0.02539629541761738,77.79094659926142,0,60,3.0,5,0.0068458023355627605
6.26,0.031171612185577933,77.95842333711083,0,60,3.0,5,0.010786431461431288
6.265,0.03795853426638131,78.20689096283934,0,60,3.0,5,0.0166327285373962
6.27,0.0458588961882057,78.56669655777527,0,60,3.0,5,0.025098742535888785
6.275,0.054966995891435555,79.07511066200658,0,60,3.0,5,0.03706142734133129
6.28,0.06536491004445595,79.77587220021896,0,60,3.0,5,0.05354993412279896
6.285,0.07711726085088699,80.71766202080015,0,60,3.0,5,0.07570969460706231
6.29,0.09026570629555215,81.95123894984235,0,60,3.0,5,0.10473503411393761
6.295,0.10482339848670268,83.52509277751652,0,60,3.0,5,0.14176688888274164
6.3,0.12076968927580028,85.47967161003584,0,60,3.0,5,0.18775697905966673
6.305,0.13804539501007884,87.84051510035516,0,60,3.0,5,0.2433062376554156
6.31,0.15654895051787066,90.61093634185639,0,60,3.0,5,0.3084926198083856
6.315,0.17613378141900526,93.76518786395582,0,60,3.0,5,0.38271030268131334
6.32,0.19660720058055794,97.2432506243826,0,60,3.0,5,0.4645470735148846
6.325,0.21773108748496234,100.94842773084399,0,60,3.0,5,0.5517277113139762
6.33,0.23922453870058807,104.74875318118484,0,60,3.0,5,0.6411471336749374
6.335,0.2607685857914563,108.48282317367621,0,60,3.0,5,0.729007604086499
6.34,0.2820129681603682,111.97005664754334,0,60,3.0,5,0.8110601564127846
6.345,0.30258482867153996,115.02467864297884,0,60,3.0,5,0.8829336151289139
6.35,0.3220990771751686,117.47202229769906,0,60,3.0,5,0.9405181717105661
6.355,0.3401700499968971,119.16520707469039,0,60,3.0,5,0.9803578135221267
6.36,0.3564239911198326,120.0,0,60,3.0,5,1.0
6.365,0.3705118017738417,119.92578151822536,0,60,3.0,5,0.9982536827817733
6.37,0.3821214567925213,118.95102289730116,0,60,3.0,5,0.9753181858188508
6.375,0.39098947374066967,117.14246274518496,0,60,3.0,5,0.9327638292984696
6.38,0.3969108472035567,114.61810451972603,0,60,3.0,5,0.8733671651700243
6.385,0.3997469255491936,111.5350680111271,0,60,3.0,5,0.8008251296735787
6.39,0.3994308076379137,108.0740441083796,0,60,3.0,5,0.7193892731383434
6.395,0.3959699661768434,104.42249674272264,0,60,3.0,5,0.633470511593474
6.4,0.38944595408114946,100.75877354497398,0,60,3.0,5,0.5472652598817407
6.405,0.38001120995358023,97.23895250911174,0,60,3.0,5,0.4644459413908645
6.41,0.3678831374098315,93.98765955902843,0,60,3.0,5,0.38794493080066894
6.415,0.35333577933796634,91.09337674826752,0,60,3.0,5,0.3198441587827651
6.42,0.33668953221163944,88.60806578475214,0,60,3.0,5,0.26136625375887396
6.425,0.3182994390982644,86.55037538685598,0,60,3.0,5,0.21295000910249354
6.43,0.29854265738230645,84.91135658494059,0,60,3.0,5,0.17438486082213156
6.435,0.2778057157821067,83.66149701265033,0,60,3.0,5,0.14497640029765482
6.44,0.2564721553719815,82.75797548000064,0,60,3.0,5,0.12371707011766209
6.445,0.23491109433464996,82.1512715900934,0,60,3.0,5,0.1094416844727859
6.45,0.21346717185309805,81.79056899773018,0,60,3.0,5,0.10095456465247474
6.455,0.19245222055656455,81.62769723046279,0,60,3.0,5,0.09712228777559496
6.46,0.17213889801761392,81.61961520483318,0,60,3.0,5,0.09693212246666308
6.465,0.15275638501270183,81.72962172673779,0,60,3.0,5,0.09952051121735976
6.47,0.13448814019607322,81.92757810348637,0,60,3.0,5,0.10417830831732632
6.475,0.11747159495449566,82.18945565966037,0,60,3.0,5,0.11034013316847924
6.48,0.10179958433370105,82.49649588446255,0,60,3.0,5,0.11756460904617758
6.485,0.08752324394101413,82.83421513759593,0,60,3.0,5,0.12551094441402197
6.49,0.07465606047174059,83.19141883220342,0,60,3.0,5,0.13391573722831587
6.495,0.0631787448609295,83.55932610315664,0,60,3.0,5,0.1425723788978032
6.5,0.05304460019959574,83.93085353810575,0,60,3.0,5,0.1513142008966059
6.505,0.044185078305849994,84.30006879848048,0,60,3.0,5,0.16000161878777602
6.51,0.03651525513023255,84.6618013884261,0,60,3.0,5,0.16851297384531996
6.515,0.0299390014708757,85.01138584869369,0,60,3.0,5,0.17673849055749863
6.52,0.024353677220580638,85.34450891949677,0,60,3.0,5,0.18457668045874764
6.525,0.01965423034339045,85.65713355682738,0,60,3.0,5,0.19193255427829117
6.53,0.015736632374757337,85.94547657178403,0,60,3.0,5,0.198717095806683
6.535,0.012500627640593535,86.20602134981468,0,60,3.0,5,0.20484756117211003
6.54,0.009851811652115898,86.43555156926756,0,60,3.0,5,0.21024827221806022
6.545,0.007703084175428559,86.6311955940732,0,60,3.0,5,0.21485166103701658
6.55,0.005975544002062424,86.79047413872193,0,60,3.0,5,0.2185993914993396
6.555,0.004598905818663047,86.91134596731928,0,60,3.0,5,0.22144343452515947
6.56,0.0035115256454839104,86.99224794750238,0,60,3.0,5,0.2233470105294677
6.565,0.002660121266303676,87.0321269017975,0,60,3.0,5,0.22428533886582347
6.57,0.0019992692560877024,87.03046152758272,0,60,3.0,5,0.22424615359018155
6.575,0.0014907520044639367,86.98727330011184,0,60,3.0,5,0.22322996000263148
6.58,0.0011028178277539807,86.90312580335406,0,60,3.0,5,0.22125001890244841
6.585,0.0008094059938923333,86.77911239371997,0,60,3.0,5,0.21833205632282282
6.59,0.0005893771793717645,86.61683251370297,0,60,3.0,5,0.21451370620477586
6.595,0.0004257792353490551,86.41835734354086,0,60,3.0,5,0.20984370220096146
6.6,0.0003051686392901525,86.18618580827722,0,60,3.0,5,0.2043808425476992
6.605,0.00021699992642659966,85.92319223996377,0,60,3.0,5,0.19819275858738278
6.61,0.00015308884054097838,85.63256722375668,0,60,3.0,5,0.1913545229119219
6.615,0.00010714989329311098,85.31775332643326,0,60,3.0,5,0.18394713709254734
6.62,7.440535854020571e-05,84.98237751219715,0,60,3.0,5,0.17605594146346226
6.625,5.1260276743925106e-05,84.63018209168393,0,60,3.0,5,0.16776899039256316
6.63,3.503659887882241e-05,84.26495602656462,0,60,3.0,5,0.1591754359191675
6.635,2.375894748103639e-05,83.89046832741985,0,60,3.0,5,0.15036396064517302
6.64,1.5984413869232557e-05,83.51040514239358,0,60,3.0,5,0.14142129746808424
6.645,1.0669166579899869e-05,83.12831194637964,0,60,3.0,5,0.13243086932657974
6.65,7.06526633560511e-06,82.74754201463752,0,60,3.0,5,0.1234715768150004
6.655,4.641847214699205e-06,82.3712121113783,0,60,3.0,5,0.11461675556184232
6.66,3.025641074479182e-06,82.00216605418971,0,60,3.0,5,0.10593331892211094
6.665,1.9566278676921314e-06,81.64294654037948,0,60,3.0,5,0.09748109506775256
6.67,1.2553456560008793e-06,81.29577535211716,0,60,3.0,5,0.08931236122628615
6.675,7.990660428214668e-07,80.96254180339523,0,60,3.0,5,0.08147157184459355
6.68,5.046221251618276e-07,80.6447990617242,0,60,3.0,5,0.07399527204056941
6.685,3.1616527078858815e-07,80.34376777791057,0,60,3.0,5,0.0669121830096605
6.69,1.9652884407760343e-07,80.06034629321955,0,60,3.0,5,0.06024344219340124
6.695,1.2120002189836396e-07,79.79512656778222,0,60,3.0,5,0.05400297806546398
6.7,7.415549848886236e-08,79.54841488849074,0,60,3.0,5,0.0481979973762527
6.705,4.501406988770349e-08,79.32025636829391,0,60,3.0,5,0.04282956160691556
6.71,0.0,79.11046223965401,0,60,3.0,5,0.0378932291683297
6.715,0.0,78.91863896952484,0,60,3.0,5,0.033379740459407885
6.72,0.0,78.74421827710127,0,60,3.0,5,0.029275724167088662
6.725,0.0,78.58648721358958,0,60,3.0,5,0.02556440502563713
6.73,0.0,78.44461755976289,0,60,3.0,5,0.022226295523832693
6.735,0.0,78.31769390639055,0,60,3.0,5,0.019239856620954003
6.74,0.0,78.20473989921516,0,60,3.0,5,0.016582115275650722
6.745,0.0,78.10474224883049,0,60,3.0,5,0.014229229384246832
6.75,0.0,78.01667222199016,0,60,3.0,5,0.012156993458592068
6.755,0.0,77.93950444065351,0,60,3.0,5,0.010341280956553124
6.76,0.0,77.87223291533377,0,60,3.0,5,0.008758421537265134
6.765,0.0,77.81388432774902,0,60,3.0,5,0.007385513594094645
6.77,0.0,77.76352865288558,0,60,3.0,5,0.0062006741855431275
6.775,0.0,77.72028727161512,0,60,3.0,5,0.005183229920355777
6.78,0.0,77.68333877188556,0,60,3.0,5,0.004313853456130801
6.785,0.0,77.65192266973189,0,60,3.0,5,0.0035746510525150234
6.79,0.0,77.62534130189604,0,60,3.0,5,0.0029492071034363052
6.795,0.0,77.60296015101808,0,60,3.0,5,0.0024225917886607318
6.8,0.0,77.58420686372104,0,60,3.0,5,0.00198133796990673
6.805,0.0,77.5685692131375,0,60,3.0,5,0.0016133932502939655
6.81,0.0,77.55559224223543,0,60,3.0,5,0.0013080527584808056
6.815,0.0,77.54487480436342,0,60,3.0,5,0.001055877749727455
6.82,0.0,77.53606569430985,0,60,3.0,5,0.000848604571996582
6.825,0.0,77.52885953826085,0,60,3.0,5,0.0006790479590787367
6.83,0.0,77.52299258555637,0,60,3.0,5,0.0005410020130909743
6.835,0.0,77.51823852009305,0,60,3.0,5,0.0004291416492482286
6.84,0.0,77.5144043853977,0,60,3.0,5,0.00033892671523992303
6.845,0.0,77.5113266953926,0,60,3.0,5,0.0002665104798258172
6.85,0.0,77.50886778309393,0,60,3.0,5,0.00020865371985725206
6.855,0.0,77.50691242216493,0,60,3.0,5,0.0001626452274101265
6.86,0.0,77.50536474147606,0,60,3.0,5,0.00012622921120135502
6.865,0.0,77.50414544058145,0,60,3.0,5,9.753977838713849e-05
6.87,0.0,77.50318930418436,0,60,3.0,5,7.504245139671184e-05
6.875,0.0,77.50244300605091,0,60,3.0,5,5.7482495315539116e-05
6.88,0.0,77.50186318721106,0,60,3.0,5,4.3839699083705724e-05
6.885,0.0,77.50141478940333,0,60,3.0,5,3.328916243122769e-05
6.89,0.0,77.501069622313,0,60,3.0,5,2.516758383522114e-05
6.895,0.0,77.50080514196202,0,60,3.0,5,1.894451675338239e-05
6.9,0.0,77.50060341738867,0,60,3.0,5,1.4198056204109247e-05
6.905,0.0,77.50045026328183,0,60,3.0,5,1.0594430160809305e-05
6.91,0.0,77.50033451730998,0,60,3.0,5,7.870995528946877e-06
6.915,0.0,77.50024744233824,0,60,3.0,5,5.822172664359053e-06
6.92,0.0,77.50018223541412,0,60,3.0,5,4.2878920968338635e-06
6.925,0.0,77.50013362720881,0,60,3.0,5,3.144169619083507e-06
6.93,0.0,77.5000975574338,0,60,3.0,5,2.295469030688015e-06
6.935,0.0,77.50007091354405,0,60,3.0,5,1.6685539776517544e-06
6.94,0.0,77.50005132173919,0,60,3.0,5,1.207570333944579e-06
6.945,0.0,77.50003698085024,0,60,3.0,5,8.701376527021827e-07
6.95,0.0,77.5000265311314,0,60,3.0,5,6.24261915217015e-07
6.955,0.0,77.50001895125611,0,60,3.0,5,4.4591190845387566e-07
6.96,0.0,77.500013477942,0,60,3.0,5,3.171280471794008e-07
6.965,0.0,77.50000954360634,0,60,3.0,5,2.2455544327011225e-07
6.97,0.0,77.50000672829157,0,60,3.0,5,1.5831274274258999e-07
6.975,0.0,77.50000472280965,0,60,3.0,5,1.1112493292089578e-07
6.98,0.0,77.50000330064967,0,60,3.0,5,7.76623450934387e-08
6.985,0.001684486749771458,77.50000229668679,0,60,3.0,5,5.403968911570487e-08
6.99,0.003097557930867117,77.50000159113661,0,60,3.0,5,3.74385084502565e-08
6.995,0.005475106668887023,77.50000109753029,0,60,3.0,5,2.5824242049352237e-08
7.0,0.00930222931468658,77.50000075375274,0,60,3.0,5,1.7735358677087147e-08
7.005,0.01519157517868857,77.50000051540029,0,60,3.0,5,1.2127065594861907e-08
7.01,0.023847336626128316,77.50000035088415,0,60,3.0,5,8.256097651289618e-09
7.015,0.0359830743700859,77.50000023784072,0,60,3.0,5,5.5962523086183116e-09
7.02,0.05218887796857759,77.50000016051366,0,60,3.0,5,3.776792107815066e-09
7.025,0.0727577001223134,77.50000010785521,0,60,3.0,5,2.537769753818044e-09
7.03,0.0974992498694751,77.5000000721562,0,60,3.0,5,1.6977928814466235e-09
7.035,0.12558706050443358,77.50000004806286,0,60,3.0,5,1.1308907901633682e-09
7.04,0.15549263588878245,77.50000003187489,0,60,3.0,5,7.499974184183349e-10
7.045,0.1850529723539114,77.50000002104706,0,60,3.0,5,4.952248807111412e-10
7.05,0.21169159439317053,77.50000001383685,0,60,3.0,5,3.255730221366428e-10
7.055,0.23277292922115492,77.50000000905705,0,60,3.0,5,2.1310698042832561e-10
7.06,0.24602692519491282,77.50000000590254,0,60,3.0,5,1.3888318469124738e-10
7.065,0.24995056064839283,77.50000000382997,0,60,3.0,5,9.011688127750804e-11
7.07,0.24408826520424054,77.50000000247431,0,60,3.0,5,5.821902959723957e-11
7.075,0.22911894216865275,77.50000000159154,0,60,3.0,5,3.7448109972448196e-11
7.08,0.20672661788705934,77.50000000101926,0,60,3.0,5,2.3982572790427022e-11
7.085,0.17928878030241233,77.5000000006499,0,60,3.0,5,1.5291882792713722e-11
7.09,0.14946211903866036,77.5000000004126,0,60,3.0,5,9.708187195321764e-12
7.095,0.1197651512573837,77.5000000002608,0,60,3.0,5,6.1364142525502864e-12
7.1,0.09224675744988023,77.50000000016412,0,60,3.0,5,3.861674378961599e-12
7.105,0.06829565320281596,77.50000000010284,0,60,3.0,5,2.4198577782098094e-12
7.11,0.04860224607515734,77.50000000006416,0,60,3.0,5,1.5096943303326364e-12
7.115,0.03324612389699793,77.50000000003985,0,60,3.0,5,9.375820381512097e-13
7.12,0.021859876340472782,77.50000000002464,0,60,3.0,5,5.798028723802417e-13
7.125,0.01381595518554205,77.50000000001518,0,60,3.0,5,3.571104196667233e-13
7.13,0.008394095110402422,77.50000000000931,0,60,3.0,5,2.1901434914017206e-13
7.135,0.0049052535271608,77.50000000000568,0,60,3.0,5,1.3374922084896004e-13
7.14,0.0027671663551903634,77.50000000000345,0,60,3.0,5,8.125265166574322e-14
7.145,0.0015425553464444616,77.50000000000209,0,60,3.0,5,4.9152838661992815e-14
7.15,0.0009638206637011801,77.50000000000125,0,60,3.0,5,2.942482858677121e-14
7.155,0.0009804935156568228,77.50000000000075,0,60,3.0,5,1.7721771762487205e-14
7.16,0.0018793744894085216,77.50000000000045,0,60,3.0,5,1.0699937667916803e-14
7.165,0.004535525206900863,77.50000000000027,0,60,3.0,5,6.353087990325602e-15
7.17,0.010832767979632273,77.50000000000016,0,60,3.0,5,3.678103573346401e-15
7.175,0.024208003392322392,77.5000000000001,0,60,3.0,5,2.3406113648568006e-15
7.18,0.0500971897335304,77.50000000000006,0,60,3.0,5,1.3374922084896003e-15
7.185,0.09582894921774403,77.50000000000003,0,60,3.0,5,6.687461042448002e-16
7.19,0.16937896721820658,77.50000000000001,0,60,3.0,5,3.343730521224001e-16
7.195,0.27661303008991756,77.50000000000001,0,60,3.0,5,3.343730521224001e-16
7.2,0.4173782800009149,77.5,0,60,3.0,5,0.0
7.205,0.5818720934538056,77.5,0,60,3.0,5,0.0
7.21,0.7494718801585675,77.5,0,60,3.0,5,0.0
7.215,0.891813020752378,77.5,0,60,3.0,5,0.0
7.22,0.9800361632936612,77.5,0,60,3.0,5,0.0
7.225,0.993574479225126,77.50000248994282,1,60,3.0,5,5.8586889776158976e-08
7.23,0.9263438449375362,77.50000380552395,0,60,3.0,6,8.954173989984744e-08
7.235,0.7873015962290536,77.50000593638781,0,60,3.0,6,1.39679713129226e-07
7.24,0.5959516244629897,77.50000955146527,0,60,3.0,6,2.2474035925851614e-07
7.245,0.376910120078773,77.50001601150335,0,60,3.0,6,3.7674125524865623e-07
7.25,0.15739335672107918,77.50002813833666,0,60,3.0,6,6.62078509642871e-07
7.255,-0.033361226269301235,77.50005180683414,0,60,3.0,6,1.2189843326215102e-06
7.26,-0.1680180840843834,77.50009915896051,0,60,3.0,6,2.3331520119828543e-06
7.265,-0.23069703190837854,77.5001949173451,0,60,3.0,6,4.586290472897257e-06
7.27,-0.22587267821131068,77.50038842890842,0,60,3.0,6,9.13950372759085e-06
7.275,-0.17718181630665902,77.50077594134726,0,60,3.0,6,1.8257443464870662e-05
7.28,-0.11494332516451301,77.50154050202146,0,60,3.0,6,3.6247106387196145e-05
7.285,-0.061810214049552864,77.50302106429805,0,60,3.0,6,7.108386583655267e-05
7.29,-0.026546104631500547,77.50582806699363,0,60,3.0,6,0.00013713098808539945
7.295,-0.00719600351942686,77.5110297722934,0,60,3.0,6,0.00025952405396230247
7.3,0.0022072757983807078,77.52044123887686,0,60,3.0,6,0.00048097032651425893
7.305,0.006917199873730717,77.53705421595274,0,60,3.0,6,0.0008718639047702602
7.31,0.01004859748264829,77.5656483921687,0,60,3.0,6,0.0015446680510281647
7.315,0.013037082251128167,77.61361778133262,0,60,3.0,6,0.002673359560767561
7.32,0.01645163937690478,77.69202488768812,0,60,3.0,6,0.004518232651485184
7.325,0.020526639934696615,77.81685387265462,0,60,3.0,6,0.007455385238932208
7.33,0.02539629541761738,78.01036829501618,0,60,3.0,6,0.012008665765086548
7.335,0.031171612185577933,78.30238982620193,0,60,3.0,6,0.018879760616516035
7.34,0.03795853426638131,78.73121019613063,0,60,3.0,6,0.02896965167366194
7.345,0.0458588961882057,79.34374842619829,0,60,3.0,6,0.043382315910547975
7.35,0.054966995891435555,80.19449891225777,0,60,3.0,6,0.0633999744060652
7.355,0.06536491004445595,81.34282055819683,0,60,3.0,6,0.09041930725169021
7.36,0.07711726085088699,82.84823024479076,0,60,3.0,6,0.12584071164213542
7.365,0.09026570629555215,84.76361058293982,0,60,3.0,6,0.17090848430446634
7.37,0.10482339848670268,87.12662098861364,0,60,3.0,6,0.2265087291438503
7.375,0.12076968927580028,89.95007326204762,0,60,3.0,6,0.29294290028347353
7.38,0.13804539501007884,93.21251614850307,0,60,3.0,6,0.3697062623177193
7.385,0.15654895051787066,96.85065144980784,0,60,3.0,6,0.45530944587783156
7.39,0.17613378141900526,100.75534889717845,0,60,3.0,6,0.5471846799336106
7.395,0.19660720058055794,104.77283232444243,0,60,3.0,6,0.6417137017515867
7.4,0.21773108748496234,108.71203014349793,0,60,3.0,6,0.7344007092587748
7.405,0.23922453870058807,112.35816304783853,0,60,3.0,6,0.8201920717138478
7.41,0.2607685857914563,115.49152435431921,0,60,3.0,6,0.8939182201016285
7.415,0.2820129681603682,117.90931557476307,0,60,3.0,6,0.9508074252885428
7.42,0.30258482867153996,119.44758504432397,0,60,3.0,6,0.987002001042917
7.425,0.3220990771751686,120.0,0,60,3.0,6,1.0
7.43,0.3401700499968971,119.53048331157143,0,60,3.0,6,0.9889525485075631
7.435,0.3564239911198326,118.07764512178605,0,60,3.0,6,0.954768120512613
7.44,0.3705118017738417,115.75027089627324,0,60,3.0,6,0.9000063740299585
7.445,0.3821214567925213,112.71461532107598,0,60,3.0,6,0.8285791840253173
7.45,0.39098947374066967,109.17558029645926,0,60,3.0,6,0.7453077716813943
7.455,0.3969108472035567,105.35475009686118,0,60,3.0,6,0.6554058846320278
7.46,0.3997469255491936,101.46855261644002,0,60,3.0,6,0.5639659439162358
7.465,0.3994308076379137,97.70949370222844,0,60,3.0,6,0.47551749887596334
7.47,0.3959699661768434,94.23259379733645,0,60,3.0,6,0.3937080893490929
7.475,0.38944595408114946,91.14806229054459,0,60,3.0,6,0.3211308774245785
7.48,0.38001120995358023,88.5201284436027,0,60,3.0,6,0.25929713984947533
7.485,0.3678831374098315,86.37103019757335,0,60,3.0,6,0.20873012229584345
7.49,0.35333577933796634,84.68858588314299,0,60,3.0,6,0.16914319725042332
7.495,0.33668953221163944,83.43558240598455,0,60,3.0,6,0.13966076249375406
7.5,0.3182994390982644,82.5593606642362,0,60,3.0,6,0.11904378033496929
7.505,0.29854265738230645,82.00035857665452,0,60,3.0,6,0.10589079003892989
7.51,0.2778057157821067,81.69885586979706,0,60,3.0,6,0.09879660870110724
7.515,0.2564721553719815,81.59963653358932,0,60,3.0,6,0.09646203608445456
7.52,0.23491109433464996,81.65466301792299,0,60,3.0,6,0.09775677689230552
7.525,0.21346717185309805,81.82410177142309,0,60,3.0,6,0.10174357109230794
7.53,0.19245222055656455,82.07615171988677,0,60,3.0,6,0.10767415811498274
7.535,0.17213889801761392,82.3861310312197,0,60,3.0,6,0.1149677889698754
7.54,0.15275638501270183,82.73521037592705,0,60,3.0,6,0.12318142061004832
7.545,0.13448814019607322,83.10908026135901,0,60,3.0,6,0.13197835909080027
7.55,0.11747159495449566,83.4967355800674,0,60,3.0,6,0.1410996607074681
7.555,0.10179958433370105,83.8894711137067,0,60,3.0,6,0.15034049679309894
7.56,0.08752324394101413,84.28011585858825,0,60,3.0,6,0.1595321378491352
7.565,0.07465606047174059,84.66249236323388,0,60,3.0,6,0.1685292320760913
7.57,0.0631787448609295,85.03106583868113,0,60,3.0,6,0.17720154914543834
7.575,0.05304460019959574,85.38074083876755,0,60,3.0,6,0.1854291962062953
7.58,0.044185078305849994,85.70676514941869,0,60,3.0,6,0.19310035645691026
7.585,0.03651525513023255,86.00470666351954,0,60,3.0,6,0.20011074502398923
7.59,0.0299390014708757,86.27047640104377,0,60,3.0,6,0.20636415061279448
7.595,0.024353677220580638,86.50037773141064,0,60,3.0,6,0.21177359368025028
7.6,0.01965423034339045,86.69116751454428,0,60,3.0,6,0.2162627650481006
7.605,0.015736632374757337,86.84011916090118,0,60,3.0,6,0.2197675096682631
7.61,0.012500627640593535,86.94508069587606,0,60,3.0,6,0.22223719284414253
7.615,0.009851811652115898,87.00452308891684,0,60,3.0,6,0.2236358373862786
7.62,0.007703084175428559,87.01757565612239,0,60,3.0,6,0.22394295661464445
7.625,0.005975544002062424,86.98404649438511,0,60,3.0,6,0.22315403516200263
7.63,0.004598905818663047,86.9044268139302,0,60,3.0,6,0.22128063091600472
7.635,0.0035115256454839104,86.77987880203669,0,60,3.0,6,0.21835008945968687
7.64,0.002660121266303676,86.61220732526297,0,60,3.0,6,0.2144048782414817
7.645,0.0019992692560877024,86.40381638099026,0,60,3.0,6,0.20950156190565328
7.65,0.0014907520044639367,86.15765174322021,0,60,3.0,6,0.2037094527816521
7.655,0.0011028178277539807,85.87713170445551,0,60,3.0,6,0.19710898128130605
7.66,0.0008094059938923333,85.56606818397677,0,60,3.0,6,0.18978983962298276
7.665,0.0005893771793717645,85.22858074240006,0,60,3.0,6,0.18184895864470718
7.67,0.0004257792353490551,84.86900620562017,0,60,3.0,6,0.17338838130870982
7.675,0.0003051686392901525,84.49180665504765,0,60,3.0,6,0.16451309776582715
7.68,0.00021699992642659966,84.10147848725309,0,60,3.0,6,0.15532890558242562
7.685,0.00015308884054097838,83.70246509143067,0,60,3.0,6,0.1459403550924863
7.69,0.00010714989329311098,83.29907544860849,0,60,3.0,6,0.13644883408490566
7.695,7.440535854020571e-05,82.89541063710034,0,60,3.0,6,0.12695083852000802
7.7,5.1260276743925106e-05,82.49529985192366,0,60,3.0,6,0.11753646710408615
7.705,3.503659887882241e-05,82.10224713113755,0,60,3.0,6,0.10828816779147166
7.71,2.375894748103639e-05,81.71938954924038,0,60,3.0,6,0.09927975409977353
7.715,1.5984413869232557e-05,81.34946720642466,0,60,3.0,6,0.09057569897469794
7.72,1.0669166579899869e-05,80.99480493070575,0,60,3.0,6,0.0822307042519001
7.725,7.06526633560511e-06,80.65730523356406,0,60,3.0,6,0.07428953490738964
7.73,4.641847214699205e-06,80.33845173171007,0,60,3.0,6,0.06678709956964861
7.735,3.025641074479182e-06,80.03932197752341,0,60,3.0,6,0.059748752412315635
7.74,1.9566278676921314e-06,79.7606084347192,0,60,3.0,6,0.05319078669927535
7.745,1.2553456560008793e-06,79.50264619642017,0,60,3.0,6,0.0471210869745923
7.75,7.990660428214668e-07,79.26544596930036,0,60,3.0,6,0.04153990516000844
7.755,5.046221251618276e-07,79.04873083608925,0,60,3.0,6,0.03644072555504114
7.76,3.1616527078858815e-07,78.85197535329688,0,60,3.0,6,0.03181118478345598
7.765,1.9652884407760343e-07,78.67444563345711,0,60,3.0,6,0.027634014904873203
7.77,1.2120002189836396e-07,78.51523919213612,0,60,3.0,6,0.023887980991438153
7.775,7.415549848886236e-08,78.37332349940569,0,60,3.0,6,0.020548788221310253
7.78,4.501406988770349e-08,78.24757235335397,0,60,3.0,6,0.01758993772597585
7.785,0.0,78.13679937985393,0,60,3.0,6,0.014983514820092376
7.79,0.0,78.03978814945174,0,60,3.0,6,0.012700897634158537
7.795,0.0,77.95531858127889,0,60,3.0,6,0.010713378383032665
7.8,0.0,77.88218946913811,0,60,3.0,6,0.008992693391484983
7.805,0.0,77.81923711168028,0,60,3.0,6,0.007511461451300714
7.81,0.0,77.7653501537141,0,60,3.0,6,0.006243533028566952
7.815,0.0,77.71948084745911,0,60,3.0,6,0.005164255234331998
7.82,0.0,77.68065302056385,0,60,3.0,6,0.004250659307384761
7.825,0.0,77.647967092686,0,60,3.0,6,0.0034815786514353505
7.83,0.0,77.62060251599861,0,60,3.0,6,0.0028377062587908847
7.835,0.0,77.59781802945105,0,60,3.0,6,0.0023016006929658353
7.84,0.0,77.57895011472735,0,60,3.0,6,0.0018576497582905498
7.845,0.0,77.56341002660088,0,60,3.0,6,0.001492000625902994
7.85,0.0,77.55067974482027,0,60,3.0,6,0.0011924645840063958
7.855,0.0,77.54030716171373,0,60,3.0,6,0.0009484038050288745
7.86,0.0,77.53190078207007,0,60,3.0,6,0.0007506066369427679
7.865,0.0,77.52512417193833,0,60,3.0,6,0.0005911569867842392
7.87,0.0,77.51969035280118,0,60,3.0,6,0.0004633024188512322
7.875,0.0,77.515356298754,0,60,3.0,6,0.00036132467656470373
7.88,0.0,77.5119176580947,0,60,3.0,6,0.0002804154845812397
7.885,0.0,77.50920378796964,0,60,3.0,6,0.00021655971693268624
7.89,0.0,77.50707316196097,0,60,3.0,6,0.0001664273402582239
7.895,0.0,77.5054091859877,0,60,3.0,6,0.00012727496441651537
7.9,0.0,77.50411643763564,0,60,3.0,6,9.685735613281983e-05
7.905,0.0,77.50311732785518,0,60,3.0,6,7.334889071009511e-05
7.91,0.0,77.50234917155994,0,60,3.0,6,5.527462493981094e-05
7.915,0.0,77.50176164462405,0,60,3.0,6,4.1450461742442714e-05
7.92,0.0,77.50131459866044,0,60,3.0,6,3.0931733186889686e-05
7.925,0.0,77.50097620130107,0,60,3.0,6,2.296944237815189e-05
7.93,0.0,77.50072136803325,0,60,3.0,6,1.6973365488330967e-05
7.935,0.0,77.50053045154435,0,60,3.0,6,1.2481212808231303e-05
7.94,0.0,77.50038815560109,0,60,3.0,6,9.133072966746756e-06
7.945,0.0,77.50028264239916,0,60,3.0,6,6.650409391915994e-06
7.95,0.0,77.50020480477525,0,60,3.0,6,4.818935888258292e-06
7.955,0.0,77.50014767744172,0,60,3.0,6,3.4747633345191655e-06
7.96,0.0,77.50010596429578,0,60,3.0,6,2.4932775478619614e-06
7.965,0.0,77.50007566172987,0,60,3.0,6,1.7802759968537216e-06
7.97,0.0,77.50005376062273,0,60,3.0,6,1.2649558290350423e-06
7.975,0.0,77.50003801225458,0,60,3.0,6,8.94405990065399e-07
7.98,0.0,77.50002674571927,0,60,3.0,6,6.293110415941449e-07
7.985,0.0,77.50001872648421,0,60,3.0,6,4.4062315797579207e-07
7.99,0.0,77.50001304756682,0,60,3.0,6,3.070015723364229e-07
7.995,0.0,77.50000904636538,0,60,3.0,6,2.128556559455319e-07
8.0,0.001684486749771458,77.50000624151522,0,60,3.0,6,1.4685918171487762e-07
8.005,0.003097557930867117,77.5000042852608,0,60,3.0,6,1.0082966589246045e-07
8.01,0.005475106668887023,77.50000292776217,0,60,3.0,6,6.888852159564147e-08
8.015,0.00930222931468658,77.50000199051588,0,60,3.0,6,4.683566785120895e-08
8.02,0.01519157517868857,77.50000134668745,0,60,3.0,6,3.168676364432887e-08
8.025,0.023847336626128316,77.50000090664922,0,60,3.0,6,2.133292281648798e-08
8.03,0.0359830743700859,77.50000060741161,0,60,3.0,6,1.4292037817272906e-08
8.035,0.05218887796857759,77.50000040494702,0,60,3.0,6,9.528165090908741e-09
8.04,0.0727577001223134,77.50000026864862,0,60,3.0,6,6.32114399516414e-09
8.045,0.0974992498694751,77.50000017735456,0,60,3.0,6,4.173048583812916e-09
8.05,0.12558706050443358,77.5000001165122,0,60,3.0,6,2.74146346408302e-09
8.055,0.15549263588878245,77.50000007616786,0,60,3.0,6,1.7921850565685685e-09
8.06,0.1850529723539114,77.50000004954998,0,60,3.0,6,1.1658819269488209e-09
8.065,0.21169159439317053,77.50000003207646,0,60,3.0,6,7.547401657896391e-10
8.07,0.23277292922115492,77.50000002066335,0,60,3.0,6,4.861964739307843e-10
8.075,0.24602692519491282,77.50000001324605,0,60,3.0,6,3.116717968677061e-10
8.08,0.24995056064839283,77.50000000844973,0,60,3.0,6,1.9881721367282272e-10
8.085,0.24408826520424054,77.50000000536379,0,60,3.0,6,1.2620676791223507e-10
8.09,0.22911894216865275,77.50000000338821,0,60,3.0,6,7.972256057923112e-11
8.095,0.20672661788705934,77.50000000212981,0,60,3.0,6,5.011315806768835e-11
8.1,0.17928878030241233,77.50000000133224,0,60,3.0,6,3.1346804890370766e-11
8.105,0.14946211903866036,77.50000000082927,0,60,3.0,6,1.9512339456602656e-11
8.11,0.1197651512573837,77.50000000051367,0,60,3.0,6,1.2086248342016274e-11
8.115,0.09224675744988023,77.50000000031662,0,60,3.0,6,7.449831601287074e-12
8.12,0.06829565320281596,77.5000000001942,0,60,3.0,6,4.56954213030472e-12
8.125,0.04860224607515734,77.50000000011853,0,60,3.0,6,2.789005627752939e-12
8.13,0.03324612389699793,77.500000000072,0,60,3.0,6,1.6942682551042012e-12
8.135,0.021859876340472782,77.50000000004351,0,60,3.0,6,1.023850285598789e-12
8.14,0.01381595518554205,77.50000000002618,0,60,3.0,6,6.15915162009461e-13
8.145,0.008394095110402422,77.50000000001566,0,60,3.0,6,3.684791034388849e-13
8.15,0.0049052535271608,77.50000000000934,0,60,3.0,6,2.1968309524441686e-13
8.155,0.0027671663551903634,77.50000000000553,0,60,3.0,6,1.3007111727561363e-13
8.16,0.0015425553464444616,77.50000000000325,0,60,3.0,6,7.657142893602963e-14
8.165,0.0009638206637011801,77.50000000000192,0,60,3.0,6,4.514036203652401e-14
8.17,0.0009804935156568228,77.50000000000112,0,60,3.0,6,2.6415471117669608e-14
8.175,0.0018793744894085216,77.50000000000065,0,60,3.0,6,1.5381160397630403e-14
8.18,0.004535525206900863,77.50000000000037,0,60,3.0,6,8.693699355182403e-15
8.185,0.010832767979632273,77.50000000000021,0,60,3.0,6,5.015595781836002e-15
8.19,0.024208003392322392,77.50000000000013,0,60,3.0,6,3.0093574691016007e-15
8.195,0.0500971897335304,77.50000000000007,0,60,3.0,6,1.6718652606120004e-15
8.2,0.09582894921774403,77.50000000000004,0,60,3.0,6,1.0031191563672002e-15
8.205,0.16937896721820658,77.50000000000003,0,60,3.0,6,6.687461042448002e-16
8.21,0.27661303008991756,77.50000000000001,0,60,3.0,6,3.343730521224001e-16
8.215,0.4173782800009149,77.5,0,60,3.0,6,0.0
8.22,0.5818720934538056,77.5,0,60,3.0,6,0.0
8.225,0.7494718801585675,77.5,0,60,3.0,6,0.0
8.23,0.891813020752378,77.5,0,60,3.0,6,0.0
8.235,0.9800361632936612,77.5,0,60,3.0,6,0.0
8.24,0.993574479225126,77.50000249379623,1,60,3.0,6,5.8677558372972485e-08
8.245,0.9263438449375362,77.50000382794776,0,60,3.0,6,9.006935917622125e-08
8.25,0.7873015962290536,77.50000600036053,0,60,3.0,6,1.4118495361050436e-07
8.255,0.5959516244629897,77.50000970943701,0,60,3.0,6,2.2845734138975198e-07
8.26,0.376910120078773,77.5000163868594,0,60,3.0,6,3.8557316235496463e-07
8.265,0.15739335672107918,77.50002902423199,0,60,3.0,6,6.829231056947131e-07
8.27,-0.033361226269301235,77.50005389476512,0,60,3.0,6,1.268112120388811e-06
8.275,-0.1680180840843834,77.50010404947875,0,60,3.0,6,2.4482230294191086e-06
8.28,-0.23069703190837854,77.50020622040319,0,60,3.0,6,4.852244780843595e-06
8.285,-0.22587267821131068,77.50041404783398,0,60,3.0,6,9.742301976115521e-06
8.29,-0.17718181630665902,77.50083263801669,0,60,3.0,6,1.959148274562829e-05
8.295,-0.11494332516451301,77.50166268015035,0,60,3.0,6,3.912188589050161e-05
8.3,-0.061810214049552864,77.5032770278292,0,60,3.0,6,7.710653715762687e-05
8.305,-0.026546104631500547,77.50634895429774,0,60,3.0,6,0.0001493871599467077
8.31,-0.00719600351942686,77.5120590120072,0,60,3.0,6,0.0002837414589929294
8.315,0.0022072757983807078,77.52241562190353,0,60,3.0,6,0.0005274263977302032
8.32,0.006917199873730717,77.54073109806174,0,60,3.0,6,0.0009583787779233182
8.325,0.01004859748264829,77.57229617891642,0,60,3.0,6,0.0017010865627392323
8.33,0.013037082251128167,77.62528706971409,0,60,3.0,6,0.0029479310520962505
8.335,0.01645163937690478,77.7119131132812,0,60,3.0,6,0.004986190900734086
8.34,0.020526639934696615,77.84976424958334,0,60,3.0,6,0.008229747049019874
8.345,0.02539629541761738,78.06324165455797,0,60,3.0,6,0.013252744813128709
8.35,0.031171612185577933,78.38485440731901,0,60,3.0,6,0.020820103701623793
8.355,0.03795853426638131,78.85605110071748,0,60,3.0,6,0.031907084722764226
8.36,0.0458588961882057,79.52715125776614,0,60,3.0,6,0.047697676653320836
8.365,0.054966995891435555,80.45588226229052,0,60,3.0,6,0.06955017087742389
8.37,0.06536491004445595,81.70405544530206,0,60,3.0,6,0.09891895165416613
8.375,0.07711726085088699,83.33206946519013,0,60,3.0,6,0.1372251638868266
8.38,0.09026570629555215,85.39123254573106,0,60,3.0,6,0.1856760598995543
8.385,0.10482339848670268,87.9143369512103,0,60,3.0,6,0.24504322238141887
8.39,0.12076968927580028,90.90544393360824,0,60,3.0,6,0.3154222102025468
8.395,0.13804539501007884,94.33034336266256,0,60,3.0,6,0.396008079121472
8.4,0.15654895051787066,98.10950421064753,0,60,3.0,6,0.4849295108387654
8.405,0.17613378141900526,102.11539119616134,0,60,3.0,6,0.5791856752037963
8.41,0.19660720058055794,106.17568759500095,0,60,3.0,6,0.6747220610588459
8.415,0.21773108748496234,110.08321153763839,0,60,3.0,6,0.7666638008856091
8.42,0.23922453870058807,113.61222628224048,0,60,3.0,6,0.8496994419350702
8.425,0.2607685857914563,116.53961398056285,0,60,3.0,6,0.9185791524838317
8.43,0.2820129681603682,118.66827111065578,0,60,3.0,6,0.9686652026036654
8.435,0.30258482867153996,119.84936740314373,0,60,3.0,7,0.9964557036033819
8.44,0.3220990771751686,120.0,0,60,3.0,7,1.0
8.445,0.3401700499968971,119.11335164043977,0,60,3.0,7,0.9791376856574064
8.45,0.3564239911198326,117.2596422087817,0,60,3.0,7,0.9355209931478047
8.455,0.3705118017738417,114.57771066593102,0,60,3.0,7,0.8724167215513182
8.46,0.3821214567925213,111.25864733544083,0,60,3.0,7,0.7943211137750783
8.465,0.39098947374066967,107.52417358062645,0,60,3.0,7,0.7064511430735636
8.47,0.3969108472035567,103.60317581973628,0,60,3.0,7,0.614192372229089
8.475,0.3997469255491936,99.70982687224779,0,60,3.0,7,0.5225841616999479
8.48,0.3994308076379137,96.02611916232044,0,60,3.0,7,0.43590868617224565
8.485,0.3959699661768434,92.69058107724302,0,60,3.0,7,0.3574254371116006
8.49,0.38944595408114946,89.79371843965717,0,60,3.0,7,0.28926396328605103
8.495,0.38001120995358023,87.37958938048318,0,60,3.0,7,0.2324609265996043
8.5,0.3678831374098315,85.45209135214775,0,60,3.0,7,0.1871080318152411
8.505,0.35333577933796634,83.98411918621723,0,60,3.0,7,0.15256751026393478
8.51,0.33668953221163944,82.92773974008752,0,60,3.0,7,0.12771152329617688
8.515,0.3182994390982644,82.22383282330381,0,60,3.0,7,0.11114900760714845
8.52,0.29854265738230645,81.81013488536829,0,60,3.0,7,0.10141493847925377
8.525,0.2778057157821067,81.62715266498432,0,60,3.0,7,0.09710947447021935
8.53,0.2564721553719815,81.62187846806819,0,60,3.0,7,0.09698537571925152
8.535,0.23491109433464996,81.74957199839405,0,60,3.0,7,0.09998992937397755
8.54,0.21346717185309805,81.9740569196691,0,60,3.0,7,0.10527192752162577
8.545,0.19245222055656455,82.2670305887381,0,60,3.0,7,0.11216542561736693
8.55,0.17213889801761392,82.6068399772209,0,60,3.0,7,0.12016094064049178
8.555,0.15275638501270183,82.97707830332679,0,60,3.0,7,0.12887243066651274
8.56,0.13448814019607322,83.36524231629802,0,60,3.0,7,0.13800570155995348
8.565,0.11747159495449566,83.76158527846451,0,60,3.0,7,0.14733141831681196
8.57,0.10179958433370105,84.15821910240557,0,60,3.0,7,0.156663978880131
8.575,0.08752324394101413,84.54846447631488,0,60,3.0,7,0.16584622297211474
8.58,0.07465606047174059,84.92641729835339,0,60,3.0,7,0.17473923054949142
8.585,0.0631787448609295,85.2866873918496,0,60,3.0,7,0.18321617392587286
8.59,0.05304460019959574,85.6242648120442,0,60,3.0,7,0.19115917204809887
8.595,0.044185078305849994,85.93447459191242,0,60,3.0,7,0.19845822569205693
8.6,0.03651525513023255,86.21298860076058,0,60,3.0,7,0.20501149648848427
8.605,0.0299390014708757,86.45587095455626,0,60,3.0,7,0.21072637540132377
8.61,0.024353677220580638,86.65963999461131,0,60,3.0,7,0.2155209410496779
8.615,0.01965423034339045,86.82133492105665,0,60,3.0,7,0.21932552755427404
8.62,0.015736632374757337,86.93857885017128,0,60,3.0,7,0.2220842082393243
8.625,0.012500627640593535,87.00963266008729,0,60,3.0,7,0.2237560625902892
8.63,0.009851811652115898,87.03343582049601,0,60,3.0,7,0.2243161369528473
8.635,0.007703084175428559,87.00963173891398,0,60,3.0,7,0.2237560409156231
8.64,0.005975544002062424,86.938576193165,0,60,3.0,7,0.22208414572152954
8.645,0.004598905818663047,86.82132827999462,0,60,3.0,7,0.219325371293991
8.65,0.0035115256454839104,86.65962406044066,0,60,3.0,7,0.2155205661280156
8.655,0.002660121266303676,86.45583375264079,0,60,3.0,7,0.21072550006213614
8.66,0.0019992692560877024,86.21290391749133,0,60,3.0,7,0.2050095039409725
8.665,0.0014907520044639367,85.93428659481444,0,60,3.0,7,0.19845380223092796
8.67,0.0011028178277539807,85.62385776540609,0,60,3.0,7,0.1911495944801432
8.675,0.0008094059938923333,85.28582782555713,0,60,3.0,7,0.18319594883663848
8.68,0.0005893771793717645,84.92464695644118,0,60,3.0,7,0.17469757544567482
8.685,0.0004257792353490551,84.54490834692771,0,60,3.0,7,0.1657625493394756
8.69,0.0003051686392901525,84.1512521860989,0,60,3.0,7,0.1565000514376212
8.695,0.00021699992642659966,83.74827318768754,0,60,3.0,7,0.14701819265147165
8.7,0.00015308884054097838,83.34043415451329,0,60,3.0,7,0.13742198010619505
8.705,0.00010714989329311098,82.93198775273756,0,60,3.0,7,0.1278114765350013
8.71,7.440535854020571e-05,82.52690826257488,0,60,3.0,7,0.11828019441352654
8.715,5.1260276743925106e-05,82.12883462523583,0,60,3.0,7,0.10891375588790177
8.72,3.503659887882241e-05,81.74102563739208,0,60,3.0,7,0.09978883852687258
8.725,2.375894748103639e-05,81.36632767600855,0,60,3.0,7,0.09097241590608358
8.73,1.5984413869232557e-05,81.00715488812935,0,60,3.0,7,0.08252129148539646
8.735,1.0669166579899869e-05,80.66548136982472,0,60,3.0,7,0.07448191458411102
8.74,7.06526633560511e-06,80.34284450049499,0,60,3.0,7,0.06689045883517625
8.745,4.641847214699205e-06,80.04035830388436,0,60,3.0,7,0.059773136561984956
8.75,3.025641074479182e-06,79.75873548233507,0,60,3.0,7,0.0531467172314134
8.755,1.9566278676921314e-06,79.4983166189272,0,60,3.0,7,0.04701921456299307
8.76,1.2553456560008793e-06,79.25910496239372,0,60,3.0,7,0.04139070499749932
8.765,7.990660428214668e-07,79.04080519796145,0,60,3.0,7,0.03625423995203405
8.77,5.046221251618276e-07,78.84286465667756,0,60,3.0,7,0.03159681545123677
8.775,3.1616527078858815e-07,78.66451551736972,0,60,3.0,7,0.02740036511458169
8.78,1.9652884407760343e-07,78.50481669878073,0,60,3.0,7,0.023642745853664215
8.785,1.2120002189836396e-07,78.36269431353409,0,60,3.0,7,0.020298689730213936
8.79,7.415549848886236e-08,78.23697974928406,0,60,3.0,7,0.01734069998315436
8.795,4.501406988770349e-08,78.12644464506172,0,60,3.0,7,0.014739874001452335
8.8,0.0,78.02983223281902,0,60,3.0,7,0.012466640772212191
